##TITLE=<SNM>
##JCAMP-DX=4.24
##DATA TYPE=INFRARED SPECTRUM
##DATE=3/5/2025
##SAMPLING PROCEDURE=Instrument type and / or accessory
##ORIGIN=Admin
##XUNITS=1/CM
##YUNITS=ABSORBANCE
##RESOLUTION=4
##FIRSTX=4497.3318
##LASTX=599.83466
##DELTAX=-1.4281778
##MAXY=1.7727733
##MINY=0.20815757
##XFACTOR=1
##YFACTOR=1.6510238e-09
##NPOINTS=2730
##FIRSTY=0.23153691
##XYDATA=(X++(Y..Y))
4497+140238387+140526298+140818225+140536036+139776711+138919053+138184972
4487+137632942+137283731+137287377+137866853+138855388+139546454+139424422
4477+138781470+138208176+137895157+137873207+138338395+139198444+139863201
4467+139927913+139626284+139411507+139470217+139622421+139435243+138654780
4457+137647392+137055406+137009476+137075415+136954601+136843851+137030965
4447+137408624+137593925+137392794+136892705+136201061+135391085+134710091
4437+134553699+135053183+135806912+136141331+135650547+134538166+133504017
4427+133206666+133681754+134298839+134384671+133860972+133179508+132755079
4417+132715350+133101348+133905783+134821085+135304315+135046639+134184939
4407+133125013+132440580+132681486+133761521+134745028+134743350+133837551
4397+132793474+132202661+132137561+132273574+132202219+131923785+131938253
4387+132523984+133177658+133200998+132653110+132175576+132006124+131783242
4377+131310356+130818850+130378518+129787607+129217824+129238068+129978756
4367+130843751+131229777+131084603+130613071+129814439+128630017+127458610
4357+127041094+127553900+128256537+128454636+128364174+128532976+128904209
4347+128999743+128648014+128098547+127642015+127429521+127562889+128106661
4337+128907440+129524697+129547712+129023760+128426350+128178603+128352224
4327+128734784+128952080+128615468+127656429+126570943+126077876+126392005
4317+127045418+127549622+127881071+128145831+128240860+128133151+128055812
4307+128170281+128359779+128427316+128256952+127943103+127861594+128232340
4297+128603609+128347188+127680635+127539541+128362667+129581575+130395170
4287+130563305+130298463+129753942+128951412+128088782+127567321+127642520
4277+128194785+128858125+129315984+129485599+129471907+129457412+129678824
4267+130295476+131114152+131610766+131421675+130776855+130340404+130526815
4257+131002706+131177032+131084865+131199677+131525909+131665072+131596253
4247+131564845+131424392+130894808+130269185+130210276+130938473+132013796
4237+132823348+132991708+132461618+131567634+130973139+131103547+131634449
4227+131946854+131964535+132041504+132268186+132477521+132689564+133013991
4217+133285791+133252795+133006473+132893674+133069705+133351695+133473782
4207+133404620+133383401+133596256+133945720+134254985+134456892+134446143
4197+134120813+133692675+133558061+133857894+134485746+135286255+135893241
4187+135798744+135030339+134352847+134427244+135078445+135682976+136035282
4177+136411236+136838887+136886875+136387977+135829954+135718436+135996816
4167+136327715+136547601+136657079+136644606+136465776+136117053+135707669
4157+135431690+135413955+135633561+136028974+136548395+137063348+137414202
4147+137585062+137623203+137416504+136854582+136130500+135554273+135229693
4137+135190820+135523858+136079155+136505921+136822614+137463273+138550970
4127+139571265+139884492+139302687+138225171+137370032+137207195+137569926
4117+137975952+138247446+138532576+138807228+138766650+138337438+137896646
4107+137692266+137423480+136853715+136432906+136626266+137057545+137110109
4097+136934132+137072410+137495187+137735299+137643339+137417587+137181915
4087+136983636+136987300+137325473+137860897+138293430+138436302+138273836
4077+137870906+137377044+137010216+136943942+137223567+137703593+138029545
4067+137900825+137415023+136936587+136686177+136702738+137000107+137453336
4057+137765317+137793612+137681977+137584214+137525043+137524863+137606461
4047+137735561+137897648+138077615+138097389+137727916+137049837+136464404
4037+136256955+136326397+136426642+136523178+136771738+137151463+137337315
4027+137146021+136903996+137070713+137663348+138389172+139115230+139810854
4017+140280581+140311159+139907335+139220962+138447503+137850960+137707645
4007+138139375+138957177+139691105+139996858+140045884+140219019+140513491
3997+140647527+140568591+140447587+140393065+140487326+140768657+141015312
3987+140993904+140931421+141244549+141862771+142271171+142231802+142139336
3977+142519992+143330465+143941800+143845833+143200968+142592999+142442166
3967+142727649+143168648+143574151+143949364+144254007+144290235+144001531
3957+143652780+143532182+143675325+144032542+144651549+145421363+145889510
3947+145802487+145610995+145889077+146509068+146854155+146629179+146054134
3937+145608730+145959277+147544391+149760047+151018703+150407665+148994160
3927+148593297+149664540+150975029+151366416+151296767+151875611+153054077
3917+153560492+152524809+150523867+148688695+147568543+147252211+148115031
3907+150887591+155695326+161082014+164631580+165205379+163429594+160112811
3897+156170117+153355778+153276661+155620253+157699707+157348149+156310317
3887+157382482+160070753+161661914+161759190+161904102+161619784+159777915
3878+158050217+158747177+161719821+165495799+169143814+171407476+170867468
3868+168852510+167975150+168164630+167292920+164844905+162728934+162831138
3858+166131657+173113585+182184516+186523047+181006303+171717246+164993950
3848+162295462+163128164+166311696+170403905+174551639+178605726+181755539
3838+182255456+179971125+177051262+174889659+173136835+171419119+170275077
3828+170146988+171028084+173598629+178638163+184038605+185303498+182519593
3818+179935096+178336949+175523531+171756886+169624616+170683530+174606658
3808+179205265+182120219+184161586+187474704+190808022+191005606+189010034
3798+187853934+187572233+186889587+186233855+186846247+188987417+192264072
3788+196496447+201596036+207182186+213159658+220304983+229080205+238208321
3778+246201204+253941753+263470886+275485057+288927823+301477560+310782051
3768+316512390+319748323+321025960+321245061+322336449+325371621+329495510
3758+333777885+339344828+348423593+362018780+378126243+392047717+402149241
3748+412406074+425664144+439383232+448088417+452365630+458166909+468917937
3738+484578751+502199992+516845267+525989773+531880981+537845258+545541800
3728+555259600+565353363+572262312+574116094+572492712+569549419+566294135
3718+563131019+560700368+559991441+561065031+561522547+558276541+551707561
3708+544852765+540570029+540653893+544485142+548463000+549601753+549362580
3698+550968416+555430650+561572548+567980984+573724247+577200942+576513603
3688+572942538+569960761+568511750+567835241+568251204+571085471+577278597
3678+586217793+593714079+593789387+587848900+582482502+579228193+575211706
3668+569944443+565818496+563630088+562016598+560034979+558744599+559346666
3658+560627840+560367367+559596128+562147466+569877330+579928203+585104852
3648+581073997+572273467+564771657+560740513+559418400+558979765+558392897
3638+558183182+559022942+560613869+563006757+567531049+574225554+578874650
3628+577443942+573759446+573353086+577215599+583304355+588051683+588599381
3618+586811412+587453154+591958204+597980172+602767032+604943563+603927699
3608+600704546+598844554+601469683+607992345+614501829+617097825+615906255
3598+614777718+616750961+621125106+624846606+626714721+628592511+631691042
3588+633590421+631546346+627777986+626094712+626702880+627284116+626829019
3578+626471107+626548870+625545534+623106941+621972917+625277949+632522246
3568+638187385+636747869+630707922+627063102+627912645+629455268+627869973
3558+623993453+621080918+620354697+620191879+618412647+615210577+613442752
3548+615056423+617773720+617221004+613071483+609289476+608042526+607734074
3538+606949802+606825613+608190471+609583777+609680385+608879145+607573927
3528+605728990+604584712+605894768+609061098+611093908+609697714+605353785
3518+600531908+597756378+598049054+600244936+601738027+601031229+599638537
3508+599894750+601418888+601665535+599350482+595465044+591578740+588942708
3498+588299846+589102782+589728207+589120797+587393623+584931997+582106720
3488+579583974+577925863+577004369+576145944+574936431+573825548+573543342
3478+574004287+574511262+574756537+574707114+573986417+572532424+571223523
3468+570889258+571285402+571576922+571200527+570020437+568227124+566207996
3458+564362590+563139322+562779750+562790111+562459312+562024612+562412235
3448+563776407+564965631+564609525+562508121+559838622+557889026+556713702
3438+555426101+553698746+552339448+552080130+552520534+552800141+552667828
3428+552153886+550802060+548383973+545867581+544463770+544105930+543907263
3418+543640219+543688884+544106183+544619765+544964391+544684278+543323139
3408+541141120+539010402+537502401+536547874+535914327+535461143+534953698
3398+534258237+533679094+533604761+533849458+533676387+532493192+530472981
3388+528491038+527415643+527487738+528196954+528716745+528739670+528855375
3378+529845643+531491011+532487849+531835745+529929363+528241178+528178939
3368+529820552+531514946+531314582+529130614+526768954+525693775+525608901
3358+525348211+524478703+523684214+523840751+525084019+526766788+528004244
3348+528160347+527208491+526031001+525891071+526963614+527828465+527105493
3338+525127774+523241067+522020940+521074175+520073257+519082015+518120087
3328+516998987+515616548+514324831+513879410+514703971+516180636+517008374
3318+516410459+514751805+513048711+512214691+512482963+513159651+513333806
3308+512941309+512580509+512513757+512588812+512829285+513305285+513644424
3298+513399438+512869142+512919720+513815257+514798015+515192751+515258997
3288+515372428+515275604+514810651+514424111+514510430+515074012+515868537
3278+516310421+515953773+515304160+515157299+515385208+515578930+516080129
3268+517057761+517520186+516445405+514182013+511938875+510541778+509950722
3258+509656927+509472448+509627613+509899422+509288654+507242053+504744615
3248+503420588+503729618+504596418+504869490+504588908+504387931+504284102
3238+503901497+503360226+502881807+501956558+500021042+497683786+496304849
3228+496529545+497774365+498815681+498584702+496875038+494546808+492662447
3218+491433403+490405482+489472002+489096328+489515829+490254180+490543787
3208+489986197+488730041+487243665+486082023+485602629+485586239+485319845
3198+484188926+482097847+479561636+477561750+476869862+477243081+477671318
3188+477522941+476924917+476139382+475199368+474089784+472766985+471142592
3178+469474480+468468580+468571939+469348088+469832608+469447981+468318686
3168+466739601+464758885+462441125+460170152+458448610+457507007+457114835
3158+456733097+455957164+454807039+453574601+452544189+451862879+451495292
3148+451323051+451292690+451242761+450707085+449321757+447411043+445778094
3138+444861076+444319191+443513800+442231903+440801232+439676811+439140846
3128+439219186+439535256+439371499+438316790+436875216+436047911+436168924
3118+436432935+435827186+434348571+432909524+432139910+431708929+430905812
3108+429646046+428635344+428504187+429001884+429248133+428702205+427672911
3098+426868206+426549573+426200217+425158000+423529816+422187774+421832065
3088+422261133+422615723+422349654+421798165+421539931+421483504+421046999
3078+420023121+418756459+417631135+416761122+415999883+415091638+413979853
3068+412908790+412076611+411426276+410913453+410643701+410577635+410378246
3058+409731594+408715802+407762466+407240942+407150869+407295889+407533257
3048+407576579+406924078+405501097+404037898+403288428+403156188+402963838
3038+402283936+401223631+400192930+399592849+399474147+399388766+398795689
3028+397653650+396390815+395310762+394312336+393219864+392097826+391134273
3018+390390436+389728693+388937742+388001158+387162625+386578320+386153007
3008+385880548+385911198+386095244+385992246+385493358+384920858+384454498
2998+383889904+382985811+381761605+380448914+379317958+378541990+378117832
2988+377840174+377409734+376689615+375865848+375249232+374922982+374661715
2978+374182610+373403826+372466591+371595712+370981984+370691655+370577321
2968+370343779+369780558+368902566+367868977+366839611+365893351+365016515
2958+364186936+363474939+362960383+362520629+361896287+361079813+360399370
2948+360047162+359818928+359500692+359168846+358942127+358797468+358704001
2938+358547356+357976337+356782492+355352940+354332997+353916420+353776851
2928+353587895+353333090+353145470+353028573+352755789+352053468+350959011
2918+349937118+349486425+349610831+349776682+349450721+348639986+347804198
2908+347257005+346851476+346305655+345574633+344764477+343946414+343219724
2898+342739825+342517150+342306931+341818837+341009583+340084478+339248004
2888+338606225+338260985+338192320+338043040+337432164+336529190+335882249
2878+335669177+335561919+335298738+334961152+334699054+334519015+334322550
2868+333964242+333372175+332668699+332012877+331377235+330693795+330085844
2858+329697968+329424895+329034745+328479285+327938555+327601258+327466743
2848+327350965+327090239+326699222+326267772+325798487+325262847+324710275
2838+324205286+323752210+323345453+322992416+322675660+322389771+322182945
2828+322061174+321896226+321520083+320895994+320150748+319424997+318698560
2818+317837284+316864525+316053647+315627684+315476562+315275657+314794566
2808+314043436+313217286+312533521+312078316+311788059+311527983+311157255
2798+310613059+309978645+309377084+308799458+308161470+307538067+307175571
2788+307161238+307180841+306791197+305948187+305051243+304391846+303830971
2778+303162730+302455590+301799443+301057915+300151060+299263195+298537516
2768+297892344+297310675+296939387+296741442+296408008+295791013+295140570
2758+294728560+294434332+293904721+293025267+292020486+291140979+290490265
2748+290123869+290050818+290089501+289915906+289342576+288487978+287617333
2738+286843892+286068519+285222622+284433748+283888685+283646046+283591497
2728+283459545+282971686+282116149+281208988+280555801+280168069+279881134
2718+279581183+279217351+278737633+278144808+277549600+277067517+276676591
2708+276250303+275736414+275235089+274858982+274580242+274286013+273918968
2698+273453889+272822796+272038470+271310102+270831322+270530722+270225284
2688+269909232+269684410+269525472+269328610+269094834+268865065+268549754
2678+268019655+267340746+266741928+266333818+266020347+265704007+265405464
2668+265159955+264957028+264772621+264524548+264073350+263431247+262860570
2658+262598545+262572533+262495438+262171517+261642447+261095183+260687577
2648+260442447+260253220+259984516+259619727+259302791+259144919+259024375
2638+258732151+258276855+257857264+257587711+257437907+257352509+257253915
2628+257033948+256699322+256405148+256223683+256002741+255554088+254901317
2618+254287733+253972855+253996195+254126846+254105420+253908287+253695937
2608+253577091+253533065+253505411+253465013+253409363+253283007+252942406
2598+252360087+251822678+251669607+251861668+252067231+252113026+252075787
2588+252011833+251890603+251755710+251690727+251612711+251313031+250772428
2578+250278666+250131461+250323107+250579266+250645115+250471846+250170289
2568+249884255+249759939+249944220+250451935+251069237+251544966+251831306
2558+252004197+252061797+251954124+251718020+251459749+251231821+250974507
2548+250612191+250211138+249912216+249650389+249156248+248374160+247672922
2538+247447955+247638806+247823954+247750595+247570628+247517938+247581585
2528+247603409+247497992+247268674+246962460+246667420+246465034+246388553
2518+246431478+246527039+246568682+246536696+246515215+246531768+246502652
2508+246353065+246092050+245785584+245526915+245373267+245280431+245168769
2498+245051782+245000554+244970499+244794883+244416736+244007452+243760102
2488+243671093+243619161+243552463+243483906+243360673+243068358+242601889
2478+242142406+241857853+241681370+241426150+241068364+240739912+240478464
2468+240200969+239918112+239751269+239704571+239624696+239426119+239164635
2458+238875046+238543290+238240470+238078987+238019293+237883732+237578817
2448+237199317+236895865+236713804+236600409+236507898+236400767+236210529
2438+235916211+235644979+235555718+235618390+235609600+235367286+235003742
2428+234805562+234919806+235207626+235420355+235437124+235327231+235246435
2418+235273602+235350462+235402178+235428478+235441348+235451836+235532396
2408+235721786+235901481+235943883+235919478+235990111+236175583+236361091
2398+236462410+236470425+236403872+236332318+236402698+236745267+237390150
2388+238341717+239630617+241192590+242814835+244346591+245919232+247856030
2378+250361375+253340138+256535096+259802131+263182272+266694365+270132738
2368+273142440+275470074+277030044+277741679+277559456+276755924+275864774
2358+275189366+274610784+274026064+273868336+274893315+277259542+280243829
2348+283038799+285538277+288324655+291663839+294620580+295893108+295158765
2338+293107868+290620664+288178010+285804544+283344273+280781581+278333439
2328+276199472+274247114+272088958+269549263+266944314+264779281+263234475
2318+262023067+260694743+259038256+257193878+255436307+253953089+252771772
2308+251738110+250623400+249372713+248139193+247027841+246003114+245064417
2298+244280182+243621778+242959837+242250115+241586603+241044375+240566732
2288+240067266+239593541+239292868+239210773+239208860+239108497+238844973
2278+238453848+237992235+237529647+237133287+236790737+236424143+236023541
2268+235678716+235468948+235410553+235476692+235579960+235602416+235512143
2258+235382159+235271490+235154683+234965294+234668196+234298100+233938943
2248+233665166+233519496+233530651+233681791+233852786+233883256+233749752
2238+233617422+233656863+233863472+234114992+234347758+234599964+234921900
2228+235319469+235777400+236286000+236845683+237471415+238170703+238890227
2218+239560020+240237828+241091921+242187786+243417208+244641505+245779898
2208+246816068+247842095+249021029+250432350+252006724+253605016+255127331
2198+256564681+257953276+259313134+260679960+262108050+263560888+264898525
2188+266015419+266913104+267661816+268345527+269009959+269662442+270310466
2178+270927443+271418840+271689999+271688934+271394201+270856647+270214706
2168+269587675+268950373+268136191+267026283+265723357+264409005+263135574
2158+261923047+260841948+259864821+258898940+257963565+257136567+256491593
2148+256123555+256066785+256521540+258275573+262195705+268192925+275376066
2138+283062915+290983052+298925085+306845891+314959731+323448921+332340102
2128+341535295+350835832+360152182+369574382+379060915+388304736+396897212
2118+404419275+410595578+415485904+419379356+422649442+425869093+429892511
2108+435623284+443533403+453339219+464176963+474867810+484026396+490585123
2098+494360993+495765165+495421297+494084959+492014315+488607621+483166816
2088+475357854+464965712+452050499+437032836+420387928+402749431+384948621
2078+367675689+351588695+337393391+325322848+315102766+306500470+299343106
2068+293373557+288493357+284602432+281280000+278229195+275575275+273400585
2058+271644547+270350737+269457024+268822628+268654845+269282310+270753000
2048+273160274+276838940+282088423+289250788+298804091+310991079+325780183
2038+343102863+362505900+382891442+402971708+421468016+437095328+449219157
2028+458195068+464757622+469558994+472936807+474746004+474823044+473331542
2018+470308500+465579512+459282341+451860424+443644235+434708180+424894674
2008+414002019+402110179+389625767+377050559+364812938+353184712+342261840
1998+332106199+322933353+315034245+308387935+302473803+296738789+291157585
1988+286060758+281692407+278167696+275462547+273280041+271255661+269300126
1978+267521904+265982458+264672601+263540003+262548562+261828623+261540478
1968+261459899+261035164+260045781+258866268+257924377+257274186+256824342
1958+256622678+256700279+256890841+256998045+257000500+257028298+257234926
1948+257709807+258492021+259549221+260520427+260698047+259796011+258451244
1938+257436247+256893116+256624411+256561161+256687210+256876292+257010861
1928+257209240+257856470+259132824+260533279+261441578+262085486+262949795
1918+263547602+263044797+261854562+261246178+261779218+262949146+263911723
1908+264235808+264130968+264073585+264280556+264628304+264974591+265380753
1898+265986646+266691170+267139281+267309265+267766077+268756562+269503234
1888+269183175+268146697+267283471+266912797+266869385+266984026+267130689
1878+267199571+267200202+267324374+268043518+269974161+273074009+275825567
1868+276134904+273865935+271036921+269271894+268659539+268589375+268667968
1858+268829704+269080032+269364405+269628362+269984089+270696555+272015438
1848+274213467+277373370+280431936+281183951+279038486+276218082+274774775
1838+274816671+275365723+275909648+277129251+279858390+283333839+285391776
1828+285327082+284605555+283980492+282785618+281059852+279937218+279949077
1818+280553238+281192706+282012935+283420104+285284789+286798819+287262761
1808+286900518+286617788+287259115+289170642+291907109+294238769+295113530
1798+294929032+295318731+297609253+301424437+304245779+303690861+300909086
1788+298904218+298965014+300398014+302171614+303930323+305495293+306556825
1778+307434347+309333762+313307143+318802750+323046315+323557334+321317047
1768+318622205+316694487+316455891+318465560+321592539+323733510+324584606
1758+325314328+326189467+327272300+329794973+334659812+340419754+344135514
1748+344824658+344142879+343892911+344882204+347056208+349482562+351006556
1738+352207621+355289726+360701251+364630841+363346057+359216933+355575506
1728+353175651+352175419+352655065+354100719+356475628+361041834+368633681
1718+376935648+380655957+377942883+372735982+368845634+367684028+369418459
1708+373497509+378347330+382211612+385615165+390838565+397873473+402894306
1698+403762695+402142201+398593736+394038722+391453917+392338371+395745354
1688+400822651+408358829+417805903+423437649+421175485+416006020+413293669
1678+414488416+418653208+423308152+426653907+429803160+433909792+436837165
1668+436170729+434314383+435127933+438958316+442865054+444529122+445437114
1658+448748319+456642770+469746181+484243078+489996558+487254459+486706834
1648+491187371+495902604+495728017+492814002+491901822+494676449+501109109
1638+510748604+521316814+527429217+526843035+524892680+526449202+532055424
1628+539784927+547968335+556556912+565320366+572798349+579027359+586632059
1618+597317924+608345347+614577498+616093767+616781936+618522901+620990447
1608+623305139+624979894+626187998+627580510+629934264+633936130+639887555
1598+647385141+655526275+663482712+670812859+677449566+683501498+689009090
1588+693984039+698457030+702217665+705038068+707533557+711277874+717722880
1578+726888073+736113049+741527572+744185229+748970861+757960888+768980332
1568+778763801+787655632+798092973+810777713+825627179+844257135+867052569
1558+885045187+890314003+888896797+886253436+883807118+882332727+881810192
1548+881592716+881799001+882930354+884878109+886964205+886580517+879547415
1538+868366019+859922498+855682506+852668814+848029033+842719711+839487027
1528+839071064+840517584+843315893+847532491+851603600+852643110+850488637
1518+847317326+843762471+839852520+836960852+836831752+840501483+847913797
1508+855956373+856652340+847095373+836941574+832690679+833725135+837302445
1498+840110791+839235760+835084217+831583587+831558460+834322112+836926483
1488+837138183+835019378+831643660+828365776+826608638+827034132+829325358
1478+832895014+837281506+841771610+844605805+843293005+838075526+832944835
1468+831023289+832349952+834599733+835384222+835705743+838869761+845843729
1458+852203898+850578819+842053059+834378936+830134323+828131044+827010377
1448+825581980+823216024+820710354+819312860+819274881+820180527+821746471
1438+823357759+823512057+821544807+819037982+817369654+816192813+814762683
1428+813427717+813041935+813530246+814278921+815516485+817701067+819250404
1418+817238749+812003725+806851517+803603237+801861694+800495031+799006200
1408+797938531+797866472+798325684+798520272+798708867+799582526+800986447
1398+802289932+803097164+802800698+800860813+798332832+797180035+797866905
1388+798901650+798775150+798130302+798991398+802278379+807180475+812337448
1378+817077880+821551522+825869132+829467598+831766189+833179640+834731576
1368+837061214+840161189+843456184+845795931+846096224+844573963+842525484
1358+840785747+839388686+838304266+837680357+837459632+837339558+837308005
1348+837845125+839223774+840905388+842172772+843142678+844503059+846380633
1338+848161743+849485517+850691745+852223970+854210570+856554071+859081330
1328+861805342+865139688+869418092+874195926+878593393+882420599+886393583
1318+891134954+896343986+900989038+904383096+907180033+910782543+915512722
1308+920178858+923626130+925635763+926329059+926197721+926575994+928484109
1298+931162633+932878760+932935295+932034271+930954110+929600660+927397161
1288+924224478+920697999+917714127+915779730+914657691+913682731+912468272
1278+911171213+910189393+910007007+911084063+913223446+915267015+916172588
1268+916133237+916042694+916507250+917882361+920354023+923385115+925780458
1258+926868995+927087843+927103078+927049719+926925169+927034051+927567272
1248+928182733+928362013+927763665+926121907+923254500+919429316+915557849
1238+912727121+911293381+910274159+908203515+904853933+901442041+899114569
1228+897861770+896934103+895883690+894925119+894371176+894247564+894578038
1218+895356245+896213514+896894608+897849496+899498474+901394748+903024375
1208+904821153+907527981+910968249+914002158+915704999+916466022+917648928
1198+919847445+921966321+922814132+923070020+924458705+927307196+930296483
1188+932516300+934247517+935839744+937379911+939078709+940742706+941813191
1178+942612553+943998134+945647112+946853195+948615604+952321581+956996091
1168+960229859+961339550+961722950+962633938+964049916+965357950+966419049
1158+967756904+969749208+971875810+973120450+973286806+973425942+974554190
1148+976602957+979054547+981679785+983907111+985036947+985834216+987783632
1138+990617826+992763418+994042210+995619201+997573093+998910586+999690093
1128+1000903252+1002492662+1003443579+1003445745+1003172744+1003533689
1120+1005232342+1008197730+1011126872+1012796933+1013788572+1015562462
1111+1018384598+1020925720+1021264281+1019163455+1017596500+1019884477
1103+1025559436+1031202481+1034654880+1036137501+1036496063+1036618592
1094+1037167914+1037577956+1036724731+1034798709+1033551686+1034856182
1085+1039187800+1044914240+1049572794+1052253485+1053784049+1055041180
1077+1055869712+1055216995+1052774720+1050227461+1049742400+1050718588
1068+1050191432+1047636231+1045517065+1044753444+1044522177+1046129060
1060+1052030882+1060525884+1065880477+1065552313+1063030470+1062723462
1051+1065645744+1069498438+1071957681+1072585343+1071749085+1070171228
1043+1069320312+1069666816+1069640173+1068634526+1068423187+1070178592
1034+1072560794+1073741823+1072541733+1068026069+1061008851+1055180243
1025+1054303046+1058441953+1063704488+1066087700+1065067180+1062583532
1017+1060556787+1060407254+1062449234+1065086530+1066602076+1066886774
1008+1066115787+1064098862+1061421060+1059332941+1058712716+1060105155
1000+1063577049+1067156742+1067256093+1062519054+1055707111+1050540896
991+1047933492+1046121912+1043987439+1042072248+1040537351+1038546346
983+1035985297+1034045196+1033393056+1033252259+1032441272+1030509041
974+1028163085+1026664940+1026236775+1025443838+1023014921+1019635736
965+1016680963+1013946698+1009993497+1004364892+998772534+995895451+996598638
955+998072162+995803680+988725884+980477240+974624516+971797325+971551040
945+973584717+976396456+977441598+975745327+972549322+969192376+966081427
935+963444059+961720711+960925176+960274769+959015472+957537544+957162809
925+958658210+961172689+962795240+962190394+959516129+955798817+952102371
915+949503199+948980014+950743651+953880088+956810673+958396618+958772653
905+958483334+957174361+954466523+951759550+951408859+953886803+956920928
895+957894589+956495578+954332513+952774078+952001142+951312251+949841976
885+947669741+946143509+946310587+947639127+949183699+950929863+952759493
875+953367156+951648285+948329318+945308912+943729971+942994508+941797884
865+940051071+938967300+939079070+939720596+940778013+943013065+946289721
855+948970050+949286517+946569219+941530804+936397658+933770182+934226434
845+935939601+937202219+938286134+939950203+941551238+941852470+940485879
835+937995011+935451146+934138274+934707163+936542137+938593720+940469633
825+942100777+943160359+943549607+943745134+944287597+945497073+947513421
815+950145013+952906716+955494336+957868307+959580174+959704580+957926214
805+955207039+953034371+952301941+953002674+954628258+956420054+957677762
795+958540591+959502916+959893103+958418496+955656432+954382045+956353049
785+959952598+961941004+960790589+957786356+955630656+955784088+956670671
776+955462278+952438622+951224091+953532212+956499044+956691249+954549123
766+952988305+953781025+955955354+957275879+957339490+958164123+960869579
756+963140300+961918187+957757836+954167385+953357842+954883857+957155011
746+958823917+959351867+959461688+960665100+962784338+963637491+962443177
736+960976151+960794127+961840785+963223622+963711355+962656538+960917089
726+959420605+957669315+955680693+955358810+957377252+960065307+962612638
716+965067621+966021354+964110711+960589720+957815959+956927282+957510323
706+957620000+955394623+951810526+949700963+949775622+949927176+948174009
696+945065659+942329444+939696408+935684001+930732013+927187628+926047827
686+925363123+922983015+920015895+919790043+923447860+927827854+929002962
676+927657526+927478895+927754134+922215711+907298230+890466352+884841068
666+890129957+897016270+901224492+902280104+900922466+899046914+897459454
656+894791038+890894156+888796290+890443752+892878735+891598499+886503548
646+882017705+881535964+883038586+881467516+875982018+871844121+873613390
636+879464092+882955914+880141359+873681767+868648839+867164268+867463406
626+866581082+864013101+861211903+859020174+856988013+853416407+846915009
616+839290129+835123568+836956736+842933433+849908412+856340205+860624097
606+860338027+855568064+850402354+848584276+849881552
##END=
