##TITLE=<SNM>
##JCAMP-DX=4.24
##DATA TYPE=INFRARED SPECTRUM
##DATE=2/5/2025
##SAMPLING PROCEDURE=Instrument type and / or accessory
##ORIGIN=Admin
##XUNITS=1/CM
##YUNITS=ABSORBANCE
##RESOLUTION=4
##FIRSTX=4497.3318
##LASTX=599.83466
##DELTAX=-1.4281778
##MAXY=1.868299
##MINY=0.39781806
##XFACTOR=1
##YFACTOR=1.739989e-09
##NPOINTS=2730
##FIRSTY=0.42230201
##XYDATA=(X++(Y..Y))
4497+242703832+242900836+243501734+243469705+242299853+240910457+240440673
4487+240780936+241003924+240816185+240790048+241308800+242045282+242462106
4477+242315217+241735404+241190035+241213535+241851343+242625985+243204086
4467+243499010+243164178+242178502+241686401+242648183+244084133+244210468
4457+242820370+241227888+240507164+240674058+241045459+241075895+241011871
4447+241435855+242245712+242688828+242293585+241340521+240597548+240720851
4437+241652796+242661423+243021554+242526712+241542476+240760828+240607122
4427+240822985+240924896+240854380+240827695+240786965+240377831+239460736
4417+238510070+238273466+238919940+239856150+240508825+240845285+241005637
4407+240966037+240752709+240575984+240608492+240835642+241069147+240982582
4397+240352054+239376570+238595093+238475609+239047509+239812868+240146314
4387+239866359+239143631+238003291+236610143+235747035+235996348+236612764
4377+236256384+234864247+233788531+234017907+235130688+236122427+236481102
4367+236230024+235615390+235032152+234747007+234553256+234120212+233568437
4357+233249516+233245543+233497408+234042743+234815176+235532200+235868026
4347+235563219+234606764+233474028+232829386+232960466+233782073+235017559
4337+235929772+235580347+234043736+232671519+232574369+233449330+234218732
4327+234267323+233765648+233191436+232819966+232586907+232353694+232181884
4317+232274803+232855095+234060984+235576013+236485692+236079162+234700916
4307+233283515+232337594+231910407+231999798+232393328+232581991+232368321
4297+232130244+232166161+232380002+232806778+233652981+234678821+235337422
4287+235507861+235405077+234925394+233838869+232504813+231623532+231289847
4277+230899777+230044445+229060876+228632508+229175359+230568284+232185686
4267+233327448+233774006+233719420+233314739+232732682+232443752+232807651
4257+233545161+234122490+234405580+234585337+234721281+234646192+234300603
4247+233977965+234004582+234254854+234327939+234130814+233878520+233683537
4237+233522586+233396730+233243042+232899662+232317143+231654722+231167691
4227+231183997+232012027+233410964+234327596+233989269+233107766+232950361
4217+233478824+233687236+233427526+233444209+233886279+234054081+233430438
4207+232286724+231442833+231556357+232447572+233306501+233691827+233884327
4197+234171613+234371409+234330011+234418802+235074183+236058797+236659266
4187+236559702+236014538+235275196+234426750+233729611+233580290+234047384
4177+234719088+235118339+235146926+235007864+234884252+234894529+235081326
4167+235220901+234995173+234498789+234137169+234059853+234172281+234444991
4157+234684901+234354333+233227181+231968539+231473406+231766396+232071478
4147+231884767+231511276+231567524+232304571+233392740+234209619+234425345
4137+234302384+234289590+234481096+234673562+234748291+234768417+234765625
4127+234555294+233885714+232842763+231927706+231548735+231615482+231845681
4117+232224087+232850625+233524470+233870744+233800178+233485830+232980746
4107+232258377+231533131+231167109+231348835+232045272+232965245+233508661
4097+233178384+232091843+230819687+229882021+229572948+229973073+230917658
4087+232034379+232879331+233157180+232918246+232445962+231950675+231524876
4077+231266502+231220119+231364370+231736782+232219908+232294380+231592205
4067+230567993+229974443+229868113+229754555+229549740+229745221+230578047
4057+231545669+231968094+231787772+231517031+231489250+231552914+231544145
4047+231672364+232212971+232962915+233248797+232643463+231546217+230787709
4037+230771455+231287912+232020814+232839423+233568900+233865880+233588134
4027+233108365+232950155+233152298+233308042+233223979+233160297+233405294
4017+233929236+234445830+234592650+234092122+232988504+231832921+231465990
4007+232326238+233946929+235380858+236064517+235988401+235347596+234533028
3997+234120589+234304114+234556099+234280752+233569362+232986072+232920507
3987+233400019+234246941+235178201+235904817+236257771+236211697+235934705
3977+235800320+236011592+236257531+236119943+235669788+235261066+234968076
3967+234710713+234784465+235664684+237130146+238124025+237960402+237208591
3957+236844572+237115655+237743152+238710586+240227448+241949674+242741205
3947+241935578+240618735+240409689+241141683+241063888+239475346+237667670
3937+237217738+238763340+241986773+245564821+247406651+246363614+243794997
3927+242210634+242610365+243840780+244561025+245123333+246520797+248320166
3917+248743927+246766667+243433685+240702644+239724728+240635692+243407839
3907+248165381+254409761+260420242+264264886+265288482+263498379+258934141
3897+253162149+249258003+249149566+251715631+253431468+252494881+251763623
3887+254017704+257378211+258234039+257356287+257616254+257861782+255572007
3878+252640006+252570552+255722527+260371256+265052443+267717438+266452338
3868+263496957+262730844+263864419+263192201+259379740+255525437+255095801
3858+259489633+268615590+279972127+285351258+278684214+267268002+258737873
3848+255005263+255811506+260018011+265620249+270858280+275248703+278192541
3838+277976113+274476270+270224394+266929179+264317759+262154320+261088109
3828+261308220+262457877+265392208+271425024+278505570+281413832+279696917
3818+277588971+275347377+270350815+263816118+259650327+259958560+264453138
3808+270541243+275033201+278423048+283031715+286892938+285846613+281693462
3798+278830486+277069020+274426565+271772429+271199690+272911176+275930410
3788+279913944+284737223+289429885+293530539+298497350+305491691+312925499
3778+318707289+323841748+331035046+341822355+355872800+370695849+382585989
3768+390055320+394277479+396454022+398165576+401590501+406636135+409967679
3758+409447711+407850913+409696099+417278954+428824892+438342340+442349853
3748+445451027+452292964+460959362+465525758+466258625+469373330+478709943
3738+493776550+509846543+521027863+526195652+528789361+532088705+537941849
3728+547117974+558435460+569150318+577459395+582485058+583509716+582321384
3718+582613311+585886380+591187048+597227983+601529615+600117798+592712525
3708+583920168+578249813+577273318+579078254+579858874+578065243+575707213
3698+574840131+576369994+580995960+588623141+597271008+603163957+602638200
3688+596241554+589371287+586296696+587467626+591245077+595936609+601391564
3678+608061435+613080588+611764756+607139612+605166001+604661345+600188365
3668+591555503+583637284+578704455+575733385+573557493+572777592+574615208
3658+578283931+581022679+582254516+584982576+591097092+597588833+597558140
3648+588707548+577068332+568146590+563240652+561555406+561527282+561602713
3638+561634639+563169229+567544545+574624012+583584942+592246784+594674147
3628+587389592+577282087+571221250+570139111+573048007+578611211+583727857
3618+585612334+585764087+586938923+589373411+592010693+593916067+593427169
3608+589574424+585232232+584664615+588930690+595469429+600896774+603914775
3598+605132978+604990543+603670532+602403822+603058861+606373996+610984068
3588+613852850+612855460+609306426+605717519+602896283+600732552+599539493
3578+599770513+601187058+602789336+603752951+604489929+606521433+610584919
3568+614972054+616527745+614091476+609703039+606024656+604251098+603893468
3558+603844825+603945948+604903533+606513623+607264714+606371461+604852081
3548+603741304+602488297+600040586+596791975+594397155+594017670+595100426
3538+595901737+595259784+593438473+591152929+588959944+587730505+587965636
3528+588635611+588457686+587859033+587837794+588047097+587641371+586637541
3518+585279505+583333641+580874215+578650879+577224264+576532846+576455976
3508+577202683+578822843+580599415+581151275+579392105+575784426+572244401
3498+570391439+570179841+570670315+571399757+572052877+571869952+570554668
3488+568934987+567996550+567809548+567521423+566339188+564681415+563549159
3478+562638299+560681850+557763396+555243063+553544868+552189162+551421559
3468+551840267+552932512+553270102+552077865+550124328+548711003+548067235
3458+547339848+546104825+545165704+545489558+546827279+547878965+547836043
3448+547117014+546327865+545374356+544100281+542990806+542617315+542780921
3438+542686135+541840874+540345713+538413243+536274827+534476160+533487059
3428+533034164+532393684+531228029+529925145+529310152+529799564+530680382
3418+530807231+529969575+528812244+527718869+526678967+525799793+525189664
3408+524699292+524081798+523221978+522326088+521972157+522668166+524187237
3398+525381804+525075626+523346806+521264399+519308772+517149049+515029200
3388+513973814+514400299+515631450+516685329+516807314+515613603+513476592
3378+511544910+510769394+511096981+511825636+512329915+512358690+512182478
3368+512582585+514088640+516083455+517128324+516381789+514429005+512668841
3358+512150552+512799321+513619164+513893416+513950418+514359603+514736998
3348+514048252+512183095+510372506+509638988+509633781+509516798+509295711
3338+509569928+510538339+511680117+512067961+511156107+509451301+507994848
3328+507296785+507199909+507367454+507476525+507309733+506851905+506110097
3318+505130039+504239116+503616209+502846482+501691960+500779832+500567241
3308+500286926+499044298+497511216+497269576+498622815+500205363+500848789
3298+500860778+501232077+502348746+503674957+504249701+503564003+502147699
3288+501088134+501045485+501846933+502744811+503027284+502653177+502144376
3278+501859197+501860430+502259304+502978230+503415984+502935204+501471696
3268+499538232+498028478+497791599+498809612+499924329+499854276+498520939
3258+497131868+496835658+497343363+497212163+495708472+493803373+492921287
3248+493350854+494290216+494983929+495329707+495475636+495243553+494299567
3238+492897856+491907454+491688388+491512587+490630673+489345842+488499485
3228+488374863+488473211+488063170+486913272+485568597+484663285+484135747
3218+483562956+482939296+482503357+482181284+481762748+481210545+480510700
3208+479590658+478444529+477168331+475992468+475216678+474891762+474742783
3198+474484461+473971515+473212921+472477587+472020136+471686827+471192277
3188+470511581+469589930+468253886+466776812+465891267+465918192+466301993
3178+466132187+464913025+462821266+460447821+458489933+457461610+457193969
3168+456735730+455398145+453728931+452734657+452494662+452259530+451544852
3158+450453053+449261706+448227970+447448686+446623773+445276631+443369270
3148+441531517+440534126+440569924+441203758+441958995+442577551+442744959
3138+442101122+440601268+438571820+436545591+435180225+434890901+435359863
3128+435750584+435460883+434472878+433182224+432151468+431733274+431685282
3118+431459091+431003181+430863931+431293533+431638146+430927579+428938347
3108+426418459+424349719+423209174+422889636+423038580+423251651+423112161
3098+422451676+421581820+420971690+420682606+420330594+419653357+418954643
3088+418810871+419357593+420090667+420414692+420109370+419222523+417905389
3078+416492921+415390365+414768863+414498654+414269311+413802303+413148326
3068+412690361+412646102+412676830+412240548+411301769+410395670+409900195
3058+409571922+409057640+408523559+408331247+408351937+408027741+407007330
3048+405518644+404171570+403393553+402983991+402379720+401455876+400758087
3038+400692076+400791280+400248361+399027862+397871114+397282771+397107793
3028+396992248+396724231+396211491+395449300+394440503+393126554+391604023
3018+390321864+389794394+390119652+390849711+391325798+391188261+390563915
3008+389776341+389028743+388375692+387769707+387075377+386210214+385282842
2998+384440390+383618457+382654706+381628095+380790576+380121561+379317750
2988+378345811+377618733+377470131+377791450+378233589+378435630+378083583
2978+377099210+375803520+374675923+373938671+373474848+373100364+372789767
2968+372597010+372471017+372301314+372103076+371981639+371911895+371703859
2958+371169195+370219078+368913180+367510030+366347321+365629114+365383432
2948+365458418+365439920+364905907+363978124+363250874+362964975+362676405
2938+361970428+361083341+360499794+360247603+359956018+359442935+358863362
2928+358346820+357857784+357391221+357010639+356696343+356307163+355698370
2918+354928369+354327489+354112876+354008670+353621546+353022036+352545470
2908+352278755+352080585+351829285+351477033+351093985+350804558+350528799
2898+350020341+349267605+348571631+348176285+348056527+347996579+347715922
2888+347077326+346267280+345598813+345128824+344679491+344167676+343687753
2878+343344031+343155384+343044806+342886202+342650077+342462116+342429881
2868+342429299+342116201+341258643+340128442+339338196+339111697+339024242
2858+338669421+338156099+337725435+337333447+336835060+336252335+335724556
2848+335350860+335108467+334916086+334815648+334964079+335336576+335576811
2838+335294612+334481209+333492348+332579638+331650862+330655560+329931634
2828+329832497+330171938+330367435+330101028+329601990+329225109+328939827
2818+328431300+327644685+326937235+326603241+326484168+326189843+325570327
2808+324843043+324318177+324096747+324042418+323955853+323705821+323277624
2798+322798865+322459014+322283385+322020609+321395886+320495919+319769183
2788+319539258+319606948+319482702+318965920+318309956+317831746+317535125
2778+317130873+316346245+315235776+314184433+313519288+313164810+312833454
2768+312470377+312258745+312221338+312087398+311599699+310802053+309994268
2758+309457515+309210907+309021713+308640138+307984346+307169778+306468117
2748+306121072+306055541+305915058+305451064+304716004+303880711+303081250
2738+302437482+302034429+301878360+301916829+302030044+302026002+301763808
2728+301250075+300556909+299773377+299083158+298691546+298560073+298373961
2718+297906576+297280963+296732939+296267163+295751717+295241204+294952873
2708+294956161+295081811+295105105+294895083+294454554+293898275+293352649
2698+292880434+292516055+292271640+292075492+291811517+291432203+290976430
2688+290532201+290219344+290104347+290089377+289961672+289574171+288944173
2678+288225145+287638994+287367038+287384371+287420888+287206789+286753688
2668+286280394+285929015+285705599+285579881+285442566+285086975+284435344
2658+283706296+283222245+283088048+283130474+283122544+282994753+282797405
2648+282555097+282272470+282000993+281777029+281567795+281330454+281032360
2638+280643523+280224695+279926207+279780672+279634211+279385566+279140569
2628+279030128+279015809+278954098+278747707+278380399+277896314+277420553
2618+277137874+277149830+277329758+277378127+277096117+276602337+276201596
2608+276048507+276041741+276033417+276001251+275990872+276001320+275987121
2598+275934846+275870428+275764373+275512439+275108221+274753913+274660412
2588+274800570+274966265+275010900+274955834+274892221+274850806+274795517
2578+274703900+274577256+274390511+274139245+273918963+273850383+273946745
2568+274132445+274343564+274529435+274595994+274462619+274209401+274070956
2558+274175916+274353052+274333955+274107781+273895036+273776871+273567191
2548+273128101+272621818+272319134+272276023+272321104+272286574+272142083
2538+271940642+271722690+271483122+271200409+270874997+270547614+270302703
2528+270237994+270388445+270663056+270863624+270799446+270442261+269961310
2518+269559558+269324084+269258913+269325592+269395251+269319922+269109472
2508+268912930+268830219+268856493+268961247+269096421+269155066+269020202
2498+268675880+268243812+267907489+267788399+267852560+267935853+267907712
2488+267804807+267750529+267772829+267773515+267650040+267394303+267086721
2478+266814593+266600649+266413955+266208557+265939204+265623058+265386368
2468+265337451+265420624+265515992+265614254+265759122+265881963+265813297
2458+265452910+264891783+264353711+264020317+263922311+263972170+264044073
2448+264044553+263960112+263828108+263668596+263499732+263382988+263346660
2438+263297280+263126378+262879908+262695646+262594352+262460292+262221290
2428+261948563+261781788+261800338+261942602+262051570+262039066+261962573
2418+261913262+261918794+261976087+262067207+262137072+262156940+262195324
2408+262333957+262522878+262604149+262505304+262332210+262226685+262236362
2398+262396868+262834742+263746921+265399265+268168552+272524360+279023363
2388+288325719+301049747+317538208+337802887+361603035+388453075+417614318
2378+448230162+479579662+511150489+542137632+570736155+594693467+613313596
2368+627835297+639009731+646134244+649090585+649163892+647040926+641557538
2358+630677498+613199936+589770572+562574789+535548605+514183014+503021049
2348+504013233+516285119+534975883+551857326+561575445+565144998+565646845
2338+565017567+564330670+564315187+565194806+566497278+567338394+566955929
2328+565011161+561516149+556385458+549259335+540299365+530651367+521234562
2318+511697999+501505814+491281498+482001682+473425752+464241030+453518806
2308+441419158+428694857+416079523+404072982+392912970+382617984+373057407
2298+364012859+355312582+346958527+339021125+331472732+324293273+317623985
2288+311621793+306270975+301482329+297248454+293585246+290428509+287667187
2278+285213841+283025943+281107449+279475950+278091949+276841648+275607036
2268+274354029+273177121+272239849+271607059+271143202+270637707+269991849
2258+269213610+268315132+267340676+266439013+265773064+265354167+265033157
2248+264653226+264172001+263649875+263166680+262763815+262447446+262208187
2238+262000169+261732409+261366198+261010897+260823621+260824717+260902015
2228+260944355+260878481+260674848+260413237+260227194+260131312+260020923
2218+259831488+259579863+259313952+259122908+259097319+259206098+259306073
2208+259307546+259250322+259212452+259217813+259241467+259258526+259260188
2198+259237236+259178368+259083891+258968449+258872824+258857717+258930099
2188+259009573+259035196+259041122+259064245+259084884+259108794+259167783
2178+259204488+259123233+258973501+258906103+258935597+258921553+258796022
2168+258655368+258608232+258651771+258701065+258663470+258497946+258253462
2158+258033677+257908558+257876015+257888998+257889769+257841931+257761259
2148+257688893+257630093+257580028+257616048+257859847+258305000+258796879
2138+259230043+259639091+260066294+260509667+261041093+261791945+262765802
2128+263809335+264817774+265871977+267152509+268769261+270661566+272626922
2118+274460239+276079594+277497782+278690825+279553196+279993606+280015615
2108+279669015+278968913+277912003+276550217+275004272+273410539+271879530
2098+270487941+269265216+268187153+267233747+266456124+265911765+265517910
2088+265079693+264515706+263949853+263538852+263313980+263219554+263201929
2078+263234729+263320540+263458608+263583744+263605890+263556905+263615277
2068+263904669+264306095+264567124+264595608+264525452+264478436+264435805
2058+264375977+264352683+264387778+264449644+264562894+264810374+265204350
2048+265623794+265910635+266043856+266172537+266409399+266680653+266883362
2038+267048954+267221552+267335041+267342440+267353368+267531566+267889590
2028+268258987+268495335+268644741+268850618+269216778+269825126+270662885
2018+271422078+271662263+271331626+270866518+270694606+270879844+271228448
2008+271518971+271634361+271619100+271631073+271788067+272034606+272169470
1998+272112195+272183550+272871851+274131229+275182898+275342170+274796510
1988+274193386+273855111+273728673+273708547+273720811+273699298+273632140
1978+273570993+273600299+273795506+274146884+274615880+275307829+276329147
1968+277370916+277803344+277419559+276728244+276312533+276288571+276518445
1958+276958785+277562337+278100804+278357140+278402751+278525027+278943667
1948+279764846+281162412+283193282+285169908+285774368+284538317+282628490
1938+281455402+281318190+281681918+282029220+282180784+282182172+282148909
1928+282315615+283152586+284886202+286811358+287971755+288570511+289343698
1918+289815228+288919954+287109366+285990470+286336847+287550409+288485454
1908+288450513+287686199+286953965+286703675+286816993+287059712+287505705
1898+288385701+289544848+290409120+290892606+291737285+293184385+294109839
1888+293535061+292137666+291093311+290645108+290507709+290597013+290933371
1878+291432922+291975088+292552401+293640637+296245856+300723803+305234670
1868+306582189+304040206+300311878+297943161+297314944+297551035+297833131
1858+297874272+297818299+297922744+298292056+299001595+300260357+302293574
1848+305374160+309600944+313647199+314588822+311573767+307625859+305563697
1838+305489396+306025464+306539198+308013326+311514676+316007935+318707803
1828+318663750+317626965+316521806+314659354+312245488+310687433+310576993
1818+311189554+311749533+312447940+314013462+316429041+318444718+318852362
1808+317987781+317292492+317991241+320479305+324034916+326902842+327685757
1798+327043393+327229025+329999323+334837195+338262052+336906414+332460085
1788+329265976+329087640+330764288+332740469+334596857+336129528+336883908
1778+337439160+339613099+344735020+351866452+357255191+357584663+354076908
1768+349815012+346634570+345868646+348061083+351398553+353048584+353009122
1758+353211881+353942934+354906377+357533725+363218365+370292419+374664550
1748+374658179+372573887+371127472+371467118+373431206+375783343+377073758
1738+378127225+381935575+389198138+394680738+392898685+386948494+381499019
1728+377673850+375785193+376048140+377821390+380945412+386886936+396648868
1718+407217729+411590922+407342112+399816670+393990724+391570863+392798658
1708+397207888+402993241+407792541+411991372+418446835+427280162+433559860
1698+434204930+430995782+424699128+417214210+412847458+413303368+417117918
1688+423259564+432852923+444947399+451391455+446690092+438101488+432928800
1678+433089871+437474197+442789354+446381002+449572097+453916344+456478949
1668+453990439+449910716+449492864+453053373+456531086+456852611+456168455
1658+458811149+467713570+483669149+501378760+506962414+501368689+499215748
1648+503722950+508046472+505533401+499769801+497223913+499901377+507675756
1638+519958809+533469623+540435669+538060169+534358560+535918122+543123615
1628+553209401+563987051+575552583+587593824+597792517+605800007+615071670
1618+628012537+641317884+648975006+651967794+655532243+661308655+667514907
1608+672338050+675906952+679362261+683133204+686599818+689133580+691040461
1598+693193641+696023440+699142564+701888300+704044289+705894374+707878125
1588+710430522+713718938+717304214+720466911+723092615+726168508+731272959
1578+738887192+746132353+748621171+748303826+751286406+759485385+769562881
1568+777406559+783608701+791013906+800946568+814729647+834979733+860151344
1558+876068008+875709693+870808927+867902943+867013184+867247493+867691585
1548+868394376+870903199+876070338+882852498+889362326+891091625+881770565
1538+866629177+856702406+853651999+852629876+849189775+844531746+842524290
1528+844063675+847092980+850003898+853286970+856561135+857314625+855199126
1518+852454281+849300216+844929798+840910227+839949216+843395962+850980598
1508+859814610+861926135+852776970+841322872+835207945+834888750+838124617
1498+841274092+840477851+836004117+832859918+834852781+841050607+846031257
1488+844516947+837620852+830520524+826467109+825354413+825802341+827743547
1478+832288738+839384202+846715139+850255061+846399096+836979242+828797733
1468+826013905+827728406+830016005+830004769+829694412+833092926+841273818
1458+849793704+849872972+840611791+830806971+825263567+823723565+824260147
1448+824345238+822485425+819671040+817678109+817069384+818017720+821289693
1438+826513833+830074034+828671809+824925736+822799619+822177328+820767704
1428+818456605+817415093+818340272+819779905+821232760+824024604+827680310
1418+828280814+824083319+818381105+814231157+811885460+810353131+809399862
1408+809691447+811050236+811756521+810836685+809940349+811006457+813647439
1398+816111730+817439551+817257790+815271367+812712394+811916084+813441904
1388+814922370+813384286+809357727+806743328+808297375+813395454+819635620
1378+825498630+830825332+835208013+837698544+838604129+839577267+841307388
1368+843026822+844455972+846434722+849005000+850502319+849698953+847664092
1358+846254057+846032970+846136697+845552979+844487076+844233652+845639851
1348+848085370+850063434+850688739+850595974+851241079+853271007+855706248
1338+856980494+856699871+855913290+855977691+857532765+860086806+862504989
1328+864236275+865735375+867490092+869353606+871142715+873150445+875598636
1318+878183918+880663898+883322350+886322812+889162820+891393692+893503915
1308+896315491+899827529+903266738+906017955+908257734+910891248+914674728
1298+919106944+922458321+923311290+921975932+919870984+917831191+915826201
1288+913850603+912009561+910106243+908127014+906689711+906103184+905659297
1278+904727883+903685001+903109847+903102448+903752759+905238363+907254931
1268+909202028+911004223+913156376+915926844+918885446+921200793+922335343
1258+922593358+922923515+924008463+925487764+926197543+925524966+924387058
1248+924423026+926362039+929233425+930875784+929558239+925781815+922181398
1238+921006357+922109598+923759972+924720709+924711528+923583623+921569590
1228+919893867+919681139+920577201+921255465+920990257+920056924+919021647
1218+918356263+918271514+918591943+919170248+920083438+921166057+922128713
1208+923243052+925070666+927583942+930271032+932633789+934210513+935031692
1198+936150211+938543524+941637230+943895712+944485596+943898521+943550209
1188+944910642+948408086+952858800+956500119+958900831+961405064+965339132
1178+970165083+973683355+974219663+972356972+970014564+968337402+967279447
1168+966834807+967737652+970575262+974532213+977764175+979254780+979690514
1158+980270806+981504699+983419116+985789820+987865308+989041582+989934150
1148+991445514+993162824+994227219+994987080+996145884+997129367+996995290
1138+996581960+997935336+1001154967+1003210929+1001352828+997242685+995198849
1128+996607720+998496446+998186362+997631762+1000857421+1008237961+1015645084
1118+1019634647+1021061947+1021954447+1022196772+1021465343+1021391830
1110+1023274390+1025724224+1026643786+1026231073+1026275742+1027137754
1101+1027012652+1024789796+1022339687+1022462734+1025581994+1029646440
1093+1032350932+1033424576+1034418336+1036544043+1039163718+1040554090
1084+1040156244+1038588632+1036697097+1036135577+1039298000+1046646340
1075+1054525096+1057810223+1055535572+1051864862+1051579512+1056122031
1067+1063364726+1070142502+1073741823+1071838162+1063848280+1053093959
1058+1045031112+1042146709+1042220770+1042527428+1044098328+1049740046
1050+1059004859+1067040917+1069115788+1065693295+1061414888+1059902291
1041+1061496622+1064679942+1067572772+1068463148+1066127247+1060562057
1033+1054420547+1052565461+1057787889+1067208702+1073630560+1071948191
1024+1064556073+1058033845+1056076402+1057628531+1060169417+1062149058
1015+1062460443+1060954285+1059464160+1059376602+1059372628+1057640520
1007+1054507968+1051662205+1050862265+1053332859+1058510205+1064138427
998+1068243911+1069442040+1066302500+1059595565+1053561276+1052304501
990+1056032075+1060989158+1062729008+1059911677+1054554008+1048962372
981+1044305850+1041412471+1040529700+1040810529+1041581695+1043190002
973+1045790768+1048310964+1048890572+1046596053+1043036674+1040451118
964+1038057120+1033240554+1026073153+1019723164+1016501820+1015708663
955+1015373367+1014644473+1013494507+1011210196+1007323127+1003154407
947+1000359411+998615724+996223987+992321571+987491578+983227078+981294026
937+982501747+985619432+988253768+989141609+988960190+988899489+989053709
927+988423745+986319414+983272707+980586439+979200040+978775405+978219914
917+976931486+975142856+973498717+972491597+971959057+971435972+971569569
907+973897591+978011982+980592879+979243613+975629631+972710766+971146648
897+969841298+968296911+967574526+969031286+972183981+974635186+974725964
887+973249883+971612595+969720444+966805621+963109014+959908704+958419058
877+958906586+960428227+961306681+960453713+958182693+955758893+954560900
867+955123996+956854734+958938375+960799148+961566751+960808808+959812719
857+959946042+960444943+960003318+959337660+959770859+960415209+958911450
847+954962583+951495421+951336063+954175523+957209555+958159125+957472640
837+957316776+958796693+960735364+961453981+960848819+960034833+960174802
827+961628754+963582291+964559265+963882029+962462950+961958911+963135391
817+964930324+965334816+963739799+962412115+963725206+966748071+968851238
807+968981341+967379131+964545906+962129230+962077915+964094689+965576387
797+964147511+959685836+954419561+951643817+953648121+959545250+965293914
787+967139478+965284597+963190679+963050162+964058857+965655792+969212088
777+974816056+979478608+980668242+979208193+976807549+973835382+971022162
767+969884529+970359793+970622466+970018400+969987844+971319023+972836210
757+973354089+973272218+973703018+974830855+975687797+975115041+973198157
747+971576215+971415830+972142052+972965355+973995905+974562221+972959394
737+969698863+968048146+970045051+974512002+978959838+981718934+981906656
727+979220936+975073317+972371154+972455355+973265230+972210152+969569650
717+967284585+966032880+965388940+965382294+966206762+967643174+969725856
707+972236598+973173356+969978252+963847431+959575601+959966048+963140666
697+965214578+964029877+960576074+957361583+956010330+956711477+958632608
687+960492422+961363751+960983375+959314572+955541643+949218646+942629345
677+939325926+940226509+943286165+946667277+949306889+947624726+937542639
667+925683090+921852885+924091088+926642251+927472816+927033521+924862185
657+920300688+915212338+912905007+914675002+918798231+922303897+923477430
647+921514233+915960073+909560960+907041860+908880435+910296225+907658669
637+902225295+896903046+892882996+890016748+888279364+888505178+890630885
627+892365871+891195009+886725180+881043931+877362739+878940491+887081166
617+896822065+900234350+896687920+891532771+886109536+877661449+867789556
607+864302046+872423607+887307528+898745869+899809784+891383347
##END=
