##TITLE=<SNM>
##JCAMP-DX=4.24
##DATA TYPE=INFRARED SPECTRUM
##DATE=2/5/2025
##SAMPLING PROCEDURE=Instrument type and / or accessory
##ORIGIN=Admin
##XUNITS=1/CM
##YUNITS=ABSORBANCE
##RESOLUTION=4
##FIRSTX=4497.3318
##LASTX=599.83466
##DELTAX=-1.4281778
##MAXY=1.8446461
##MINY=0.39064819
##XFACTOR=1
##YFACTOR=1.7179606e-09
##NPOINTS=2730
##FIRSTY=0.41031185
##XYDATA=(X++(Y..Y))
4497+238836594+239450176+239691618+239244261+238395066+237391287+236315239
4487+235498606+235422311+236172504+237455803+238915127+239988954+240069915
4477+239314640+238669122+238741981+239200684+239506191+239576223+239496216
4467+239104475+238223621+237138170+236493866+236681653+237539817+238623203
4457+239555596+240108114+240038273+239085427+237451657+236043092+235657249
4447+236116558+236651573+236722316+236172469+235225903+234533720+234700048
4437+235733439+237244874+238877465+240276611+241052703+241043023+240377452
4427+239253420+237916830+236888505+236729012+237248726+237460608+236804872
4417+235854542+235344248+235216310+235123345+235083150+235061848+234660149
4407+233742934+232899534+232859686+233682340+234848994+235930333+236690934
4397+236800137+236147298+235335470+235125339+235505354+235910921+236023246
4387+235859173+235535625+235337447+235527298+235767197+235234768+233682461
4377+231994584+231243853+231446091+231705523+231527208+231291681+231283787
4367+231237765+231146239+231491420+232251830+232593628+231976560+230874074
4357+230116075+230098814+230780155+231903510+233047855+233737643+233654740
4347+232766530+231301603+229693854+228512299+228274950+229098210+230466633
4337+231557757+231865501+231380708+230342234+229121994+228126629+227537508
4327+227390661+227814148+228699079+229363211+229225021+228654912+228498022
4317+228977108+229681572+230270503+230566590+230313698+229458154+228470110
4307+227928711+228018311+228654166+229624846+230528304+231067464+231335448
4297+231481636+231502505+231541398+231740426+231753454+231167178+230274128
4287+229722582+229732609+230139824+230775315+231424285+231683040+231188307
4277+230049339+228922428+228485289+228777160+229215011+229325046+229177836
4267+229093457+229333148+230026059+230930315+231412367+231192661+230901032
4257+231313695+232338498+233206584+233303887+232609293+231652561+231078306
4247+231131095+231645726+232342714+232892716+233077571+233068065+233062409
4237+232780946+231899762+230671611+229593430+228877411+228609531+228925776
4227+229775110+230934426+232244336+233366338+233650524+232937004+232043313
4217+231717319+231645032+231232057+230833134+231296139+232550762+233437133
4207+233076357+231976820+231309653+231346221+231303477+230633534+229741525
4197+229363627+229751188+230612873+231601524+232606239+233454879+233693477
4187+233196939+232630856+232610646+232778205+232394253+231495930+230853552
4177+231050169+231999268+233083868+233595238+233413922+233272297+233818431
4167+234561528+234462318+233425649+232382283+231999250+232083126+232209849
4157+232319798+232531212+232685830+232478267+232027423+231782788+231797794
4147+231733383+231562926+231564279+231732932+231824231+231826677+232007508
4137+232604297+233571316+234544892+235104071+235080704+234598027+233980717
4127+233627071+233663535+233717867+233311363+232506231+231965440+232325418
4117+233529248+234785051+235296091+235022157+234512678+234103017+233687214
4107+233204763+232871934+232936831+233511328+234500691+235475776+235885837
4097+235579636+234889604+234247140+233957766+234066968+234217232+233999140
4087+233533429+233283798+233358358+233451618+233336014+233040222+232704808
4077+232556539+232800896+233264612+233425406+233066486+232586064+232346582
4067+232055873+231242917+230159652+229665231+230168638+231152883+231942802
4057+232506058+233069366+233450594+233374699+233045947+232829484+232665672
4047+232255473+231598194+231015213+230737116+230668038+230543292+230217541
4037+229858204+229959965+231010044+232890843+234690594+235398528+234825245
4027+233695506+232918095+232886384+233423446+234205419+234981251+235461638
4017+235431922+235066306+234785537+234718627+234599016+234326921+234328204
4007+234978545+235878100+236344730+236521900+237089181+237906421+238005701
3997+237127814+236320496+236645570+237921548+239043602+239187118+238504164
3987+237822026+237809796+238403410+239002766+239191212+239121735+239183128
3977+239508220+239909468+240134344+240087089+239882944+239735941+239737589
3967+239760453+239644329+239487681+239638830+240264762+241035043+241449215
3957+241346448+240893921+240414731+240521956+241870499+244132093+245745046
3947+245684677+244890994+244780195+245201410+244950010+243739432+242483733
3937+242107258+243047284+245277982+248014203+249715889+249373519+247768146
3927+246559199+246384544+246484795+246226821+246304347+247650530+249811283
3917+251153407+250564130+248468777+246122718+244522862+244133862+245246722
3907+248184677+252759230+257627685+260971589+262175714+261593497+259154040
3897+255351173+252301707+252023696+254202820+255927023+254958165+253166480
3887+253503455+255735472+257502748+258471919+259819403+260401360+258473324
3878+255923987+255933667+258871379+262895202+266464190+268365112+267533455
3868+265252467+264100593+264324723+263869125+261770286+259462097+258703716
3858+260599867+265932420+273836930+278674055+275237272+267692844+261493905
3848+258383481+258398625+260988972+265129941+269565351+273247913+275391006
3838+275524529+274057590+272163659+270702653+269718650+268952203+268452717
3828+268321795+268513329+269605753+272510939+276145466+277359860+275926315
3818+274795744+274467893+272809368+269610124+267086393+267020229+269753640
3808+273839254+276981997+279190542+282193637+285235539+285577823+283887603
3798+282968810+282903480+282194245+281012255+280862512+282487799+285516621
3788+289171670+292784252+296197165+300018264+305000223+310835506+316123684
3778+320238372+324363504+330056086+338193591+349020409+361641271+373974373
3768+384844872+394704047+403610844+411148402+417773170+423792128+428135943
3758+430186070+431641005+434916491+441195315+449513060+456655893+460857875
3748+464931970+472138399+481317621+487363954+489893809+493926340+502445906
3738+514916400+528265024+538899806+545702975+550147925+553950845+558130274
3728+563250666+568974960+573966704+577391517+579005250+577978591+574385958
3718+570817091+570366715+573816127+579032278+581839936+579325347+573142489
3708+566771446+562400465+560983175+562162145+564053092+564972788+565414108
3698+567009731+570274427+574292143+578474556+583305627+588172711+589968663
3688+587258289+583319782+581398199+581910090+583834448+586549609+591152179
3678+598840799+606152841+605984015+599656132+594973417+593469319+590559033
3668+584398380+578284115+574774993+573525938+572886926+572014034+571212996
3658+570633659+570073751+570274565+572659812+577446994+582532275+584256686
3648+581164598+575579882+570275606+566484483+563978915+561483997+558094261
3638+555090645+555050607+558680571+563990052+569384951+574820582+578023035
3628+575139568+568408530+563633526+563417029+567208048+573075979+578377202
3618+581274234+582662798+583969550+584647074+584191251+584245167+586195373
3608+588478929+588508836+586384184+585126837+587784821+594036929+599930153
3598+602807965+603900233+604201247+602742808+600845407+602492587+608403297
3588+613175109+612091098+608518554+607693229+609993438+613296403+616627747
3578+619814275+622145432+623383211+624585532+626917869+630608168+634808692
3568+637428303+636363097+632180545+627388125+623720447+622147722+623496109
3558+626920020+629083392+627376051+623247692+620318671+620284323+622285947
3548+624724034+625949254+624968703+622884713+621832553+622378583+623308409
3538+623251925+621703279+619103930+616483069+614798835+614478114+615398573
3528+616895107+617826043+617082321+614345024+610573123+607489778+606083936
3518+605802282+605704650+605976521+607380488+609530260+610915840+610742365
3508+609550938+607987651+606521857+605845096+605546511+603561818+599249784
3498+595407243+594900766+596759863+597738262+596876091+595917746+596182815
3488+597395822+598780291+599802476+599962836+598861963+596806215+594781345
3478+593388966+592246598+590829515+589556139+589369411+590155183+590557160
3468+589689229+587971064+586123693+584642217+584185769+585017547+586216468
3458+586681936+586585970+586698243+586796707+586041466+584818121+584695925
3448+585974713+586727456+585488150+583152483+580787012+578023070+574884872
3438+572739333+572354808+572911039+573370227+573497384+573461787+573347606
3428+573075285+572608706+572243542+572459240+573146375+573103978+571134932
3418+567831829+565204515+564334122+564650991+565444327+566479626+567209782
3408+566786261+565054633+562915305+561502836+561022033+560520170+559074151
3398+557040296+555640318+555450987+555825138+555753805+555142098+554834110
3388+554991244+554409339+552403829+550177555+549239333+549741300+551006592
3378+552309736+552788076+551838578+549968552+548588906+548710026+549865786
3368+550512986+549887054+548881974+548518648+548538875+548176451+547365282
3358+546504430+545789262+545289654+545183938+545590806+546469631+547599231
3348+548574507+549140036+549488616+549890974+550165169+549924386+549143783
3338+548127566+547081651+546041599+545133214+544561614+544202139+543479928
3328+541997757+540208467+539123033+539372005+540787908+542748106+544525739
3318+545430828+545125269+543861226+542367884+541565319+542035367+543358009
3308+544276941+544024084+543226932+543024001+543687959+544513422+544534482
3298+543274811+541188566+539311323+538363490+538245354+538436454+538575026
3288+538597127+538626860+538970792+540083148+542129182+544578510+546448085
3278+546932219+545870899+543914344+542222130+541556818+541626764+541677106
3268+541459950+541201680+541102834+541446488+542596107+544262716+545389124
3258+545253536+544323224+543614683+543412619+543042840+541860504+540208050
3248+539187289+539313891+539664275+538929574+537280313+536348752+537192846
3238+538992372+540134844+540098934+539558733+538957608+537931295+536290603
3228+534809126+534399031+534805587+534775646+533635707+532125884+531246713
3218+530785582+529706463+527928101+526793228+527391196+529160294+530546984
3208+530485158+528998789+526902933+525050255+523620613+522318683+521195987
3198+520561450+520144278+519269894+517899303+516743196+516283036+516210246
3188+515942019+515260262+514232180+512997732+511959935+511586651+511640429
3178+511181032+509758988+508066184+507010103+506620964+506269642+505698909
3168+505261197+505035194+504440938+503145461+501708256+500873112+500684580
3158+500505310+499656567+498073850+496336290+495022529+494332029+494256359
3148+494532011+494506441+493625222+492040285+490568488+489997409+490215571
3138+490136640+488949169+487198251+486073959+486058069+486739201+487529172
3128+488093069+488172799+487383661+485615430+483596944+482375368+482042122
3118+481638689+480524806+479119866+478047236+477316281+476671787+476133425
3108+475792685+475483553+475014025+474465775+474125382+474297053+474980683
3098+475549438+475261470+474328729+473750745+473808790+473520787+471929674
3088+469336362+466928459+465628403+465613553+466477632+467445137+467770750
3078+467257159+466351828+465757121+465832166+466132694+465774226+464632205
3068+463700922+463805493+464492419+464567846+463387765+461438842+459875312
3058+459503347+460123381+460835219+460811210+459835794+458496567+457712669
3048+457679465+457657087+457148805+456584491+456446058+456516107+456357031
3038+455891910+455212755+454321718+453321669+452489371+451953229+451509827
3028+450891735+450107004+449392356+448847991+448246935+447294627+446027600
3018+444804046+443997804+443870889+444432393+445130595+445071163+443894829
3008+442172049+440744835+439999656+439818929+439811748+439493525+438583024
2998+437263573+435966188+434921591+434122982+433583648+433314102+433119359
2988+432705760+432016023+431321464+430892461+430580275+429911459+428769473
2978+427694241+427184467+427031774+426687288+426006225+425327452+424961385
2968+424808796+424467016+423735471+422946958+422555876+422531659+422467022
2958+422132215+421625842+421080436+420458771+419640802+418619971+417584568
2948+416776868+416233475+415736886+415118517+414493209+414043700+413736996
2938+413466688+413262057+413093786+412715818+411972790+411072039+410359958
2928+409940322+409580223+408960640+408041638+407128986+406519014+406177684
2918+405827091+405261771+404549864+403968202+403754932+403894822+404091786
2908+403942493+403224376+402069657+400887286+400146097+400043885+400174061
2898+399789848+398706289+397565795+396937260+396680413+396430678+396136083
2888+395867925+395595396+395372967+395381120+395579957+395549634+394897784
2878+393749240+392613638+391847538+391470126+391349734+391294743+391084560
2868+390663016+390196264+389808825+389447824+389087828+388845518+388784524
2858+388729221+388385948+387681397+386879075+386256543+385815708+385441973
2848+385091935+384681563+384088140+383373943+382728477+382200142+381726694
2838+381274965+380768036+380130897+379520751+379211098+379196110+379134804
2828+378651398+377658392+376555230+375992720+376173412+376530111+376329227
2818+375423757+374261301+373389658+373111023+373373733+373758952+373672665
2808+372828744+371588675+370609340+370163543+369990346+369699567+369125365
2798+368403952+367856569+367667273+367606314+367222066+366336338+365218291
2788+364271950+363693030+363471780+363568301+363898667+364193991+364083106
2778+363381226+362265018+361192977+360574573+360370116+360092625+359362191
2768+358365161+357598610+357265191+357114094+356827374+356324852+355650694
2758+354832308+353979990+353304999+352920648+352726078+352506528+352120373
2748+351623194+351175073+350790999+350310994+349665112+348992133+348464214
2738+348111504+347814689+347464581+347129358+346941485+346832993+346593771
2728+346179964+345721955+345253052+344669240+343958582+343282446+342795189
2718+342484704+342210405+341814361+341208066+340457717+339747441+339150791
2708+338542727+337846398+337191946+336729323+336438614+336167438+335766329
2698+335217662+334663617+334242038+333957401+333808143+333899321+334264590
2688+334653244+334644535+334018082+333001276+332101392+331619860+331351320
2678+330877387+330152504+329591000+329478033+329542496+329326693+328785070
2668+328249414+327944896+327813402+327737697+327684510+327603358+327370693
2658+326925209+326362006+325800051+325266441+324814192+324563555+324444413
2648+324143330+323547686+322973067+322684856+322493131+322124011+321699795
2638+321479794+321369846+321098531+320716782+320481584+320326810+319922336
2628+319259626+318721958+318519860+318466048+318364357+318257843+318211525
2618+318129159+317897084+317552632+317207174+316858559+316404193+315881617
2608+315554998+315620988+315903648+315990212+315669318+315131337+314713228
2598+314542112+314498778+314414365+314162792+313680254+313078885+312639577
2588+312522377+312558564+312447887+312099654+311679532+311347501+311070149
2578+310759143+310466248+310279276+310138449+309953213+309792713+309757186
2568+309758955+309639431+309439033+309336439+309333629+309233361+308969123
2558+308709397+308547371+308340901+307981530+307603320+307393138+307332734
2548+307225665+306909142+306395275+305865968+305564642+305608808+305846192
2538+305967069+305808097+305464061+305099208+304780222+304524833+304405655
2528+304508595+304779980+305002444+304999842+304796252+304522820+304274404
2518+304085941+303932624+303765983+303615338+303577208+303687607+303876660
2508+303990772+303843110+303379689+302799901+302398306+302333947+302569804
2498+302904125+303077808+302972405+302682736+302379224+302176120+302102740
2488+302130565+302225213+302331449+302325447+302111275+301753326+301410921
2478+301200739+301153415+301207054+301277588+301377163+301530966+301603930
2468+301441904+301126735+300846052+300612728+300345715+300100110+299997516
2458+300014239+300004490+299890031+299740600+299684567+299749343+299783795
2448+299618855+299316800+299130211+299193078+299382409+299492739+299455823
2438+299373284+299347193+299313331+299146275+298902195+298786626+298899350
2428+299143950+299329221+299293243+299027826+298712934+298563260+298647048
2418+298866216+299091179+299316870+299618578+299926253+300031483+299903875
2408+299767072+299779424+299853081+299840348+299753229+299750661+299941762
2398+300227232+300388182+300334891+300192259+300131613+300188547+300263905
2388+300226191+299906477+299016307+297225351+294361105+290453372+285630836
2378+280057900+273893968+267279869+260474427+253940057+248068102+242843087
2368+238034828+233745207+230445400+228405213+227546754+228003375+230248471
2358+234488842+240507645+248327620+258382492+270211753+281302357+288355123
2348+289619322+286019889+280705760+276698053+274491694+273001821+271719251
2338+270761218+270083919+269416960+268614968+267876901+267577396+267843143
2328+268392104+268831360+269072838+269483227+270599834+272657959+275406722
2318+278271298+280641140+282234231+283315812+284434535+285920262+287725807
2308+289655457+291545675+293196706+294334563+294851450+295004975+295154025
2298+295385475+295620915+295922346+296392879+296908031+297229029+297324648
2288+297386336+297546141+297702546+297654424+297355665+296965694+296642440
2278+296373207+296073512+295762506+295531715+295393386+295263973+295078390
2268+294870116+294754095+294818732+295007855+295161241+295192050+295149098
2258+295112287+295105348+295105174+295094037+295101184+295160964+295229590
2248+295225323+295156557+295130571+295230146+295406257+295494417+295382699
2238+295157078+294987593+294925766+294934440+295011220+295146184+295262447
2228+295295372+295265673+295268622+295414792+295696238+295933448+295988231
2218+295951559+295956034+295944065+295817463+295670286+295668170+295801954
2208+295915545+295901216+295779402+295655402+295634689+295723821+295822563
2198+295842165+295777980+295665221+295550658+295484286+295450008+295370452
2188+295258769+295249158+295392969+295545419+295543997+295413058+295328228
2178+295434117+295735999+296105362+296342710+296302637+296043015+295803585
2168+295762714+295876583+296015640+296151090+296315301+296467890+296511432
2158+296424452+296314330+296302984+296376850+296423584+296416229+296444505
2148+296545156+296656284+296764359+296925170+297115715+297252309+297374956
2138+297612166+297933580+298144838+298174814+298162290+298196534+298190046
2128+298094322+298040059+298150181+298375976+298614851+298849320+299073693
2118+299212924+299221806+299184543+299224789+299367802+299570074+299830772
2108+300171512+300539938+300840466+301044022+301193349+301333170+301486869
2098+301662113+301863205+302129941+302515125+302968519+303319424+303453034
2088+303447553+303474511+303603958+303761924+303857405+303886791+303894875
2078+303909274+303975715+304187875+304580310+305023122+305336140+305525575
2068+305785302+306193072+306541341+306591579+306367033+306074277+305893307
2058+305922174+306142244+306378309+306441662+306334420+306240466+306349339
2048+306706454+307186251+307632360+307999017+308277513+308404358+308385241
2038+308359775+308406509+308442939+308390654+308289483+308225610+308263150
2028+308431108+308706448+309016101+309259937+309372592+309438443+309656987
2018+310047305+310299989+310128526+309679122+309398856+309572817+310090466
2008+310599580+310836929+310827006+310774443+310822773+310975154+311166948
1998+311358083+311650076+312270943+313229462+314062072+314243250+313788676
1988+313134918+312619732+312353586+312331867+312444973+312555546+312651165
1978+312795635+312969145+313083500+313117050+313204689+313600039+314392265
1968+315188654+315373543+314872860+314295570+314150683+314352643+314622917
1958+314954913+315446472+315975155+316311453+316429520+316527291+316771752
1948+317194059+317883518+318986369+320215474+320721119+320044011+318824169
1938+317964531+317662199+317620496+317668340+317853577+318215272+318687194
1928+319221080+319969382+321094437+322321495+323182105+323761893+324374190
1918+324592873+323758284+322351125+321607958+322049590+323132699+323967738
1908+324097081+323735455+323384203+323302392+323444260+323755405+324300567
1898+325111216+325982061+326559767+326880557+327516100+328646290+329431576
1888+329094549+328118683+327464127+327390747+327607279+327847160+328008838
1878+328164411+328499009+329136495+330286635+332425790+335635841+338605733
1868+339261017+337284860+334622192+333048669+332795430+333170171+333534920
1858+333659197+333626965+333657497+333917293+334493300+335482038+337004316
1848+339251754+342319590+345366609+346398890+344625385+341927398+340339685
1838+340163192+340577797+341069633+342124812+344399070+347306476+349151487
1828+349380370+349141738+348937905+348048255+346424564+345141161+344862283
1818+345224533+345667103+346258548+347495148+349400771+351106099+351662087
1808+351171395+350683826+351267500+353329216+356243666+358533467+359091362
1798+358434065+358267668+359959570+363312009+366049688+365731292+363159212
1788+361197245+361217264+362502228+363882846+365044886+366023215+366610290
1778+367073086+368533780+371951169+376787721+380577595+381107388+379066940
1768+376334501+374095250+373446558+375055573+377793946+379500732+379827940
1758+379986288+380284318+380736151+382532242+386609391+391503468+394171166
1748+393701014+391993673+390870735+390880519+391858398+393167128+393990197
1738+394818540+397603057+402825106+406786755+405545402+401328190+397653573
1728+395346980+394405358+394813128+396119603+398284224+402456576+409492098
1718+417401517+421286629+419163329+414487345+410806518+409486755+410779074
1708+414327714+418750702+422297745+425298377+429864725+436035266+440344212
1698+441011674+439649271+436536505+432241853+429560242+430064187+432928606
1688+437325122+444004777+452587904+457861996+455811105+450761768+447732755
1678+448275073+451662866+455554292+458141395+460450104+463653424+465799518
1668+464573085+462131424+462002497+464454705+466849112+467252510+467030948
1658+468884424+474666104+484814982+495810383+499187629+495777527+494457555
1648+497052152+499206572+497001705+492794173+490492853+491275087+495163252
1638+501878226+509105577+511642059+507967789+503506810+502460755+504838820
1628+508560137+512029845+515223832+517865683+518796897+518651039+519999599
1618+523782291+527295195+527360491+525448901+524694145+525819235+527762433
1608+529460614+530772363+532122519+533761372+535514857+537081545+538444156
1598+539887989+541622184+543489295+545123742+546353507+547289925+548092802
1588+548896650+549885319+551156717+552560304+553964306+555773894+558857967
1578+563428791+567515688+568179300+566570943+566634574+569594162+573144467
1568+574590138+574355426+574418502+576319857+581804443+592388015+605143771
1558+609765631+604320875+597953163+594730274+594449869+596064020+598301015
1548+600766580+604635767+611180077+620374669+631261544+641122419+644210274
1538+640217226+636727533+637820426+641811045+645010896+646823432+649886862
1528+655608970+662873964+670262126+677967331+686002277+692391848+696060358
1518+698524814+700497502+701456125+702241897+704879065+710638921+719590162
1508+729902349+735530919+731892385+725184939+722071965+723511530+727808367
1498+732140940+733768136+732860584+732829150+736319606+742566649+747744115
1488+748659508+746412729+744092882+743457062+744600262+746856062+749943709
1478+754318332+760290383+767227232+773211842+775248300+772457712+768471811
1468+767301410+769836574+773862027+776422310+777718029+780621307+786774813
1458+794084217+796845661+793170004+788007665+784898854+784048063+784441296
1448+784947496+784980248+784595481+783805822+782626609+782109376+783976314
1438+788375432+792425449+793079450+791519701+790416539+790132664+789678160
1428+789000011+789134003+790478990+792219777+793653929+795007520+796104021
1418+795583318+793062380+790081593+788082745+787445189+787742387+788338586
1408+789078214+790010122+790617909+790636297+791241308+793576837+796820542
1398+799199093+800220236+800338615+799724791+798919937+799040537+800354991
1388+801639609+801586386+800936896+801940137+805668184+811129871+816650193
1378+821324928+825076638+827999761+830237658+832309435+834862849+837962084
1368+841153885+844271300+847449848+850117061+851001159+849769764+847599106
1358+845713364+844498830+843902423+843910958+844559616+845697057+846859825
1348+847412586+846953849+845774427+844826698+844922317+845931387+846972931
1338+847351453+847087702+846622789+846345368+846342523+846404974+846452228
1328+846953224+848537814+851173038+854097133+856635558+858777281+860810269
1318+862729111+864336877+865772626+867422998+869218672+870671005+871858199
1308+873506905+875721487+877621732+878708102+879594074+880986384+882822027
1298+884582105+885730718+885820647+884766197+883086265+881518953+880271181
1288+878820861+876697735+874098802+871420001+868731554+865995784+863514883
1278+861884773+861506251+862074833+862547378+862093290+861242083+861414378
1268+863096045+865181839+866422810+866844563+867200117+867782230+868490424
1258+869391870+870519041+871639551+872706075+874050298+875786020+877467201
1248+878670562+879605107+880818530+882482433+884306141+886088770+887924760
1238+889868027+891709777+893106806+893860450+894017411+893939208+894418971
1228+896348845+899929717+904334039+908433253+911648231+913858650+914952652
1218+914991233+914692787+915263311+917470399+920917070+924466022+927299632
1208+929303546+930754977+931990674+933176480+934163622+934719436+934929410
1198+935198921+936056512+937976256+941060711+945040019+949608241+954216847
1188+957719377+959207654+959296751+959572160+960715915+962185040+963778512
1178+966343653+970126379+973517885+974874529+974541943+973716757+972633232
1168+971256742+970581508+971894367+974991729+977902431+979208212+980010500
1158+982343530+986193426+989334226+990527804+991362427+993730083+997041443
1148+999264005+999950689+1000475693+1001384841+1001784597+1001543814+1001785707
1138+1002987195+1004362158+1005261383+1006131256+1007549935+1008864945
1130+1008815054+1008087152+1009719066+1015671688+1024310050+1031838657
1121+1035161258+1033514911+1028925734+1024778710+1023038408+1023501101
1113+1025404399+1028651227+1033150752+1037484991+1039329793+1037812373
1104+1034986743+1033568272+1034188202+1036213488+1038921572+1040734802
1095+1040401453+1039395992+1039892616+1041425372+1042444711+1042773203
1087+1042282685+1040511158+1038858219+1039636844+1043084625+1047726747
1078+1052479130+1056862427+1060301812+1062204139+1062472262+1061821592
1070+1061584070+1062142868+1061779333+1058918106+1054707659+1051924773
1061+1051969460+1054030552+1057007521+1060512272+1063284819+1063149786
1053+1060486736+1058723120+1059700894+1061687738+1062966111+1064660406
1044+1068283467+1072408425+1073741823+1071431691+1067998759+1065236482
1035+1062477535+1059636501+1058060376+1058062111+1058807498+1060239708
1027+1062385039+1063378773+1061579559+1058656922+1057528085+1058049274
1018+1056860207+1052309402+1047209930+1045449159+1047924231+1052613053
1010+1057243239+1060424493+1061256341+1060154358+1058982014+1058796951
1001+1058547494+1056884979+1054168429+1051824435+1050384593+1049427913
993+1049045851+1049501674+1049970404+1049550108+1048942599+1049007687
984+1048814436+1046857846+1043185449+1039367958+1036787136+1035420430
975+1034522246+1033769919+1032770565+1030638210+1028018737+1027478675
967+1029539072+1030744238+1028469425+1024729165+1022376636+1021261261
958+1019568422+1016380576+1012234315+1008498149+1006154780+1004581986
950+1002268107+998841420+995343886+992630945+990562291+988737542+987080925
940+985426459+983411859+981077163+978799713+976667706+974614594+973177805
930+973178984+974680029+976942212+978689106+978490165+976199878+973556605
920+972260885+971940928+970883355+968378098+965584040+964459645+966065815
910+969436226+972051952+972127171+970335451+968493494+967149062+965602429
900+963807101+962887475+963442040+964539582+964804444+963662770+961261390
890+958341389+956448291+956704201+958371643+959855548+960842621+961769394
880+962051603+960950315+959185380+957912212+957259807+957042894+957520158
870+958309747+957786963+954999844+951255629+948612633+947752475+948146749
860+949246788+950498168+950923875+949845693+947783908+945927101+944916436
850+944669477+945310918+947449448+950923043+953746314+953599207+950440366
840+946239634+942571123+940089459+939338451+940109166+940921237+940680454
830+940031379+940252456+941856753+944480666+946949008+947796884+946579367
820+944328425+942802608+943347597+945674660+948028924+949291684+950037349
810+951036912+952239232+953641118+955178385+955606174+953773792+951196300
800+951271589+954978056+958974504+959505337+957084181+955391134+955908923
790+956231100+954407947+952121894+951943770+954123379+957411771+960843176
780+963558754+964687591+964453955+963923121+963549456+963262945+963491654
770+964596273+965676884+965676676+964878205+963669292+961553105+958710336
760+956515599+955712757+955798454+956433233+957767950+959595544+961641161
750+963976204+966229159+967128176+965737878+962658141+959617679+958157714
740+958155493+958635048+960037975+963290562+967587607+971052944+972739607
730+972611999+970547646+966833338+962792827+959499161+956238525+951819561
720+947858849+948169370+953667140+960669771+965213220+966237070+964082371
710+960236638+958059527+959108218+960133455+957951556+954750526+954076749
700+955594378+956437674+955028016+951189639+944907137+937906102+934198803
690+936623567+942454895+944562685+939930764+934153560+933397140+936029935
680+935597150+929647929+921359640+914297750+909790938+906508860+900798965
670+890857251+883024160+887565875+900968624+911425836+914898667+914244874
660+911966523+907422865+900623755+894187624+890238431+889373207+891393983
650+894781048+897424807+897824424+895076302+889236994+883349322+882127364
640+886724382+892814535+895521439+893712025+889029518+883945798+880428350
630+879080033+879322065+880513353+882269961+883761568+884019144+882365094
620+877417032+868849170+860094858+856144624+858491116+863656855+867046210
610+867461926+866439741+864594245+862703853+864355196+871435960+879451477
600+882830701
##END=
