##TITLE=<SNM>
##JCAMP-DX=4.24
##DATA TYPE=INFRARED SPECTRUM
##DATE=2/5/2025
##SAMPLING PROCEDURE=Instrument type and / or accessory
##ORIGIN=Admin
##XUNITS=1/CM
##YUNITS=ABSORBANCE
##RESOLUTION=4
##FIRSTX=4497.3318
##LASTX=599.83466
##DELTAX=-1.4281778
##MAXY=1.6894007
##MINY=0.30006918
##XFACTOR=1
##YFACTOR=1.573377e-09
##NPOINTS=2730
##FIRSTY=0.30836162
##XYDATA=(X++(Y..Y))
4497+195987117+195799008+195834126+195999448+196662519+197695406+197928502
4487+196384418+193834818+192306304+192864874+194540450+195744873+195991417
4477+195662647+195058201+194483834+194450667+195104968+196056065+196971627
4467+197765073+198311160+198579620+198881891+199463228+199992874+199957794
4457+199512457+199313059+199402691+199058502+198036109+196965301+196237393
4447+195643175+195287376+195622207+196443383+196907396+196635262+196140601
4437+196231919+197267458+198722269+199492569+198959892+197650116+196691462
4427+196778498+197597970+198102518+197536277+196285959+195434533+195481357
4417+195892106+195957492+195665583+195539678+195981814+196932039+197968999
4407+198580643+198322033+197029778+195251273+194057306+193842754+193693722
4397+192641382+191191608+190716647+191651037+193223382+194758753+196285296
4387+197780795+198739317+198803131+198190388+197251016+196123137+194906971
4377+193718857+192628217+191815962+191538486+191693789+191847008+191880913
4367+192199227+193134205+194423921+195288190+194982207+193623694+192448991
4357+192662975+194086742+195607849+196718037+197722758+198674120+199107391
4347+198766858+197929070+197133502+196859910+197161403+197531542+197429844
4337+196886712+196399533+196450145+197167863+198151426+198670388+198298185
4327+197438027+197033453+197470360+197987618+197613332+196430560+195353255
4317+194929057+195026966+195421217+196047371+196801929+197479812+197859668
4307+197796971+197396924+197043530+197084368+197513036+198103503+198734657
4297+199316961+199637529+199665563+199743905+200110634+200522917+200619387
4287+200334865+199827191+199302906+198943546+198739563+198465042+197978811
4277+197430962+197082398+197102609+197658167+198921403+200637117+201902342
4267+201968808+201193887+200601809+200602434+200745027+200618667+200321701
4257+200020642+199695396+199447980+199490599+199739094+199899511+199970011
4247+200255651+200882335+201567113+201842278+201508394+200941130+200779311
4237+201272324+202126970+202864595+203092084+202684252+201928973+201322576
4227+201205422+201652426+202486615+203326885+203905646+204263719+204415820
4217+204176398+203665618+203475254+203865490+204291563+204127642+203436765
4207+202722419+202294035+202179420+202330366+202676012+203152489+203755003
4197+204465371+205136700+205520666+205422397+204911068+204323157+203890303
4187+203566117+203399166+203665542+204371951+205095029+205566997+205969299
4177+206461610+206847148+206939280+206988529+207420208+208185753+208739796
4167+208828537+208870777+209252110+209673429+209658863+209400442+209521763
4157+210133313+210663565+210690689+210499644+210613540+211103389+211608903
4147+211833551+211771820+211599925+211596478+211995635+212641146+213009523
4137+212865377+212592012+212630065+213016077+213633422+214385670+214994019
4127+215190690+215179665+215392399+215848438+216230680+216512493+217054375
4117+218015246+218986724+219346502+218899801+218072469+217449649+217229225
4107+217224471+217333935+217809048+218839150+220012641+220579261+220225943
4097+219359325+218714230+218851936+219839022+221123757+221897144+221926370
4087+221907713+222687275+224207132+225450498+225482150+224409031+223196842
4077+222718396+223213511+224462333+225974784+226942834+226612113+225135992
4067+223732000+223589275+224730584+226155582+227002765+227278650+227437721
4057+227663771+227812444+227835136+227949183+228354856+228899049+229145953
4047+228915718+228584808+228525861+228527699+228275926+228033057+228239805
4037+228764886+229084298+228944717+228541355+228358682+228906853+230281977
4027+231982083+233368535+234240948+234773416+235053033+235020055+234795692
4017+234683747+234732484+234619175+234179407+233769662+233807602+234219715
4007+234666642+235098966+235710781+236434010+236878627+236792386+236326649
3997+235856347+235641227+235559854+235206801+234499937+234079490+234720512
3987+236393096+238257445+239561765+240157517+240127476+239518768+238770877
3977+238743809+239740972+240986763+241576132+241488034+241218078+241005099
3967+240854607+240925411+241501199+242511829+243345772+243526722+243354940
3957+243317852+243264248+242877479+242565946+243113453+244530855+245748726
3947+245811669+245197487+245173185+245995422+246636255+246346751+245499606
3937+244831080+244959713+246339023+248603457+250161311+249679607+248001663
3927+247240304+248216650+249686426+250273711+250474435+251578732+253330113
3917+253764653+251632905+248190965+245633845+244834547+245444713+247492057
3907+251728864+258073343+264486713+268504024+269676966+268579166+264993610
3897+259626879+255356356+254767896+257557733+260360431+260191907+258684021
3887+259330215+262296190+264813589+266114008+267680007+268320347+265503216
3878+261082997+259168397+260873522+264946843+270266903+274739495+275170152
3868+272387608+270784142+271670989+272064615+269654785+266137609+264691453
3858+267497561+275661138+287629917+294789436+289093537+277054067+267191824
3848+262168163+262098761+266086542+272196487+278558677+284638257+289760699
3838+291483800+288750333+284325190+280871828+278404283+276213873+274740234
3828+274525947+275376843+277959780+283790979+291363937+295085854+293511634
3818+291337987+289951176+286357210+280452688+275893627+275447192+279377807
3808+285253008+289697282+292903721+297297270+301455184+301102245+297098099
3798+293711468+291292982+287821872+283529661+280513453+279810036+281201166
3788+284481800+289142255+293560598+296667063+299523745+302937897+305198486
3778+304818953+303592804+304329785+308074488+313938267+319745183+323580257
3768+325637772+326988235+327884969+329265170+333092818+339467131+345347219
3758+348342042+350670915+356664084+368670841+384360079+395682437+397985512
3748+397850420+401436449+405903416+404745400+400190886+399701888+406572699
3738+419737737+434559751+444492513+446292688+442921571+439913754+440776924
3728+445926584+453984997+463628369+474462488+485775035+495918618+504187207
3718+511760070+520449505+532178047+548329877+567071368+582745376+591808150
3708+596040884+599661955+606771014+618432503+630856734+638985761+642338354
3698+644414432+648598335+656089673+665704065+674667319+679280060+676338577
3688+667554056+659201783+655045307+655399743+659688582+667155372+677232849
3678+688898695+697762923+699135812+697319310+698721142+701518138+700205862
3668+695326120+691753805+691275112+693008195+696011655+700109336+705332831
3658+710354029+712662483+712489811+714355183+722500917+735977734+745529012
3648+743068646+734830477+729847693+729529473+730482313+730612631+731711094
3638+735982053+741958667+746083623+747687600+749952034+755382675+761031826
3628+760889006+756068892+752643261+752867757+755223489+757788413+759905860
3618+761985423+764576259+767238770+768923363+768368449+764253494+757474133
3608+752099484+751032161+752492409+752654929+749933092+746468744+746186514
3598+750757584+757056887+759340566+756118671+752403005+752830101+756337863
3588+758487283+758272106+758225965+757691205+754275726+749464780+746984563
3578+747828829+750264040+753156579+756359835+759047425+760499187+761600075
3568+763033047+762762788+758641695+752570070+748995254+750007950+753227496
3558+754989522+754871933+755605807+759034469+763715476+766898957+767605480
3548+766202663+762369711+756263460+750565288+748338813+749821337+752445965
3538+753214919+751130961+748169324+747469544+750174863+754306336+756686010
3528+755772418+752779186+750593549+751978940+757885697+765890126+770510141
3518+767596237+758957036+750207064+745035318+743685689+745044031+747710709
3508+749894300+750601126+750732278+751716030+753649591+755862352+758461220
3498+761375048+762932505+762012699+760624354+761109411+762454039+762335919
3488+760743383+759111372+758208159+758522212+759997386+760735200+758855130
3478+755461775+753217192+752743348+752336330+750551347+747684797+745356719
3468+745202686+747444390+750529451+752654701+753597312+754700170+757158869
3458+760469866+763182837+764562621+764692864+763647438+761928220+761113881
3448+762642849+765984228+769156800+770897687+770676449+767571082+761802674
3438+756105487+753200069+753391682+755329941+757699690+760071940+762827265
3428+765882853+767554868+765925206+761443011+757178038+756841786+762055128
3418+770404371+777147818+779166541+776278322+769988110+763018879+758974614
3408+760028980+764915239+769965531+772042367+770734410+768197141+766615818
3398+766374199+766579677+766643170+767015865+767679959+766900245+763522195
3388+760048680+760190969+764196896+768559153+769897720+768727885+768366858
3378+770683571+774228459+776419399+776678975+776334692+776128304+775114851
3368+772193597+768609235+767650182+770774263+775485880+778110053+777560594
3358+775522323+774389008+775538007+778262798+780700661+782157727+783000781
3348+782779846+781065629+779730926+781365664+785254911+787559728+786270788
3338+783763750+783520691+786065006+788708273+788804193+786692050+785119289
3328+785799748+787095431+786333220+783669193+781623498+781403926+781856177
3318+781693203+781112528+780771958+780677704+781185037+783208457+786090161
3308+787736567+787898708+788091836+787848096+785154066+780822418+778315986
3298+779119490+781555308+783980897+786430731+788629400+788751611+785922338
3288+782740675+782931228+786810170+790999983+792968700+793237216+792586079
3278+790871407+788771992+787293939+785887940+783422801+780661414+779782296
3268+781900955+786233814+790658730+792850731+792595625+792395147+793938435
3258+795518091+794886123+792932786+791590052+790388319+788116688+785707843
3248+785196419+786608631+788385204+789957208+791535121+793061514+795023563
3238+797898599+800491330+801123828+799868529+797864126+795089101+791438746
3228+788708424+788732897+790613649+791756966+790898304+788801163+786836764
3218+785841419+786055611+787040273+787583519+786632725+784713786+783777843
3208+785017913+787562153+789951222+791914181+793727653+795041217+795272608
3198+794197254+791845688+788682664+786006439+785409475+787255526+789941373
3188+791387301+791286001+790679490+789666643+787772405+785899760+785182023
3178+784923508+784189482+784038631+785858543+788605761+789885912+789181813
3168+788310347+788803739+789969406+790191554+789700284+790152686+791559442
3158+791932214+790207844+787806500+786894877+788292390+790729951+791415335
3148+788792146+785225816+784679010+787607916+790368166+790093739+788023722
3138+786651515+786140621+785381062+784860470+786355419+790133441+793975788
3128+795161837+792945136+789109229+786308672+785860513+786846008+787331823
3118+786362390+784347607+782205915+780740060+780711041+782590733+785701100
3108+788303225+788742822+786551276+782737265+779065620+777170851+777804259
3098+780458663+783945287+787163015+789162114+789300161+787611552+784646127
3088+781435672+779458697+779532039+781055324+783189440+785683598+787697320
3078+787704594+785749893+783820651+783387418+784324953+785805809+786656061
3068+785653291+782786741+779533403+777137211+775418447+773991991+773624372
3058+775163342+777732205+779334818+779066605+777855402+777153728+777406030
3048+778034665+778649662+779418162+780016187+779479684+777787287+776398184
3038+776325297+776828083+776639349+775278279+772954520+770400052+768653710
3028+768231160+768991250+770608334+772399985+773292591+772799199+771569812
3018+770419524+769240370+767286579+764406921+761549842+759790543+759255404
3008+759328443+759633934+760254234+761020461+761418917+761328300+761232456
2998+761369063+761131989+759984278+758381589+757155611+756817617+757508986
2988+758545093+758488117+756895808+755133403+754333384+753860980+752865938
2978+752214801+753759983+757783564+761879047+763058429+760899462+757630212
2968+755278874+754063201+753144532+751930828+750479975+748684081+746144994
2958+743358302+741943513+742743153+744492754+745471505+745444533+745116463
2948+744874693+744625118+744199234+743683491+743256244+742815510+742284766
2938+742162251+742751715+742885064+741053105+737865153+735398120+734402548
2928+733982953+733668446+734175930+735747555+737119384+736840639+734806384
2918+731945970+729234287+727404450+726629661+726188170+725133424+723185391
2908+720609103+718103504+717013906+718260416+720733284+722023285+721070142
2898+718887233+716641210+714621957+713044650+712397755+712593384+712621948
2888+711715781+710233106+708835744+707582263+706442659+705931765+706562597
2878+707804183+708359627+707757738+706614800+705190617+703109614+700585907
2868+698488084+697289458+696906988+696895775+696299341+694455411+692075888
2858+690422814+689968670+690535934+691625229+692146048+690879156+687633015
2848+683555413+680285027+678681656+678186977+677607514+676412752+675045243
2838+674350388+674740964+675495599+675321715+673898137+671954726+669848493
2828+667333045+664704856+662889111+662261992+662290026+662301088+661961047
2818+661014648+659180719+656664362+654438039+653615745+654528655+656266057
2808+657031148+655489905+652119583+648730320+646714931+646295639+646957535
2798+647845973+648043496+646976401+644530658+641083433+637769027+635996166
2788+635955858+636206342+635374047+633624220+631880037+630487107+629384477
2778+628720194+628401861+627602183+625602667+622945763+620971666+620312839
2768+620460280+620647916+620449521+619512668+617636917+615411616+613956786
2758+613617465+613412820+612166234+609917105+607740863+606305732+605233598
2748+603996179+602710080+601731897+601149858+600853308+600463300+599382453
2738+597535796+595661105+594343677+593276013+591893009+590082909+587953453
2728+585610336+583500806+582429279+582832887+584145731+585035192+584393563
2718+582204290+579504502+577502978+576607569+576226085+575489937+574034993
2708+572083702+570129343+568680990+567901049+567353220+566479708+565280665
2698+564051163+562694753+561008456+559289087+557916917+556757348+555552093
2688+554353769+553211021+552116119+551306933+550905673+550571543+550168010
2678+550067468+550181118+549641471+548048670+546193981+545078850+544773397
2668+544509199+543697626+542570069+541641361+540873960+539842853+538512090
2658+537321760+536565307+535990656+535066305+533569764+531803609+530240508
2648+529185649+528753477+528769122+528693318+528056008+526956068+525868591
2638+525037318+524258174+523226953+521906495+520504852+519309067+518671151
2628+518827381+519469995+519778024+519116734+517576931+515786720+514375682
2618+513582937+513207287+512771288+511770867+510149464+508541888+507574842
2608+507082662+506576466+506115806+505954688+505819180+505341889+504727801
2598+504346090+504073254+503480154+502452647+501369488+500693500+500521055
2588+500563219+500412520+499813623+498921245+498216995+497872220+497458383
2578+496636013+495712268+495108030+494714612+494177579+493462798+492765178
2568+492107562+491397327+490755547+490406718+490282574+490105546+489822028
2558+489590637+489389174+488974390+488259305+487500352+486997452+486692037
2548+486291573+485807084+485519437+485296494+484574969+483253601+481961441
2538+481219233+480901013+480649090+480333295+480008938+479733678+479472663
2528+479106445+478615516+478207248+478079165+478109813+477960742+477434847
2518+476624524+475805071+475265613+475150145+475390401+475792797+476138027
2508+476206444+475888338+475344335+474892388+474651109+474422332+473988266
2498+473394635+472838054+472395578+472045878+471858469+471884116+471881351
2488+471478765+470668973+469872439+469444093+469329534+469246873+469056358
2478+468863646+468774052+468671464+468398250+468067908+467913648+467861710
2468+467633349+467279217+467117948+467095294+466827648+466391309+466323990
2458+466652779+466698618+466094115+465290384+464831011+464736493+464751684
2448+464741758+464726037+464725469+464629586+464269278+463706977+463258932
2438+463038300+462782550+462388640+462176910+462258511+462154370+461536115
2428+460883008+460858497+461407691+461941504+462148043+462248320+462543393
2418+462935977+463003675+462551992+461906575+461510279+461440952+461507968
2408+461603244+461723940+461756937+461495656+460945932+460465989+460449699
2398+460925816+461576271+462060571+462176910+461800730+460936916+459919182
2388+459284296+459149583+458877923+457699185+455485818+452533500+448917278
2378+444639500+440172155+436213317+432913003+429807978+426557898+423338503
2368+420449980+418016663+416172960+415001989+414246142+413804423+414544511
2358+417647377+423062940+429632048+436719475+444337950+451551983+456422140
2348+457667022+455708003+452411023+449599555+447657053+446066866+444461714
2338+442754013+441116547+439788208+438580187+437031103+435221230+433898461
2328+433640854+434338020+435516492+436774823+437913593+439017777+440448286
2318+442428899+444635220+446464413+447725698+448831813+450229554+451863762
2308+453392541+454752398+456159382+457640618+458996459+460194593+461383218
2298+462544681+463470434+464055465+464452368+464946669+465641069+466266863
2288+466548903+466711233+467208943+468036806+468782387+469258124+469621955
2278+470000750+470417769+470912751+471372200+471492327+471245366+471088947
2268+471386633+471929046+472341822+472631969+472965948+473242496+473300495
2258+473312012+473604357+474263223+475132454+475996798+476623842+476902587
2248+477039118+477330743+477732609+477943543+477876717+477755642+477827961
2238+478220204+478925477+479729739+480307079+480566504+480782628+481266435
2228+482025047+482802677+483357856+483663801+483890911+484217351+484643349
2218+485022825+485293463+485576186+485990667+486503530+487062119+487719848
2208+488467663+489100124+489440922+489565899+489652690+489779333+489996745
2198+490405051+491063045+491957962+493013616+493979147+494508717+494577854
2188+494600091+494922251+495425492+495760834+495764888+495530694+495250850
2178+495111174+495246228+495701737+496432732+497348294+498325493+499174987
2168+499706262+499929811+500106650+500444569+500799762+500886174+500787109
2158+500963380+501624935+502397526+502820417+502897244+502947970+503216297
2148+503777651+504533309+505183385+505443833+505347685+505181453+505137509
2138+505154102+505140653+505264001+505801602+506671061+507406489+507735770
2128+507858625+508024781+508199196+508278713+508338265+508511354+508808510
2118+509154005+509480067+509721648+509799347+509679446+509446540+509253638
2108+509151391+509019406+508774794+508620268+508917538+509755932+510768400
2098+511427986+511476060+511099311+510752792+510735556+510889589+510813481
2088+510376157+509849504+509533823+509433546+509348687+509181698+509041151
2078+509003609+508901135+508537910+508055391+507818242+507953409+508261400
2068+508526128+508600720+508311823+507673906+507046408+506700420+506482781
2058+506206385+505985336+505888999+505717123+505375870+505050226+504832132
2048+504569260+504200012+503924222+503915849+504038705+503978508+503626800
2038+503221866+503072492+503204781+503308240+503046921+502433212+501780711
2028+501274136+500821280+500358763+499988947+499776611+499711111+499799152
2018+499882078+499559086+498671405+497645110+497013975+496813496+496654425
2008+496191567+495386207+494491897+493859701+493618536+493555461+493414308
1998+493212125+493177878+493473974+493960319+494161820+493630318+492404984
1988+490929280+489626247+488710722+488161188+487738070+487249451+486810763
1978+486638698+486681278+486616877+486166445+485437192+484995360+485315473
1968+486017374+486051886+484942285+483381647+482299777+481858816+481597724
1958+481189418+480769520+480615828+480717999+480783272+480652726+480506270
1948+480603402+481099143+482036791+482986183+482885225+481149565+478701360
1938+476962329+476330474+476179661+475881103+475411653+475074379+474951978
1928+474964404+475388545+476592323+478120572+479046514+479360112+479609573
1918+479332078+477653660+475259022+473854008+474056607+474949591+475269175
1908+474592807+473427177+472431756+471850286+471592907+471485622+471431525
1898+471526006+471826874+472111529+472452630+473553593+475447680+476566562
1888+475586560+473416153+471749365+471024015+470762885+470638628+470567673
1878+470481754+470392273+470506643+471422774+474063047+478614569+483102409
1868+484172232+480965604+476314790+473091077+471871652+471762624+471907679
1858+472014359+472077131+472102702+472137934+472440962+473392059+475275387
1848+478389694+482739526+486669421+487034502+483319253+478994841+476888456
1838+476853339+477269524+477390940+478363327+481651784+486442652+489649810
1828+489863775+488825054+487685298+485804092+483353954+481799831+481762403
1818+482426193+482947050+483600157+485242397+487845317+489996442+490354212
1808+489303936+488437736+489095806+491768242+495800233+499286970+500427370
1798+499670311+499541356+502189850+507260335+511213756+510428966+506230176
1788+502832199+502271072+503883535+506397809+509136617+511358394+512282026
1778+512622937+514675376+520215045+528342292+534694632+535182758+531118983
1768+526307355+523052312+522694050+525611704+529915621+532732545+533887719
1758+535078124+536511096+538113444+541692579+548788227+557403750+562821776
1748+563152762+561100929+559838962+560762783+563836214+567791984+570846245
1738+573475192+578842530+588161925+596289967+597022932+593090233+589611603
1728+588099682+588984181+592453529+597652514+604197491+613763392+627892028
1718+643679269+653106442+652582441+647780965+644745683+645845586+651381390
1708+660684154+671748566+681726485+690496080+701402140+715648896+728022780
1698+733985226+735597310+734232907+731003662+730293654+735185292+744580340
1688+756006157+769362278+784334196+794454254+794418189+790162459+788496430
1678+791579293+798722788+806938378+813437099+819279304+826199817+831424373
1668+831071755+828104208+828314991+832669368+837108452+838248208+838144559
1658+841069905+849833514+865177067+881890629+886929784+881770388+879945627
1648+883431720+884867268+878828071+870296989+865405730+865295944+869468027
1638+877164996+884483738+883548022+873420236+863215472+858599321+858645539
1628+859663916+859249549+857728915+855094665+850278339+844889446+842371119
1618+842806397+841501168+835057150+826933843+821113762+817621532+814522076
1608+810505617+805924698+801910739+799103135+797285118+795791002+794249533
1598+792941045+792135041+791330400+789753169+787454792+785340906+784237897
1588+784232745+784780158+785300901+785601240+785958554+787333262+791193339
1578+797893599+804249197+805418350+803080650+803138915+806842836+810368783
1568+810843536+810559032+812435390+817550312+827848042+846127698+868063468
1558+874988300+863074319+849678875+842280047+840286630+841717254+844614489
1548+848425924+854541191+864164447+876581670+889822171+899622949+898875133
1538+889915894+883937916+884640878+887215197+885738811+881878582+881575289
1528+886382902+893408731+900342352+908059777+916759743+923099127+924855168
1518+923843609+921294445+917121452+912975584+912065780+917124786+929058542
1508+944020610+949613240+938730895+924604305+917671820+917901847+922378663
1498+927620948+929698466+927427971+924635596+925567146+930536747+935386637
1488+935208056+930123819+924171375+920314329+918913936+919032587+920209847
1478+922922364+927777179+934645338+941285742+942823651+937402633+930400140
1468+927349780+928749112+931045368+930930127+930286187+933865700+943315451
1458+953418840+953674098+943646475+933832212+928648191+926745391+926324962
1448+926124408+925249760+923753068+922285092+921263608+921613346+925150051
1438+932105796+938127036+938071727+934259004+932236645+933130765+934568965
1428+935242605+936147106+937719564+939103591+940347753+942529904+944846693
1418+944120092+939678432+934826874+932272103+932084884+932841034+933576575
1408+934485470+935672429+936385543+936457673+937325199+940099011+943813844
1398+946516284+947121052+945365315+941653134+938030813+936973946+938419268
1388+939048812+935639773+929794159+926193735+926848736+930271867+934629427
1378+939519246+944701600+948437419+948318390+944378304+939778443+937315047
1368+937138283+938143781+939923082+941984007+942330487+939426356+934748456
1358+930797384+928207912+926364664+925289158+925336891+925686023+924898051
1348+922969566+921287019+920631488+920655506+921061159+921839963+922292441
1338+921150867+918088309+914205578+910947163+909038377+908156683+907350451
1328+905940588+903997783+901996713+900361975+899466945+899610447+900609807
1318+901647809+901810176+900780661+899125314+897973739+898042459+898796487
1308+898999617+898207782+897121744+896439467+896171935+896095563+896025100
1298+895466322+893742558+890794786+887380292+884354178+882033146+880156485
1288+878158901+875627997+872838577+870626497+869398928+868562618+867349520
1278+865869573+864793158+864299463+863911690+863235247+862470081+862225582
1268+862963851+864590710+866583520+868421237+869841253+870798109+871382193
1258+871787619+872297679+873299464+875122710+877594365+879848722+880976355
1248+880989538+880867857+881534906+883111228+885252314+887791629+890693638
1238+893581630+895731732+896689421+896748670+896644112+896932101+897810159
1228+899243813+901110472+903392333+906165766+909267420+912229966+914901569
1218+917781151+921254819+924734623+926958522+927303487+926743193+927043229
1208+928900645+931325325+933104777+934354243+935930868+937935574+939860498
1198+941901876+944833888+948494850+951609081+953361182+954151427+954752786
1188+955744039+957658886+960615977+963700811+965674453+966425981+966916796
1178+967931310+969793424+972618530+975883839+978367541+979224233+978780544
1168+978253891+979079746+981885456+985314573+987092661+987100920+987591660
1158+989847759+992481631+993393632+992348509+991134805+991313614+992303276
1148+992645513+992843264+994761293+998242310+1000899214+1001542396+1001390485
1138+1001875011+1003503840+1006322657+1009543340+1011152091+1009699571
1130+1006509649+1004683449+1006157865+1010269714+1014805476+1018131778
1121+1020032987+1020705339+1020172928+1018921265+1017961985+1018326043
1113+1020525848+1023655838+1025696231+1025908225+1026050818+1028240016
1104+1032292918+1035672408+1035988278+1033340920+1030187215+1028917974
1095+1030229720+1033211511+1035774162+1036002144+1034346418+1033349482
1087+1034021076+1034414683+1033349861+1033036642+1036087608+1041962695
1078+1047737013+1051286901+1052590691+1052736542+1052763969+1052892848
1070+1052144654+1049397360+1045532662+1043274895+1044296455+1047605103
1061+1051203028+1054312940+1057065462+1059211472+1060284099+1060298267
1053+1059770326+1059353156+1059249053+1058945759+1058079975+1057114331
1044+1056755198+1057372165+1058700427+1059520979+1059002433+1058710732
1035+1060802418+1064520053+1067615570+1070135943+1072812168+1073741823
1027+1070937022+1066099255+1062478221+1060843938+1059527949+1057441339
1018+1055733032+1056252108+1059201320+1062550579+1063457276+1060682176
1010+1056124593+1053342901+1053743024+1055118944+1054907253+1053721431
1001+1053734690+1054925664+1055504823+1054795497+1053140605+1050293451
993+1046415720+1043503028+1043741920+1047044734+1050942618+1052584706
984+1050985805+1047596011+1044644224+1043066689+1042195601+1040758765
975+1037595438+1032283902+1026059910+1021447699+1019982602+1020606236
967+1020936654+1019531943+1016090931+1010697264+1004332650+998806165+994881914
957+991638046+988463808+985926084+983907058+980982698+976542477+971886625
947+968645031+967138262+966367641+965199170+963376379+961330380+959535016
937+958365181+957770490+956825000+954912653+953503926+954767712+958233045
927+960818274+960410650+957692754+954601177+952572983+951868127+951497705
917+950215584+948105335+946508859+946198973+946511132+946301561+945160745
907+943837331+943753988+945591023+948113745+948949904+946926256+943188846
897+939840420+938127870+937877007+938141508+938262507+938271144+938409494
887+938398659+937297469+934410462+930430825+927279241+926367619+927133694
877+927817487+927799303+928222838+929786962+931016652+929987743+927246586
867+925156264+924456787+923552287+921727071+920854241+922706278+926067659
857+927906891+927201505+926000000+926096602+926507484+925674582+924406857
847+924534296+926051142+927756192+929339409+930640623+930408399+928198441
837+926146002+926401486+927949851+928072744+926231315+924290101+923702077
827+924610518+926362315+927764450+928080548+927877570+927775361+927085203
817+925234758+923456215+923418710+925301811+928269131+931642635+934653293
807+936496996+937230643+937153285+935856541+933336320+930813522+929135294
797+927702776+925866802+924284570+924219335+926054324+928675164+930227013
787+929901142+928786616+928662283+930425673+933399357+935485967+935083192
777+933268130+932487886+933270857+933934875+933624308+934068830+936763391
767+940002939+940325250+936352282+930643275+926989965+926479905+926984131
757+926437172+925455011+925938629+928196168+930275731+929952814+927434411
747+925905746+928563635+934704814+940005743+941593430+940993587+941042380
737+942120462+942461866+940769848+937602808+934869607+933974956+934340756
727+934423190+933958514+933743337+933560437+932537362+930982557+929536781
717+927611250+924919342+922998812+923319229+925400838+927687320+929204469
707+930311114+932412726+935888969+938149842+935999967+930288990+925447131
697+923859444+922941533+918635191+910223669+900163240+891326061+886191212
687+886275995+890148725+893636333+893648683+890382995+885563714+880761708
677+876993536+874434447+872825317+871440078+868556405+863556042+860743665
667+865200630+872125462+874179492+870923426+865634318+861127422+858864655
657+859125898+859815980+857648830+852548607+847986705+846953174+848960911
647+850794764+850055737+847531197+845413220+843850990+840735320+835039042
637+829028181+825898645+826592969+829820926+833573035+836368820+837555475
627+836676886+832991148+825929861+816557922+808146551+803777475+803605106
617+805025273+806354294+809065902+814015955+817643050+815555607+808765715
607+802187439+798595651+797172226+796380769+796145514+797408087
##END=
