##TITLE=<SNM>
##JCAMP-DX=4.24
##DATA TYPE=INFRARED SPECTRUM
##DATE=2/5/2025
##SAMPLING PROCEDURE=Instrument type and / or accessory
##ORIGIN=Admin
##XUNITS=1/CM
##YUNITS=ABSORBANCE
##RESOLUTION=4
##FIRSTX=4497.3318
##LASTX=599.83466
##DELTAX=-1.4281778
##MAXY=1.7241695
##MINY=0.19403304
##XFACTOR=1
##YFACTOR=1.605758e-09
##NPOINTS=2730
##FIRSTY=0.21106094
##XYDATA=(X++(Y..Y))
4497+131440071+131950944+132685962+133080169+133161340+132964598+132306343
4487+131467984+131241770+132001231+133356096+134704622+135528235+135412886
4477+134465741+133576983+133770969+135204350+136910419+137641633+137026992
4467+135773835+134826939+134649453+135177105+135990862+136466110+136178296
4457+135400387+134890822+134960671+135097530+134785060+134206054+133809916
4447+133738165+133894558+133975348+133461375+132260992+131110015+130680201
4437+130704895+130512041+129949637+129356535+128962885+128707021+128586504
4427+128838470+129515257+130139874+130144152+129482676+128509240+127504161
4417+126675379+126305030+126534947+127207818+127987510+128434296+128168884
4407+127317599+126536905+126270082+126327348+126338382+126087298+125438665
4397+124554168+124009377+124190806+124871064+125661437+126391268+126831429
4387+126598857+125547137+124027305+122713522+122160779+122433383+123130400
4377+123720486+123805591+123319505+122642272+122257456+122215558+122198464
4367+122095597+122196562+122714868+123347734+123523893+123081932+122484134
4357+122264555+122505868+122970425+123433647+123721043+123707643+123419022
4347+122993541+122566632+122232122+121972500+121681624+121441221+121507126
4337+121779146+121743622+121273887+120965258+121273813+121849589+122121952
4327+122074105+122058738+122202055+122299846+122137681+121719727+121218542
4317+120855274+120835795+121183390+121616637+121838787+121954154+122313024
4307+122937918+123419244+123465179+123324664+123456623+123859795+124003744
4297+123493427+122562623+121788481+121583100+122066403+123087370+124174400
4287+124729649+124537380+123956908+123446063+123071919+122683428+122349159
4277+122271877+122368675+122345327+122191087+122221283+122543173+122898804
4267+123251706+124036047+125418853+126733044+127129237+126545860+125617311
4257+124861246+124410330+124333094+124663669+125171722+125617515+126125800
4247+126768103+127074226+126723411+126321873+126596825+127249494+127464795
4237+127082476+126499637+125928863+125397750+125035438+124975119+125261875
4227+125917634+126874301+127916538+128797973+129322385+129394666+129133355
4217+128767767+128380650+127972319+127695965+127709950+127881803+127922978
4207+127787409+127780059+128234149+129056314+129646781+129474036+128714622
4197+128056088+127861601+127855467+127699863+127549595+127797487+128481809
4187+129262252+129857563+130193687+130232301+129986441+129635793+129433576
4177+129580708+130142945+130912382+131558064+132075117+132696578+133265395
4167+133297317+132787066+132324643+132291179+132466179+132533244+132569194
4157+132795891+133050297+132904882+132323807+131738306+131418560+131265610
4147+131221113+131352153+131546343+131566796+131375242+131140258+131009236
4137+131042467+131296642+131776566+132279867+132540454+132595326+132659375
4127+132608912+132086810+131164552+130411615+130269773+130665019+131214042
4117+131657775+132074625+132622571+133179565+133492221+133552652+133548374
4107+133591117+133679182+133781576+133850711+133815837+133625406+133351187
4097+133194153+133202941+133116639+132766752+132395494+132282048+132391810
4087+132664609+133258685+134200996+135102291+135522463+135464733+135316701
4077+135457411+136023676+136793623+137217294+136912720+136164107+135552613
4067+135240569+135054574+134984594+135079843+135105204+134791221+134278956
4057+133938071+133844846+133817851+133907995+134357742+135023718+135418204
4047+135440253+135421322+135375814+134974452+134366372+134218368+134754390
4037+135380305+135468139+135114484+134948273+135408126+136259903+136794403
4027+136602449+136087976+135983689+136435886+136935725+137143324+137318871
4017+137782213+138303841+138339708+137726005+136874636+136310070+136224797
4007+136486748+136880306+137274625+137635192+137930569+138091185+138108566
3997+138102358+138185106+138297067+138293949+138198617+138245118+138620135
3987+139198166+139550429+139266280+138407924+137635545+137655868+138530473
3977+139725892+140747378+141416872+141634725+141273248+140394318+139366679
3967+138731400+138958413+140171481+141983554+143681048+144656098+144645501
3957+143770459+142651664+142224003+143007657+144665425+146340174+147254005
3947+147282940+147152382+147538859+148022431+147612086+146251709+144822263
3937+144082475+144607166+146803377+149974193+152026687+151437269+149312801
3927+148144312+148944466+150427550+151085508+151443645+152994907+155496276
3917+156617679+154694954+150937615+147788069+146294814+146134793+147497777
3907+151679306+159205489+167862940+173652811+174499132+171298259+165610818
3897+159320504+155229425+155444977+159116384+162158517+161576764+160052033
3887+161423758+164722701+166282733+166129653+166624082+166513875+163550250
3878+160302699+160690837+164783818+170301920+175718112+179155454+178301282
3868+175046549+173747243+174751747+174468861+171108932+167150305+165800535
3858+168906178+177461402+190123563+198250078+192682105+179696282+168902522
3848+163630706+163794068+167838924+173686330+179919035+185940346+190442158
3838+191171646+188005943+183601068+179766846+176503018+173890041+172688099
3828+172970985+174238350+177484286+184401991+192799291+196254302+193661703
3818+190140898+186674065+180772798+173848467+169935608+170963869+176152222
3808+182192334+185683220+188035731+192575814+197455520+197586180+193710552
3798+190214376+187453199+183955427+180565691+179056048+179798509+182406123
3788+186733474+192203953+197334362+201529941+206193297+212099055+217206376
3778+219588360+220998096+224807040+233022974+245621012+259979916+271951138
3768+280039419+285993247+291343719+297297119+305652456+316928544+329307986
3758+341144484+353605514+369345479+390084006+414541258+436415860+450254907
3748+459643980+470119609+481494490+489056030+492557830+497499562+507615839
3738+522733016+539159318+551138205+554686849+551036424+545149114+541405853
3728+541562794+544943547+549230754+551707021+550334609+544926324+538159249
3718+533885219+534423857+539891570+547980316+553585816+553035485+549261452
3708+546872527+547566807+551527475+557367978+561401029+561324340+559559725
3698+559605419+562902357+570088063+581582952+595686215+606748923+607911797
3688+600036414+591905649+588788591+589731088+591732154+593237008+595711679
3678+601186110+606992092+606878024+602380425+599814960+598056432+591364450
3668+580316515+570854652+565643767+563573437+562920545+563639175+566961837
3658+572809800+578778068+583631085+589818838+599295438+609209303+612953195
3648+607924900+598423765+589023854+582498723+580476536+582319399+585256206
3638+587527945+590019245+593913508+599346625+606952374+616847086+623948309
3628+621422636+612937159+607095284+607737559+614535777+624438878+632886493
3618+637618909+640454974+642757559+643245084+641639971+640774497+642715911
3608+645729629+646985450+646601488+647347586+651216459+657143003+661949213
3598+663853434+664105846+664902055+667048665+670401505+674927093+679274433
3588+680084303+676328124+671963635+670766908+672777216+675956337+678505544
3578+679691432+679777252+679560029+679794920+681281401+685081602+691101391
3568+695721484+694059059+687354121+681563285+679233008+678315715+676475711
3558+674245582+673761101+675657972+677905770+677714754+675029468+672704313
3548+672652346+673800892+673986563+672738909+671391700+670870693+670557926
3538+669753624+669202625+670076340+672176403+674336524+675775121+676055891
3528+675214767+673999407+672570981+670476338+668386594+667749255+668561723
3518+669356522+669542119+670087104+671795558+674199331+675559309+673738087
3508+668887705+664509778+663552693+664643853+664172289+661582103+659773279
3498+660703414+663090855+664371397+664095526+664267092+666296034+669147021
3488+671025704+671542033+671122288+669722741+667240721+664145266+661329320
3478+659509657+658766974+658973209+660401931+663092414+665647114+666227363
3468+665036724+663700577+662640078+660863993+658222508+656341300+656160975
3458+656667876+657089032+658012709+659642915+661072603+661784923+661895687
3448+660904453+658252797+654656603+651292330+648660199+647302969+648061316
3438+650485356+652271093+651452909+648788781+647187899+648493905+651493666
3428+653466780+653223649+651913040+651167387+651418239+652125808+652762256
3418+653182149+653428325+653341391+652482450+650547049+647914324+645753831
3408+645328518+646718710+648123751+647256644+644062972+641094762+640619709
3398+642417472+644738914+646157169+645795182+643360080+640164997+638636795
3388+639849929+642478793+644385613+644643072+643916128+643382649+643565350
3378+644087916+644481752+644716940+644691847+644274032+644070395+644850198
3368+645981966+645855464+644156883+642320888+641465065+641147026+640515330
3358+639758912+639683337+640118153+639642951+637530045+635326123+635287816
3348+637765011+641345466+645009440+648354113+650282388+649856555+647854190
3338+645682562+643632684+641724454+641027131+642510419+645589392+648493831
3328+649585955+648723599+647504601+647361691+647675944+647152784+646179961
3318+645807431+645630224+644531789+642685102+641669740+642688369+644924288
3308+645970682+644496525+641931209+640703896+641658976+643643523+644823175
3298+644393630+643325633+643017766+643586879+644239214+644691030+645254056
3288+646071053+647018857+647791904+647876685+647203637+646569491+646495623
3278+646173725+644849085+643619247+644058740+645727996+646772237+646299039
3268+644989470+644084204+644227930+644702092+644117611+642387480+641131510
3258+641855263+644634461+648297172+651119651+651725216+649951135+646732964
3248+643370696+641115994+640638195+641457789+642412795+642865280+642930610
3238+642570181+641398695+639607836+638318905+638499157+639914516+641657417
3228+643146273+644058072+644155324+643790590+643613308+643404401+642347539
3218+640630177+639478513+639360548+639394697+638771835+637467982+635496649
3208+633077360+631514785+632148486+634375274+635927901+635358491+633475131
3198+631982340+631574770+631942548+632761326+633585672+633461991+631870388
3188+629521478+627452001+626154236+625908729+626659133+627160912+625729294
3178+622476973+619603455+619007282+620473569+622272000+622885657+621864133
3168+619699000+617508701+616184135+615570255+614765212+613232926+611317569
3158+609765796+609280275+610020286+611020429+610771729+608938443+606913956
3148+606295474+607303523+608719328+609129868+608334995+607285297+606548998
3138+605580889+603874217+601938296+600371824+598907986+597235019+595842562
3128+595329832+595593380+596077415+596297607+596119100+595927082+596236175
3118+596925852+597334127+597089845+596398832+595509156+594245057+592345959
3108+590179638+588624079+587967401+587417589+586156535+584502461+583499571
3098+583610929+584320465+584907284+585062294+584655429+583491553+581726901
3088+580154675+579515369+579732665+580275498+580971745+581838964+582289073
3078+581392938+579236083+577195597+576370063+576375148+576111972+575236996
3068+574427238+574287446+574403333+573702631+571593920+568644159+566140721
3058+565034936+565349114+566480696+567738262+568548762+568683617+568446870
3048+568134993+567442866+566096512+564686980+563988951+563858625+563493927
3038+562339108+560413655+558276510+556814157+556596007+557301794+558007321
3028+558012629+557345446+556558813+556020658+555513199+554723226+553844315
3018+553249403+552801188+552044102+550931265+549798346+548776674+547827904
3008+547106564+546670375+546119079+545107614+543959440+543301685+543315494
2998+543631379+543739693+543258256+541942636+539842721+537628702+536311560
2988+536228228+536697304+536988840+537024734+536853911+536296304+535375411
2978+534365506+533339379+532162994+530857470+529683126+528897422+528336771
2968+527299843+525385154+523377853+522509224+522863194+523263043+522783053
2958+521697276+520752515+520171894+519722936+519234297+518610878+517674989
2948+516379079+514999577+513906079+513248176+512903523+512628692+512286043
2938+511956906+511763032+511597740+511095367+510020725+508773962+508178679
2928+508514312+509032498+508715833+507302812+505364329+503624213+502299832
2918+501097946+499889267+499053005+498901225+499178060+499398030+499294986
2908+498802747+497958097+496954650+496074551+495497160+495180829+494835582
2898+494069774+492731325+491080035+489551202+488460042+487887328+487621999
2888+487233063+486457009+485493169+484655386+483900342+483041772+482239549
2878+481860264+481862528+481632983+480640189+479187116+478179030+478055014
2868+478322570+478273833+477735491+476944850+476099902+475215015+474234916
2858+473224269+472377503+471761211+471198259+470520572+469829930+469414861
2848+469387579+469464898+469235612+468551243+467481464+466146505+464817002
2838+463838871+463270352+462850421+462311597+461534986+460588407+459724454
2828+459101407+458508908+457586604+456288356+455034391+454354848+454264759
2818+454100098+453275010+452016702+450927806+450137944+449391326+448670024
2808+448202060+447974371+447707111+447280722+446756449+445991456+444747328
2798+443224397+441960632+441128417+440383655+439477461+438615996+438088382
2788+437795956+437327102+436476587+435512932+434812008+434372330+433831761
2778+432892494+431687563+430707799+430232041+429929333+429329447+428517685
2768+427891185+427445864+426851844+426032435+425135335+424112661+422832861
2758+421481198+420429682+419773152+419274603+418681510+417911359+417040799
2748+416234456+415572730+414952244+414288365+413689370+413222112+412684958
2738+411883218+410953416+410145292+409459995+408764713+408064717+407371699
2728+406502216+405339305+404147106+403321833+402914782+402612334+402087726
2718+401249721+400265650+399409382+398781546+398190346+397413884+396496517
2708+395647339+394942146+394310189+393742487+393329014+393090931+392876122
2698+392445315+391694205+390804752+390079292+389609287+389255652+388909143
2688+388521840+387928933+386972925+385811201+384823011+384210468+383837122
2678+383425802+382839614+382164785+381512116+380845045+380111678+379405483
2668+378844350+378403002+377960725+377419154+376729366+375885235+374957438
2658+374140701+373650875+373423036+373080945+372445314+371799586+371388155
2648+371046472+370586378+370083931+369569160+368905838+368120839+367447383
2638+366993933+366645642+366263982+365821594+365361834+364881101+364324534
2628+363751783+363312662+362958580+362447893+361732603+361047232+360557220
2618+360181164+359750989+359151883+358391493+357656197+357174945+356935785
2608+356637865+356008619+355147376+354462302+354221509+354251316+354153172
2598+353733279+353135954+352625935+352330317+352174416+352007750+351734626
2588+351316106+350734965+350041020+349388611+348925139+348622950+348316530
2578+347931158+347550722+347231830+346909671+346513385+346008525+345341788
2568+344523752+343736118+343206128+342964258+342799820+342494847+342096520
2558+341850122+341828704+341816492+341643590+341401795+341193704+340893965
2548+340335876+339619882+339086477+338971630+339150694+339264947+339086923
2538+338703072+338334959+338068665+337814584+337469708+337046214+336647961
2528+336346960+336091913+335794365+335517417+335443402+335591359+335736978
2518+335717676+335655279+335737832+335901417+335890801+335587981+335129001
2508+334689360+334308924+333961673+333644896+333332686+332962346+332538295
2498+332172410+331964505+331867289+331705003+331338561+330794207+330235041
2488+329852118+329751711+329870492+330008576+329983261+329742022+329355685
2478+328966897+328698561+328550418+328417160+328212447+327924326+327578077
2468+327229861+326969246+326854622+326856218+326890368+326870769+326714237
2458+326387624+325987477+325661570+325423486+325176272+324921782+324767365
2448+324713728+324603409+324308348+323862471+323410617+323102415+323019491
2438+323127805+323285822+323342021+323227507+322932743+322478440+321994144
2428+321693143+321631636+321641622+321630152+321750233+322130038+322610102
2418+322902342+322920494+322829477+322776619+322693769+322443436+322063965
2408+321766714+321756914+322068531+322470644+322616746+322425507+322154573
2398+321984233+321802905+321535275+321363635+321461927+321758844+322051159
2388+322147966+321885458+321166123+319964459+318207565+315804460+312915389
2378+310016407+307527427+305464521+303562489+301647151+299788160+298155578
2368+296835188+295815372+295083212+294625679+294394611+294475383+295305946
2358+297458718+301039842+305660047+311232269+317997024+325296056+331380803
2348+334772693+335360848+334434350+333440851+332465021+330660948+327709591
2338+324045988+320265126+316767372+313693892+310985017+308569756+306542094
2328+305096241+304271877+303852781+303618632+303604583+303942369+304520075
2318+305001717+305192993+305256615+305504442+306027565+306657888+307292666
2308+308022339+308856243+309571532+309959949+310045954+309998441+309998553
2298+310196974+310627001+311164953+311682211+312160456+312583691+312854105
2288+312925411+312925300+313041632+313308074+313558444+313603767+313422290
2278+313148981+312930459+312827862+312801544+312748946+312611939+312452177
2268+312363499+312350841+312380128+312470737+312615985+312694158+312606445
2258+312416802+312229090+312061422+311955409+312018698+312257078+312551286
2248+312820178+313026042+313117207+313153175+313317837+313649312+313955250
2238+314114492+314269502+314624845+315187834+315799078+316361510+316910950
2228+317447435+317881063+318244461+318788297+319727861+320996451+322349190
2218+323636340+324850847+325961754+326917650+327865047+329131669+330887822
2208+332981240+335138392+337196324+339146425+341052019+342958802+344891642
2198+346877117+348890692+350862730+352800804+354785017+356824353+358833473
2188+360712305+362373765+363778286+364980952+366097316+367207703+368271691
2178+369159029+369825209+370361212+370796622+371013176+370886599+370373165
2168+369525211+368502165+367451058+366379311+365182881+363696921+361804392
2158+359588517+357208315+354688433+352049361+349359286+346529495+343471011
2148+340320769+337191907+334342925+332812310+333812676+337250333+341793107
2138+346416021+351027800+355763000+360498423+365000960+369162704+373121516
2128+377179103+381626481+386685733+392390527+398461169+404586562+410756721
2118+417053605+423358879+429479632+435341849+441056220+446979573+453541415
2108+460976934+469626553+480436070+494550729+512314996+533007421+555255183
2098+577080787+596122590+611003874+622080168+630179158+635638148+638732637
2088+639751191+638583121+634655377+626982887+614812910+598616080+579615182
2078+558773167+537075365+515690924+495317948+476280859+459020041+443819382
2068+430636641+419409569+409962293+401922286+395137876+389594477+384930805
2058+380741630+377031183+373869359+371157756+368882750+367054066+365582471
2048+364492054+363861656+363656869+363986192+365135740+367283427+370785449
2038+376545811+385527647+398228802+414831123+435255213+458862395+484442321
2028+510441139+535183467+557273509+575802212+590292258+601098397+609434803
2018+616134840+620881511+623050689+622563350+619739423+614951476+608431802
2008+600123496+589824777+577559663+563641737+548419957+532235822+515641778
1998+499414473+484257133+470436793+457579997+444984781+432433142+420480313
1988+409757951+400455887+392515916+385760311+379794716+374237657+369077960
1978+364584110+360928747+357983923+355417234+353057744+351149106+349966336
1968+349168716+347945931+345987219+343866184+342233416+341110445+340196196
1958+339407114+338773524+338149845+337382589+336570493+335951862+335665821
1948+335780519+336484264+337884442+339329497+339453216+337713842+335297411
1938+333665312+333092041+333006184+332929607+332762941+332590819+332480352
1928+332550433+333194936+334672433+336370531+337418298+338042868+338881541
1918+339269810+338057418+335815597+334298419+334319466+335280002+336050859
1908+335929516+335085868+334196489+333684985+333491742+333452692+333637695
1898+334243520+335132453+335766525+336095625+336941797+338566733+339652955
1888+339011719+337422938+336305498+335923948+335815560+335756132+335747372
1878+335771239+335838537+336117043+337243169+340274407+345406895+350373980
1868+351494501+348039212+343253826+340153175+339151547+339165393+339256744
1858+339129684+338887369+338764578+338943976+339585769+340909296+343130813
1848+346531091+351149885+355410478+356076992+352396315+347860854+345519552
1838+345319034+345635625+345832728+347186433+351022752+356121127+359127644
1828+358886999+357547549+356261327+354098199+351093093+348869423+348298082
1818+348702868+349198560+349935564+351694092+354399979+356573835+356834672
1808+355621613+354665716+355427033+358308198+362339727+365443904+366114057
1798+365205339+365277536+368292256+373673258+377457016+375696669+370224353
1788+366070256+365412910+367027081+369093922+371046027+372606189+373211271
1778+373501915+375622356+381172957+389051792+394829340+394672660+390138832
1768+384871414+380967501+379924782+382358585+386208341+388226778+388328745
1758+388582530+389200641+389881149+392439933+398609089+406462610+411154009
1748+410652973+407671920+405446691+405353670+407200690+409581523+410949407
1738+412316364+416931000+425321526+431470044+429482230+423168457+417702711
1728+414094936+412554521+413406929+416097894+420490706+428191889+440330537
1718+453466211+459512874+455690549+448211489+442807584+441491481+444587492
1708+451458650+459792197+466647690+472485297+480977975+492866737+502537916
1698+505641648+504088984+499212210+492974531+489961333+492343354+498699147
1688+507747093+520768179+537015343+547112429+544226550+536854282+533618776
1678+536395636+543530303+551312406+557039657+562437809+569587732+575548130
1668+576225446+574586777+576301504+581913128+586950257+588046688+587686964
1658+590638433+600094765+616826336+634584108+638359143+630717017+627679914
1648+631649900+634313731+628711163+619729364+614526571+614895129+620455381
1638+630257480+640018673+641276350+632774244+623929601+620711021+622479089
1628+626093434+629618211+633179364+635960715+636035696+634930654+636891519
1618+642722741+647056125+644574030+638690321+635270370+635685215+637965455
1608+639737680+640382220+640665069+640993872+641031511+640621268+640257202
1598+640578358+641712428+643110638+644023031+644194077+643979824+643869134
1588+644073736+644495412+644941215+645324435+645926287+647854562+652770273
1578+660895544+668216142+668924602+665214377+664237842+667699219+671373363
1568+671620281+670518357+671277595+675178687+684255104+701310986+721986819
1558+728278915+717244157+705430043+699111295+697421401+698972840+702394276
1548+707389200+715602073+728215292+743845570+759907397+771850464+771241781
1538+759895147+750948426+749715322+752382939+753140099+752077744+753745738
1528+759623508+767079666+773792176+780524729+787493585+792042186+793251757
1518+793032159+791321700+787490764+784178681+785152766+792024889+804159343
1508+817521779+821580925+810966730+797791524+791419473+791774630+795820562
1498+799822247+800352311+797631688+796314249+800231302+808293545+814417787
1488+813313265+806948192+800602867+797097318+796604002+798371031+802115108
1478+808181147+816554895+826034946+833409813+833674845+826028859+817238187
1468+813450383+815002491+817766766+818006854+817738778+822006015+832878710
1458+845885468+849638900+840405691+828464480+821250043+819680045+821647072
1448+823394427+822172755+818920880+816328393+815759057+817576715+822245584
1438+828949704+833709886+833140550+830062541+828599595+828528845+827153055
1428+824079130+821934746+822497772+825186325+829107164+833910850+837505707
1418+836402076+831225415+826155213+823113062+821228366+819315384+817550806
1408+817305002+819203507+821631630+822658202+823103411+825012829+828273316
1398+831062462+832313234+831770401+829444208+826799604+826067760+827504649
1388+828618897+826780080+822988118+821019087+823052855+828152307+834127181
1378+839826110+845313608+850298213+853695596+855348222+856576872+858172112
1368+859843892+861961846+865457818+869291650+870338266+867395521+863059538
1358+860100312+858716207+857570259+855883038+854006582+852419137+851129166
1348+850180099+849905862+850538301+852215946+855137756+858889183+861924652
1338+862724425+861393401+859308557+857674861+857013618+857427795+858694232
1328+860124811+860845594+860604689+860254803+861174916+863989080+867731525
1318+870589267+871872482+872670102+874095855+875848629+877159832+878300286
1308+880012006+881980815+883212880+883667220+884201144+885141303+886104697
1298+886797715+887016422+886408927+884948208+883079027+880964488+878207117
1288+874667567+871056599+868280222+866419134+864727532+862637269+860369204
1278+858358228+856575461+854823504+853377483+852802357+853120098+853610222
1268+853715046+853794036+854518828+855765815+856636857+856581029+856085338
1258+855965442+856273755+856505677+856720672+857591863+859312343+861282785
1248+862893541+864011278+864811273+865554402+866396491+867365454+868660324
1238+870633365+873244932+875964590+878435623+880769092+882997884+884756895
1228+885907520+887069874+888867860+890980172+892752990+894304726+896001822
1218+897419186+897997431+898283175+899569805+902539499+906682980+910813767
1208+913879377+915529702+916358057+917478096+919442747+921849118+924228318
1198+926589552+928828219+930624645+932279128+934530711+937237972+939419846
1188+940918798+942651602+944845502+946653362+948066494+950450074+954193855
1178+957473347+958551737+958059090+957869261+958868736+960879193+963788531
1168+967732013+972323079+976235827+978074198+977767222+976521794+975534197
1158+975460107+976734191+979422595+982823838+985954556+988408885+990246292
1148+991571303+992919180+995103874+998135929+1001139476+1003519418+1005319631
1138+1006807151+1008772396+1011996951+1015499011+1017065520+1015946447
1130+1013124414+1009758582+1007074707+1006710269+1009750490+1015302724
1121+1020491114+1022638244+1022064676+1021693854+1023571869+1026949876
1113+1029683120+1030457429+1029448303+1027980679+1027808743+1029642882
1104+1032449252+1034679232+1035625700+1035275220+1033839444+1032189342
1095+1031632181+1032691344+1035070098+1038517221+1042644667+1046513762
1087+1049350718+1051505717+1053827753+1056215193+1057662402+1057546812
1078+1056316010+1055095897+1054767911+1055073329+1054660191+1052725532
1070+1050628068+1050707280+1053751213+1058447772+1062735499+1065162286
1061+1065746841+1065584852+1065241796+1064697181+1064846475+1066793383
1053+1069829966+1071984223+1072027579+1070293364+1068441555+1068113717
1044+1068974069+1068976073+1067314390+1065537340+1065376093+1067204071
1035+1069801384+1070955276+1069886165+1068585875+1069342515+1071875464
1027+1073741823+1072548957+1067578383+1061189999+1057612216+1058649256
1018+1062145079+1065409129+1067763534+1069064343+1069044818+1068213049
1010+1066648098+1063159253+1058166185+1054614757+1053937552+1054000432
1001+1052451591+1049765266+1047500765+1045796914+1044158615+1043180373
993+1043692991+1044913103+1045249478+1044555347+1043834490+1043266564
984+1042115123+1040138593+1037892874+1035829708+1033796460+1031309466
975+1028118540+1024507499+1021273070+1019403147+1019203148+1019612425
967+1018850292+1016137463+1012437335+1009040843+1005895574+1001923213+996738906
957+991262173+986557374+982813445+979715169+977184597+975479929+974793890
947+974744670+974453728+973452620+971942309+970084933+968077074+966723333
937+966541819+966653326+965990301+965100476+965336035+966911751+968746187
927+969626583+969210253+968284126+967935427+968305433+968543219+967725555
917+965334773+961732046+958628426+957871860+959369699+961169986+961730339
907+961082904+959885731+958716250+957984183+957558944+957021753+956456723
897+956156205+955645740+954234463+952507227+952086220+953619025+955642028
887+956067193+954671580+953057038+952095648+950873086+948485720+945487221
877+943007725+941530896+940852726+940510114+940312120+940624813+941536612
867+942018272+941300310+940676186+942066602+945164135+947616534+947984758
857+946929826+945537555+944255008+943303195+942951229+943126878+943320789
847+943185749+943190352+944276240+946193453+946946827+945144758+942185606
837+940676112+941397711+943115742+944871412+946851505+948891805+949885489
827+949442953+948733306+948689134+948836794+948651198+948548526+948652757
817+948213413+947165757+946869248+948602720+952132025+955981744+958724119
807+960092189+960649127+960579566+959729607+958468070+957476687+956767783
797+955986644+955422950+955490730+955751901+955786274+956249894+957404899
787+957787228+956090355+953437586+952225269+953251395+955376179+957252709
777+958224196+958379652+958366512+958491604+958237930+956939942+954371656
767+951234999+949504348+951186150+956245662+962123804+965315546+963817929
757+959185290+955324509+954111524+953719247+952132025+950310803+950324685
747+952369811+954564157+954687170+952777085+951628984+953178196+955857320
737+957124648+957249740+958388264+960980900+962936494+962100122+958836962
727+955768902+955031564+956314259+957742684+958064806+957340237+955789317
717+953289183+950753042+950633741+954265198+959209417+961497526+960393301
707+957730881+954393334+950541982+947273106+946097463+947240144+949608876
697+951790230+952002033+948210963+940194897+930746174+923406274+919713866
687+919086179+919889441+920403618+919600356+917820633+915943509+913715755
677+910752297+908205689+907630266+908469905+908012446+904558716+900226149
667+899224595+901357323+902990499+901875657+897796541+891775119+884779983
657+878411495+875424504+876911133+880271248+881568345+879534503+876149147
647+873559852+872372702+872632092+873659926+873696302+872105665+870640195
637+871567064+874417531+875039873+870171526+862532890+857777385+857555857
627+858717543+858699652+858569734+859276560+858920066+856153489+852591593
617+850288785+848911361+846279527+840980150+834451678+830626532+832646269
607+840594332+851213204+857902700+855437457+848455907+847070688
##END=
