##TITLE=<SNM>
##JCAMP-DX=4.24
##DATA TYPE=INFRARED SPECTRUM
##DATE=2/5/2025
##SAMPLING PROCEDURE=Instrument type and / or accessory
##ORIGIN=Admin
##XUNITS=1/CM
##YUNITS=ABSORBANCE
##RESOLUTION=4
##FIRSTX=4497.3318
##LASTX=599.83466
##DELTAX=-1.4281778
##MAXY=1.7973872
##MINY=0.23694432
##XFACTOR=1
##YFACTOR=1.6739473e-09
##NPOINTS=2730
##FIRSTY=0.25475451
##XYDATA=(X++(Y..Y))
4497+152187892+151809975+151685812+151632473+151413185+151082946+150891504
4487+150875623+150818705+150643873+150575578+150796361+151122043+151285391
4477+151433161+152005636+153199440+154739222+156007499+156336492+155522510
4467+154148658+153164278+153145727+153999820+155072381+155487170+154823504
4457+153514921+152289034+151460080+151065819+151270240+152159762+153371263
4447+154296001+154587090+154279853+153596443+152825119+152249795+152036009
4437+152179952+152536273+152830585+152747015+152204058+151571816+151407186
4427+151806895+152099284+151429476+149788124+148203798+147685446+148240874
4417+149187395+150077504+150858567+151406812+151491521+151112660+150577305
4407+150338986+150757710+151719604+152578593+152779702+152329467+151455505
4397+150279611+149098341+148388457+148215246+148171253+148120940+148389436
4387+148959535+149190172+148727500+148048809+147648806+147293267+146513229
4377+145405923+144607209+144650249+145433822+146281123+146617487+146584861
4367+146804879+147569508+148436242+148631939+147773440+146204282+144768536
4357+144201393+144521707+145088681+145347830+145313576+145288562+145455658
4347+145796944+146087134+146014718+145512496+144820629+144217434+143912556
4337+144054584+144608935+145311493+145804511+145836762+145502446+145229855
4327+145306161+145526534+145441299+144762216+143578818+142391450+141712785
4317+141548253+141612462+141895548+142525422+143327929+144033603+144653169
4307+145242922+145600437+145545931+145310300+145364975+145888829+146553438
4297+146799297+146292562+145263334+144461415+144517576+145206327+145651694
4287+145383446+144800040+144464513+144400001+144299491+144120876+144170877
4277+144661296+145329964+145573384+145072586+144257394+143927039+144397135
4267+145216778+145760705+145874399+145798627+145718591+145734347+146053219
4257+146730246+147362844+147476582+147138785+146956984+147509510+148705504
4247+149643328+149434331+148251449+147080683+146485517+146253865+146174096
4237+146408561+147020881+147694819+148060764+148049049+147876069+147811931
4227+148017145+148469757+148857956+148712501+147973731+147312522+147511202
4217+148576446+149789549+150489373+150530197+150170706+149783460+149546013
4207+149306536+148889246+148450734+148284635+148399442+148570054+148712777
4197+148981362+149498299+150089148+150349366+150078306+149558707+149201691
4187+149074199+148978701+148800104+148537322+148221842+148059090+148334815
4177+148981416+149589703+149981703+150425067+151141289+151870792+152084346
4167+151581661+150758012+150133657+149755401+149385175+149107056+149254051
4157+149824230+150363911+150392628+149823785+149099881+148842396+149219361
4147+149840182+150311462+150601536+150813773+150907883+150829939+150810301
4137+151245315+152099141+152697058+152517775+151918114+151578795+151576997
4127+151523942+151259362+150855273+150274092+149597999+149309670+149784955
4117+150704868+151455843+151924915+152430805+152985370+153121336+152570456
4107+151726618+151196818+151242466+151878483+153003921+154120333+154492179
4097+153922339+152948819+152151947+151656775+151308536+151039719+151051362
4087+151603186+152570171+153403078+153585850+153014514+152061647+151344179
4077+151222206+151494049+151705788+151602509+151190605+150666395+150317978
4067+150260187+150372582+150587275+150971656+151433802+151645220+151425434
4057+151037084+150919811+151167531+151416141+151289575+150871581+150672092
4047+151124731+152056377+152670050+152282714+151115455+150072502+149726915
4037+149848977+150020746+150350559+151231019+152593031+153814520+154369477
4027+154274156+153858192+153417606+153228389+153559038+154359934+155115092
4017+155253800+154602384+153416342+152272174+151785192+152052389+152631024
4007+153265741+154066548+154818466+154951103+154442311+154003309+154174687
3997+154824395+155516493+155887894+155781517+155417522+155273776+155531003
3987+155883852+156039723+156019338+155872262+155553186+155227024+155329234
3977+156120694+157325483+158325388+158691110+158467745+157956514+157394596
3967+156994816+157102724+157949268+159199171+160074433+160122004+159558092
3957+158741636+157871395+157395433+158065330+160091560+162491613+163817413
3947+163773829+163536098+164040546+164725771+164443228+163044540+161384370
3937+160408910+160896319+163121113+166156702+168145775+168077054+167010813
3927+166765212+167765098+168655796+168294240+167597887+168222153+170042253
3917+170940445+169303438+166028053+163227988+162006660+162257513+163983342
3907+167903344+174329703+181712099+187046330+188363976+185852758+180722894
3897+174912932+171108280+171245813+174609095+177479537+176981143+175502783
3887+176776953+180217520+182459459+183035762+183598374+182865025+179185195
3878+175575315+175924302+180097275+185456289+190144427+192736171+191986336
3868+189758836+189190029+189959857+188991696+185363336+181708324+180796619
3858+184058562+192219671+203778351+210608140+204907171+192920350+183372785
3848+179312153+180575533+185278929+190891200+196022203+200750293+204442746
3838+204939948+201835335+197758911+194616127+192185773+190191838+189186219
3828+189163661+189658121+191760462+197195515+204040331+206683474+204252052
3818+201203395+198655573+194686202+190008692+187456686+188624817+193239498
3808+198944062+202983953+206166332+210821516+215086231+214779938+211208229
3798+208441831+206615553+204330245+202435263+202499499+204465642+207497901
3788+211409089+216139938+221038106+226062252+232506201+240807709+248905561
3778+255055109+260939793+269411610+281588290+296657505+312145711+325096457
3768+334603412+341111810+344399676+345459347+347046398+350190339+353082430
3758+354776801+357689402+365155884+378871401+397038856+412890310+421352513
3748+426824883+435569416+447602527+456720046+460844788+465376166+474684789
3738+489657028+507984894+524332391+533753960+536494472+537437743+541564444
3728+550447098+560965512+567812001+569384702+568268059+566310622+563624412
3718+560774515+559254121+560514618+564492659+567754958+564972537+555940583
3708+546417640+541686435+543403594+549019105+553134163+552656207+549965047
3698+548870587+551096930+556628408+564815866+574533544+582834411+584595688
3688+578537009+570691025+566485560+567170038+571773841+578553068+586493696
3678+594795560+599163180+595041463+587588298+584006744+582349084+576725526
3668+568170637+561783233+558987388+558787916+560381447+563205564+566299975
3658+568314491+568249080+567363706+568832077+574132999+580641539+582220542
3648+575890073+566182899+558607102+555317207+555670110+557440930+558718660
3638+559546564+561137317+563940105+567803206+573053886+579611208+584743814
3628+584350354+580001428+577246246+579239860+586424547+596300144+603287994
3618+604226244+602255526+600957856+600629984+600829242+602211729+604940882
3608+607850064+609963425+611358873+612694501+614700470+617458963+620486362
3598+623687026+626995009+629374784+629610076+628422005+628205656+630206070
3588+632726636+632712108+629344375+624551427+621025669+620900047+624417900
3578+629193329+632082786+632142463+631190753+631714393+634742646+639269822
3568+642983017+643957872+642141902+638815901+635187808+631797144+628748666
3558+626626831+626742554+629448135+632703277+633823624+633020609+633038128
3548+634653415+634876174+630750719+623834083+618613706+617552610+618866589
3538+618463515+614492239+609566903+607583224+609786600+614305016+617956040
3528+618287116+615144777+610708400+607659423+607284479+608920204+610766653
3518+611378457+610584914+609325985+608678075+608480028+607431323+604997853
3508+602433918+601275615+601399029+601202620+599603570+597313633+595672815
3498+594949704+594309094+593232438+592577549+593580249+595953721+597778272
3488+597379399+594870371+591636165+588773450+586553018+585162519+585112705
3478+586440356+588267756+589578031+589847898+588997455+587491731+586096390
3468+584748621+582464915+578920570+575237856+573040284+573097682+574620106
3458+575966985+576263593+575720369+574610314+573314744+572925984+574056906
3448+575382991+574962790+572756280+570502591+569580079+569763598+569625976
3438+568067163+565709109+564307928+564661508+565893910+566785801+566828387
3428+565880736+563969802+561702796+559957080+558983578+558364047+557661125
3418+556626378+555107979+553347058+552178642+552215104+552874550+553038913
3408+552618427+552320608+551960263+550592696+548405272+546777914+546222263
3398+545739607+544553637+543228513+542476275+542058530+541633024+541600408
3388+542129638+542354889+541617357+540542481+539963650+539762077+539534333
3378+539575353+540393109+541602900+542059563+541050489+539017423+537124221
3368+536343497+536851826+537875000+538314037+537879522+537198854+536664995
3358+535998961+535155248+534710620+535085315+536029441+536985745+537635826
3348+538048051+538286869+537955152+536698537+535275351+535182665+536826759
3338+538796302+539379584+538280851+536462568+534996440+534479138+534808576
3328+535060141+534168001+532161533+530257579+529416429+529192388+528568300
3318+527735910+527841378+529025675+530086343+530141107+529503382+528885774
3308+528635705+528629509+528423806+527749049+526902024+526349506+526203516
3298+526363713+526906973+528118224+530036315+531847086+532283773+531256860
3288+530270825+530562982+531715232+532444291+532047911+531005544+530384946
3278+530442772+530230410+529199332+528298682+528544194+529451431+529676753
3268+528619752+526945464+525839005+525972710+526845479+527224625+526514581
3258+525360052+524767512+525038447+525641349+525761773+524989345+523757192
3248+522867153+522425659+521802568+520864567+520308097+520441909+520630485
3238+520230509+519352861+518656811+518746150+519575015+520372581+520300049
3228+519029049+516919534+515059768+514539118+515076289+515103849+513691381
3218+511454178+509406548+508071989+507644987+507941239+508242014+507826833
3208+506621920+505199660+504196390+503693295+503264193+502637398+501900471
3198+500996367+499648242+497959497+496625472+496311523+496879921+497415169
3188+497203947+496350085+495133065+493471881+491567285+490176609+489582965
3178+489136236+488350207+487623961+487380728+487301182+486871046+486043712
3168+484958012+483519622+481606266+479324270+476892438+474615497+472979415
3158+472295294+472209053+471973440+471309044+470698843+470636566+470818020
3148+470466541+469432187+468414816+467903212+467525526+466727318+465501574
3138+464256710+463340215+462751698+462106282+461027418+459691577+458667868
3128+458246386+458238979+458296912+458091316+457398399+456398548+455615794
3118+455219485+454748722+453886528+453056986+452768140+452802964+452524124
3108+451616460+450153714+448371857+446773555+445938778+445816503+445713100
3098+445246182+444741200+444476710+444161514+443484158+442678010+442141551
3088+441826107+441401989+440845376+440429448+440231935+440040190+439646801
3078+439028268+438377652+438018375+438038315+438080118+437816981+437382465
3068+436972270+436405581+435464054+434320065+433297140+432423908+431460839
3058+430350854+429455119+429098085+429010384+428575086+427577335+426410165
3048+425550001+425045304+424573117+423879132+423018683+422191170+421595568
3038+421458088+421814303+422234754+422108918+421169599+419586892+417820382
3028+416467164+415849628+415643746+415223011+414362349+413357655+412617808
3018+412361364+412529680+412870975+413166408+413266287+412945928+412072447
3008+410909337+409842188+408847250+407638135+406237880+405032646+404303837
2998+403914365+403443958+402634178+401693399+401055852+400867774+400828357
2988+400467798+399532716+398260577+397241426+396744456+396349714+395598650
2978+394706938+394156842+393897728+393442454+392555228+391453006+390458638
2968+389755075+389395762+389292537+389176742+388749918+387989917+387202356
2958+386656248+386308187+385980316+385593977+385069874+384263869+383222215
2948+382242161+381521185+381008299+380643574+380464078+380448731+380423699
2938+380113845+379353239+378343773+377538907+377160652+377009000+376749673
2928+376157809+375183702+374009411+372896649+371940203+371142245+370546642
2918+370126370+369782546+369508264+369287535+368959236+368450088+367857263
2908+367126852+366111582+365054688+364456309+364371136+364349487+364065982
2898+363531482+362798542+361932717+361167125+360734319+360602751+360531144
2888+360284137+359773992+359105039+358430602+357765245+357075355+356460810
2878+356051113+355842134+355740511+355603601+355246140+354627072+353966415
2868+353493516+353188575+352856680+352351948+351684597+350966968+350296377
2858+349727730+349322092+349100508+348942269+348642314+348097666+347392998
2848+346703215+346140015+345721238+345442256+345255816+345005426+344538045
2838+343894765+343286878+342882060+342661544+342464921+342142533+341653930
2828+341016240+340235409+339372396+338597939+338041932+337626538+337172118
2818+336621203+336044650+335518553+335136844+334993667+334967068+334709272
2808+334044734+333170576+332366957+331771568+331419946+331197045+330821958
2798+330137587+329299144+328547581+327982281+327593664+327302574+326937422
2788+326345416+325584383+324927714+324593647+324477674+324247687+323685876
2778+322814602+321748913+320615214+319568646+318715497+318018734+317361496
2768+316700839+316105735+315626711+315205620+314784137+314401857+314078686
2758+313707516+313179924+312516953+311791206+311029389+310285233+309713986
2748+309428737+309303328+309095061+308758181+308396340+307929422+307158098
2738+306174876+305321370+304703941+304113573+303449925+302904600+302649403
2728+302563696+302366254+301906351+301258940+300607256+300094298+299746914
2718+299490008+299210669+298792177+298158475+297378819+296642586+296028201
2708+295439346+294851862+294386743+294062663+293756868+293444326+293183574
2698+292871939+292321558+291596737+291022677+290797729+290748359+290532561
2688+289994411+289265834+288596471+288150793+287921483+287782116+287607925
2678+287311050+286812228+286134124+285489989+285095354+284915858+284756195
2668+284537424+284339928+284231077+284163833+284004846+283617457+282970848
2658+282207019+281553893+281113752+280775448+280416331+280130583+280102951
2648+280283249+280362493+280099765+279538684+278892946+278343900+277948251
2638+277633251+277289997+276928299+276669986+276562737+276510626+276395401
2628+276152791+275786143+275396458+275076722+274735854+274217822+273596743
2618+273124680+272911945+272848564+272789456+272676189+272517844+272323393
2608+272064065+271718675+271319037+270902539+270504112+270220482+270130681
2598+270145493+270111969+270012144+269862202+269557654+269075674+268666315
2588+268558675+268602525+268460968+268087199+267786336+267798602+267986235
2578+268026257+267823243+267558271+267347904+267090232+266702843+266289852
2568+266000757+265888826+265946616+266142652+266388876+266554966+266553791
2558+266419908+266283247+266215558+266124368+265873426+265479022+265103633
2548+264881283+264805867+264742433+264510843+264038424+263475670+263095776
2538+263033232+263149258+263164178+262906559+262445570+261997827+261708607
2528+261551864+261445042+261391827+261467617+261683664+261886198+261840710
2518+261490388+261083202+260920103+261026906+261192017+261254098+261224153
2508+261173128+261118702+261029346+260892827+260739948+260587175+260402480
2498+260173312+259963959+259844212+259797050+259755069+259694305+259617768
2488+259472063+259192137+258833429+258525160+258279309+257999508+257697451
2478+257527462+257560898+257665530+257639376+257378072+256925397+256427929
2468+256037264+255847709+255888159+256052753+256060017+255699600+255129742
2458+254697897+254509393+254413965+254311363+254211431+254105322+253984186
2448+253891678+253862534+253906135+254022980+254123339+254041514+253750852
2438+253432096+253249217+253203996+253225752+253230719+253105933+252815984
2428+252506592+252353357+252352075+252378549+252385189+252435467+252585088
2418+252784489+252889708+252797842+252592370+252486403+252585071+252782922
2408+252935553+253041769+253180263+253327731+253360240+253260682+253226553
2398+253478207+253994797+254566008+255153029+256115226+258039940+261453428
2388+266784259+274512365+285211950+299397892+317315740+338847083+363574923
2378+390873534+419906895+449624057+478881066+506578871+531658368+553099517
2368+570193449+582913815+591743165+596987648+598296642+594987234+586947510
2358+574582896+557885913+536114115+509117204+480528150+457634653+446335016
2348+448556694+462839470+484092898+504404265+518111557+524686149+526233213
2338+525224032+523151762+520487450+518044366+516825887+516391550+514907048
2328+511015853+504644472+496299381+486616953+476313179+465841339+455178145
2318+444236076+433292262+422808315+412941798+403319724+393309176+382570353
2308+371344387+360214881+349707042+340102095+331443696+323625130+316498768
2298+309932508+303817000+298106667+292839145+288033681+283592924+279394991
2288+275478782+272041882+269219919+266943690+265049706+263437606+262057878
2278+260856757+259840260+259089748+258591353+258142168+257544305+256811401
2268+256091974+255478711+254964560+254506224+254082996+253727208+253477299
2258+253268267+252944455+252451383+251934010+251554241+251286403+251003308
2248+250696249+250463093+250321055+250176081+249954158+249655467+249324249
2238+249049717+248933139+248977737+249063052+249081105+249054114+249071419
2228+249152728+249238293+249298255+249373013+249509477+249724296+249999843
2218+250271330+250478974+250657900+250897964+251225373+251618227+252092142
2208+252661982+253269193+253846386+254404227+254967213+255479049+255871441
2198+256189716+256568150+257100977+257769983+258472087+259107409+259658485
2188+260159817+260616640+261028669+261442835+261881142+262271095+262532932
2178+262683195+262806645+262962516+263126754+263211571+263147638+262938179
2168+262634502+262295147+261968665+261683255+261442585+261227874+261016972
2158+260808955+260615251+260440954+260310204+260275416+260395163+260756256
2148+261430604+262350392+263443766+264956130+267301276+270536817+274350851
2138+278574778+283351578+288802673+294822290+301221659+307918313+314944654
2128+322325181+330021009+337979263+346121357+354294038+362337856+370159022
2118+377669515+384733243+391192112+396947880+402087465+406895760+411704945
2108+416804329+422406879+428536915+435037622+441691298+448114025+453679971
2098+457966370+461209763+464000694+466607037+468746961+469814822+469084375
2088+465878584+459885743+451208152+439976809+426328518+410859380+394570100
2078+378358479+362903762+348733718+336112162+325144954+316011518+308786097
2068+303168663+298642182+294785205+291418060+288584258+286319993+284458536
2058+282820247+281431262+280376718+279659356+279269742+279178588+279326909
2048+279770611+280716464+282427606+285198348+289287198+294850563+302096636
2038+311333938+322631296+335580225+349470396+363520265+377025985+389537159
2028+400867952+410989204+420044588+428267688+435731180+442255565+447402806
2018+450478346+450896517+448682850+444407632+438654676+431651053+423318780
2008+413632293+402854480+391401305+379670926+368067666+356957602+346513678
1998+336834526+328278569+321310339+315781958+310754002+305468321+300170569
1988+295505059+291629549+288354912+285618691+283426229+281634526+280034675
1978+278529557+277181075+276106786+275313190+274727415+274415621+274493476
1968+274697398+274406220+273380233+272148721+271354858+271064463+270973237
1958+270950466+271032345+271117945+271027200+270776828+270599717+270710812
1948+271195587+272173735+273755890+275461441+276103155+275072610+273278058
1938+271996536+271567575+271630618+271875738+272205871+272561035+272860528
1928+273200719+274056789+275772969+277774363+279156992+280083937+281252834
1918+282224253+281944825+280739395+280084560+280793109+282416443+283895514
1908+284512143+284429071+284298659+284478529+284888743+285428299+286213991
1898+287420150+288894539+290097156+290870296+291871501+293380535+294308318
1888+293597597+291902230+290531422+289848422+289524752+289319369+289135957
1878+288925019+288729251+288679881+289229265+291253857+295064704+298941407
1868+299816241+296910904+292797734+289955422+288720865+288252185+287924385
1858+287621563+287421664+287400833+287587077+288062772+289036221+290764187
1848+293587360+297595988+301362628+301949329+298660466+294614825+292560394
1838+292492384+292958162+293286301+294506116+297831173+302339727+305169933
1828+305190763+304130023+303039623+301300138+299033523+297494988+297189175
1818+297462015+297759193+298455386+300228929+302828294+304835082+305100356
1808+304114071+303367601+304064328+306609996+310293138+313289096+314096454
1798+313373307+313465031+316171573+320943370+324316622+323018489+318725680
1788+315660538+315520851+317140410+318984865+320728730+322321015+323339524
1778+324202359+326607521+331961426+339408680+345042885+345299435+341461010
1768+336874157+333515219+332697890+334914477+338371619+340292950+340624347
1758+341132284+341960793+342823592+345327387+351055274+358412549+363206138
1748+363559576+361658576+360236494+360510777+362345298+364506301+365675394
1738+366861471+371033820+378736735+384652023+383258498+377561197+372206830
1728+368409959+366576043+366950809+368917611+372388712+378910854+389494181
1718+400988768+406198784+402664266+395746670+390394011+388414071+390231571
1708+395419297+402048368+407619477+412450952+419411918+428671831+435316640
1698+436358757+433872446+428687177+422196262+418357588+419120366+423384120
1688+430213054+440604387+453424987+460317552+455891536+447772338+443333575
1678+444305332+449417677+455420702+459815169+463981430+469482998+473412578
1668+472459550+470049830+471539565+477291274+483050247+485506790+486751620
1658+491012097+500980273+517253921+534720697+540602871+536235607+535171805
1648+539900589+543413706+539633357+532723238+529074208+530535814+536898151
1638+547373338+558617108+563432774+559484322+554251909+553918661+558969192
1628+566691192+574653327+582767826+590914442+597260044+601805807+607791597
1618+617117846+626500354+630688691+630744309+631267665+633884583+637280517
1608+639670689+640834689+641925339+643605502+645324477+646676769+648436265
1598+651474916+655482511+659440826+662869803+666031726+669172000+672154747
1588+674771309+676954674+678772993+680534769+682806724+686346297+692077354
1578+700167960+707810342+710615196+710397351+713339363+721378980+730783778
1568+737121510+741445582+747389998+756757337+770923393+792431448+819915253
1558+839014976+841719489+840009771+840911133+843647051+846099393+847017134
1548+847112989+849006297+854496506+862754181+871076377+874065106+865261643
1538+849709113+838512558+834016076+832039233+828114318+822983671+820566367
1528+822158509+825885091+829894253+834078460+837453100+837448115+834239761
1518+830392968+826511209+822588644+820402787+822045420+828266076+838343353
1508+848606855+850401887+840392977+828787366+822505537+821373796+823748443
1498+827270070+828215514+825210904+822169120+823171677+827781960+831350019
1488+829693927+823890160+818075640+815073309+814854111+815562552+816389566
1478+818677758+823597967+830224474+835593334+835789388+830142649+823639912
1468+821165138+823139346+826089334+826791580+827002162+830839768+839451236
1458+848483796+849307392+840735447+831132459+825398483+823708421+824550746
1448+825393284+824200655+821535952+819464038+819124060+820813766+824915079
1438+830621922+834161282+832497569+828652486+826787165+826857383+826278765
1428+824090415+821842032+820633023+820234792+820938391+823506741+826247715
1418+824923197+818884352+812287185+808095571+806150704+804932438+803592181
1408+802606003+802529092+802862375+803020899+803668879+805665805+808554620
1398+811159717+812816451+813040278+811420789+809007188+807871816+808633241
1388+809451139+808007764+805052221+804047954+806961837+812521836+818275824
1378+823301644+828296841+833345093+836887159+837900541+837672512+837751774
1368+838213101+839124362+841516243+845348579+848137480+847654219+844982038
1358+842711506+841924373+842060820+842379006+842808216+843455983+843987812
1348+844018435+843771320+844005474+845483744+848395561+851838354+854091224
1338+854192420+853073641+852475012+853369679+855691627+858759049+861736526
1328+864096717+865788915+867035667+868241471+869935877+872349193+875154972
1318+877899222+880496842+883253270+886653619+890863249+895171583+898495519
1308+900584026+902035875+903290105+904444563+905582855+906525165+906917201
1298+906947396+907141740+907387288+907171365+906664176+906447541+906238598
1288+904986220+902297446+898826808+895387719+892577951+890909111+890440377
1278+890515010+890340036+889561591+888227316+886773971+886038539+886700549
1268+888609382+890901206+892814455+894310386+895802329+897332586+898431212
1258+898832719+898784151+898752318+899363481+901070990+903268313+904593401
1248+904609211+904184345+903997336+903812819+903455607+903203864+902924418
1238+902004114+900324449+898450440+896875888+895815647+895570384+896155553
1228+896694718+896204620+894999172+894317864+894579933+895041331+895044322
1218+894615255+894066904+893918635+894821635+896815925+899186655+901511666
1208+904045050+906759817+908964261+910268697+911166854+912490802+914840097
1198+918352395+922396380+925532951+926629725+926110144+925489225+926019203
1188+928164896+931633397+935396228+938290384+940051590+941405306+943092519
1178+945250104+947637000+949915792+951623231+952380668+952527655+953367060
1168+956221051+960954749+965784586+968599268+968466381+966537323+965424526
1158+966718137+969355423+971431681+972950615+975358946+979142856+983040781
1148+985270435+985054086+983282412+981975484+982785335+985932231+990633384
1138+996138904+1001488679+1004568206+1003941590+1001430069+1000125562
1130+1000459416+1000627482+999972594+999386712+999591026+1000974083+1003684720
1120+1007012644+1010089892+1012889049+1015259067+1016254503+1015544210
1111+1014187645+1013710508+1015040794+1017703575+1019713105+1019281617
1103+1016992000+1015013448+1014545426+1015102039+1015579390+1015557313
1094+1016051755+1019017767+1025490594+1034008843+1040977322+1043045319
1085+1040355762+1037266051+1037725740+1040497621+1041155572+1038183720
1077+1034714008+1034776535+1039342095+1044996383+1046950294+1044629486
1068+1041939857+1041690820+1043262808+1045475086+1048703808+1053540554
1060+1059117075+1063669817+1066216660+1067047234+1066881803+1066270854
1051+1065542615+1064862374+1064427895+1064371991+1064223367+1062901199
1043+1060165922+1057749614+1057981631+1061393517+1066079715+1069695416
1034+1071727379+1073075896+1073741823+1072718115+1069940323+1066048095
1025+1061323299+1056723342+1054182695+1054715877+1057248407+1059757934
1017+1061247456+1062541565+1064820144+1066944970+1065517049+1059418170
1008+1052290882+1048134662+1047232873+1047701892+1048397586+1049127250
1000+1050046486+1051556304+1053387015+1054425180+1054241518+1053088057
991+1050148181+1044699703+1039301147+1038063439+1041241385+1044112682
983+1042643955+1037927562+1033090105+1029483518+1027446499+1027776650
974+1030000108+1031442059+1030396203+1028201800+1026399860+1024183452
965+1020205981+1015458040+1012393396+1011303316+1009682617+1006052031
957+1001789773+997956512+993849857+989587813+986469188+984104797+980291119
947+974451887+968852720+966241000+967319899+969811196+970460956+968501632
937+965842199+964299693+964244146+964946748+965664234+966561252+967809214
927+968263919+966797968+964399607+962566760+960835465+958356061+956417532
917+956991521+959645542+961953603+962628361+962408735+961903753+960676158
907+958943438+958090360+958791538+959955040+959675737+957178530+953761446
897+951487923+951292155+952558633+954028073+954713868+954288931+952982715
887+951308534+949967565+949449480+949339026+948742819+947549905+946387827
877+945576124+945093076+944939538+944679320+943443108+941163390+939008654
867+937980886+937809829+937504461+936375498+934351654+931950444+930214164
857+930229261+932368046+935884546+939230558+940756969+940026878+938675512
847+938846142+941001591+943811145+945301664+944200901+941365924+939395847
837+939754198+941021673+940850972+939162334+938346644+940274990+943857078
827+946192628+946061166+944782012+943416403+941412071+938859887+937737048
817+939550240+943125278+946099408+948015007+949989357+951884089+952287021
807+951376116+951087128+951906380+951981226+950434875+949221024+950043409
797+951976027+953477442+954569374+955675548+956395527+956460830+956078551
787+955120218+953392341+951530225+950845569+952207617+954965611+957098841
777+957068432+955447306+953892195+953224275+953309162+953405088+952506077
767+950727281+949591624+950064346+951314516+952153494+952421474+952283816
757+951792151+951421338+951748426+952724135+954013687+955367261+955851875
747+953935209+950354687+949452613+954702046+964042253+971317097+972397848
737+968933263+965616164+964984420+965669860+965204687+963653066+963253695
727+964681545+965967750+965020455+961796077+958641204+958089933+960394932
717+963526304+965400954+965811078+965103990+962475677+957809989+953844482
707+953699133+956440962+957584880+954710735+950035433+946788337+945363905
697+943864413+941939343+942179122+945878216+949579945+949129727+945077837
687+940270503+935111227+928443700+920985906+915642826+915010014+919239799
677+925631512+930606698+932352307+931185102+927608141+922098490+917829823
667+919154412+923977912+926274579+923465096+917587266+911794396+906413714
657+900806215+896386715+894833314+895487917+896040755+894954379+892219458
647+888494157+884934430+882261537+879555102+876363696+874792776+876058043
637+877355500+876300457+875197986+876070791+875732451+871332037+865975924
627+864403651+867330139+870684056+870073250+865747326+861655271+860615610
617+861298771+860158556+856348866+852241927+850646651+851466686+852852021
607+854595423+856769316+857796870+856364889+853775103+851652485
##END=
