##TITLE=<SNM>
##JCAMP-DX=4.24
##DATA TYPE=INFRARED SPECTRUM
##DATE=2/5/2025
##SAMPLING PROCEDURE=Instrument type and / or accessory
##ORIGIN=Admin
##XUNITS=1/CM
##YUNITS=ABSORBANCE
##RESOLUTION=4
##FIRSTX=4497.3318
##LASTX=599.83466
##DELTAX=-1.4281778
##MAXY=1.8081083
##MINY=0.29326516
##XFACTOR=1
##YFACTOR=1.6839321e-09
##NPOINTS=2730
##FIRSTY=0.31031105
##XYDATA=(X++(Y..Y))
4497+184277649+184214007+184780645+185613639+186165890+186235673+186091133
4487+185974432+185795699+185478426+185233645+185295906+185583570+185662079
4477+185119351+184176203+183624095+183895689+184600532+185132624+185292101
4467+185235326+185235644+185499222+185943514+186213851+186001935+185299534
4457+184462116+184043645+184264269+184611859+184416401+183872151+183929546
4447+184981447+186159111+186203002+184743444+182585909+181055222+181082743
4437+182480358+183984463+184385979+183721788+183065881+183183537+183694958
4427+183654624+182742679+181609543+181073575+181217337+181459039+181371787
4417+181152402+181225478+181615171+181907401+181784205+181469357+181475091
4407+181829017+181852130+181010039+179742044+179044192+179404171+180430286
4397+181404617+182001537+182316014+182417088+182346596+182398593+182818196
4387+183310751+183351085+182725512+181423590+179564250+177725687+176691891
4377+176664423+177130714+177406025+177033923+176057699+175172442+175198600
4367+176302817+177922879+179203156+179445637+178545125+177109547+176003861
4357+175782636+176490806+177748695+178963348+179608955+179430205+178465537
4347+176994209+175542508+174807915+175182265+176155534+176666406+176446047
4337+176377715+177068647+177878191+177962133+177498497+177102734+176814521
4327+176394121+175931813+175591727+175281975+174954296+174747158+174618458
4317+174372313+174154981+174339005+174844975+175240173+175553251+176224167
4307+177187136+177697034+177232655+176124668+175176566+174959287+175451487
4297+176059097+176081910+175407065+174592530+174209137+174428965+175226952
4287+176417925+177441775+177676823+177090168+176161409+175276666+174624935
4277+174442344+174870053+175708941+176594339+177183047+177193861+176712137
4267+176361114+176748259+177724714+178400302+178026961+176896339+176133128
4257+176392210+177121157+177467384+177406414+177467225+177861290+178339420
4247+178537249+178253709+177712803+177520213+178000751+178670675+178717292
4237+177957479+177031994+176667220+176980936+177489348+177628578+177230354
4227+176576482+176110616+176067680+176300463+176503389+176629629+176901984
4217+177292704+177376823+177001571+176732065+177189525+178153078+178691806
4207+178250771+177390433+177177207+177922384+178895493+179342688+179324388
4197+179325184+179462274+179464132+179257312+179240074+179828676+180793521
4187+181306482+180827325+179741283+178917191+178806118+179140841+179383075
4177+179260852+178899245+178586963+178544913+178916165+179785281+180969174
4167+181882713+181957098+181274891+180477098+179952333+179527243+179056333
4157+178765749+178734565+178634376+178397647+178534471+179304053+180148038
4147+180436286+180299940+180302843+180643088+180950167+180697846+179806678
4137+178924394+178880362+179735655+180656308+180910523+180687811+180622930
4127+180827094+180823590+180274951+179412011+178755785+178587335+178751449
4117+178992603+179347980+179953837+180584702+180786017+180436994+179850640
4107+179393216+179264763+179531968+180080998+180578791+180748356+180693616
4097+180679015+180617249+180154108+179251401+178273407+177538230+177162854
4087+177199524+177588280+178125610+178644765+179084314+179380650+179463937
4077+179365182+179213704+179101941+179013964+178917050+178818330+178670887
4067+178393754+178076569+177954753+178125203+178457343+178743396+178819551
4057+178676533+178509977+178531232+178767696+179108967+179389127+179441054
4047+179270904+179094455+179020990+178885990+178572858+178286857+178298821
4037+178543408+178746653+178932996+179461566+180433472+181334940+181460915
4027+180609833+179308531+178393329+178326253+178876450+179443284+179592425
4017+179304372+178841213+178455661+178263496+178338571+178732760+179326512
4007+179861188+180225077+180543147+180941601+181351859+181523088+181199161
3997+180467789+179884496+179974473+180637283+181301278+181623932+181773020
3987+182063038+182592245+183200227+183545339+183309707+182584600+181972530
3977+182063888+182868884+183868063+184484362+184446453+183901689+183299229
3967+183105967+183571266+184591134+185666911+186247531+186293121+186213108
3957+186215391+186153058+186056852+186420759+187702063+189499442+190515594
3947+189994474+188934095+188807873+189485231+189531794+188409631+187069782
3937+186569918+187382985+189539776+192313521+194006145+193376555+191356941
3927+190050471+190259892+190870103+190754570+190613411+191886149+194394635
3917+196012716+195028721+192244251+189764877+188722161+188975686+190423387
3907+193749170+199381169+205910299+210439957+211340859+209173254+204921633
3897+199887085+196348925+196155627+198735172+200933465+200559151+199854432
3887+201814757+205464875+207451729+207429394+207272731+206229201+203076310
3878+200320033+200885928+204230772+208156731+211706483+214045865+213803048
3868+212293404+212437165+214002700+213789721+210523244+206733347+205383375
3858+207990033+215125606+225185445+230734936+225248663+214831977+206944574
3848+203676132+204585582+208239257+212990229+217963099+222862487+226448042
3838+226666666+223652351+219987863+217128601+214752035+212779498+211879163
3828+212019243+212729094+215179833+221102115+228324372+230948268+228371078
3818+225503072+223129268+218609114+212817815+209409223+210380793+215202061
3808+220896853+224305799+226577769+230779234+235521286+236370846+233744030
3798+231223632+229067018+226210871+223997003+224388697+227235110+231117320
3788+235348553+239962188+244774555+250037726+256936145+265671940+274187801
3778+280984014+287813250+297191113+309755422+324476027+338957885+350178416
3768+357049898+360530646+361532957+361476217+362421223+364718784+366498005
3758+366927926+368428579+374057516+384608460+397423762+407315347+412894942
3748+418932314+428779477+440112390+447456729+451379468+457842691+469694335
3738+485288055+500285139+511523475+519598212+526272078+532509049+539334091
3728+547885685+557918181+567485183+574782516+579093196+580692286+581243120
3718+582344541+584217278+587014385+590735932+592443369+588162104+579424503
3708+570738015+564095192+559896505+558260179+558346333+558663092+558683905
3698+559066290+560706191+564089705+569095423+575129398+580787147+583508754
3688+582134854+579212941+577707615+578056939+579017165+580437929+584755193
3678+593678021+602596248+603673847+599124314+596212064+594140471+587428803
3668+576660917+567579479+563135320+562278309+562145963+561195118+560544183
3658+561220107+562271584+563711179+568423039+578367115+589688703+592427229
3648+582902667+570262964+562649473+560666123+560708775+559466478+556995405
3638+555779336+557195251+560291137+563983446+568767974+574695194+578098884
3628+574987884+568587206+565031702+567025777+573661627+581005046+584203792
3618+582766144+581427605+583581210+587824850+590969228+592269681+593012433
3608+593515871+593471803+593941616+596111751+598998587+600557715+600773207
3598+601534364+603826263+606643156+608331055+608775630+610005220+613297624
3588+616183752+615383092+611963120+609131361+608044912+607969943+607705888
3578+606335988+604058673+602143531+601662640+603356344+608302030+616429614
3568+623812322+624666005+618805330+611667421+606937156+604715413+604268148
3558+605128910+606140106+605939764+604668831+603843536+604789249+607558782
3548+610367959+610298158+606433611+601340748+597661535+595597233+594617115
3538+595059779+596637100+597381481+595994236+593715399+592354384+591957593
3528+591535141+590771540+589759389+588242028+586161763+584117178+582639426
3518+581553190+580430178+579196871+578177321+577816210+578165287+578632586
3508+578754703+578893597+579383798+579629695+578842202+577000932+574375992
3498+571151548+568069113+566306033+566281786+567268524+568110845+567956730
3488+566813224+565616800+565263547+565500347+565082849+563245190+560825972
3478+559356715+559164054+559026788+557894608+556258458+555121287+554371704
3468+553117195+551092466+548878971+547058266+545905450+545490076+545254976
3458+544238293+542516874+541483378+541958005+542948246+542979855+541841835
3448+540238851+538514636+536544312+534463162+532765954+531763607+531334925
3438+531079825+530737049+530635745+531289051+532395675+532986259+532486537
3428+530849007+528245588+525479559+524035681+524606337+525857235+525900595
3418+524737798+524046972+524773017+525788496+525172568+522527240+519363677
3408+517239769+516322656+515833128+515040078+513722564+512470851+512477187
3398+514235560+516530679+517456146+516385449+514314104+512577889+511780521
3388+511585135+511199140+510280611+509297307+508726226+508365221+507984288
3378+507999756+508705590+509471739+509539806+509033571+508510204+508105520
3368+507672555+507187628+506663695+506205244+506137036+506548622+507079422
3358+507531324+508041559+508332197+507726888+506406719+505524330+505477925
3348+505269407+504226106+503270235+503628974+505073843+506143195+505700744
3338+503974652+502281303+501806004+502471698+503049080+502555410+501105444
3328+499339497+497845037+497096622+497011636+496712468+495685202+494789751
3318+494998659+495610693+495030056+493098632+491499046+491773260+493695162
3308+495580111+495871917+494495822+492709310+491681938+491432077+491228620
3298+490756188+490541581+491092805+491991264+492302644+491667107+490669821
3288+490330090+491352825+493468415+495401219+496026350+495529247+494834669
3278+494373139+494161541+494338663+494610116+493899999+491727988+489303496
3268+488318068+489199361+490992598+492454422+492946287+492624890+492018201
3258+491445067+490930974+490483602+490066459+489430497+488427832+487401557
3248+486858581+486811221+486709705+485933185+484216934+481842527+479584362
3238+478237327+478006403+478476039+479096214+479504366+479486775+478882917
3228+477700970+476354927+475550444+475599362+475950385+475769900+474884112
3218+473787966+472829474+471760760+470274583+468757117+467988030+468044805
3208+468096696+467447319+466150441+464512415+462775280+461362055+460706980
3198+460689281+460692679+460239008+459322213+458321317+457705885+457503313
3188+457115336+456047683+454532695+453116709+452214745+452153120+452781684
3178+453083861+452179349+450537642+449258320+448612306+447979530+446739392
3168+444817418+442691811+440979949+439806745+438679945+437232811+435903085
3158+435366020+435337597+434682663+432983012+431138450+430001598+429393953
3148+428861985+428445514+428197458+427683471+426521346+425053682+424000860
3138+423574514+423385322+423144451+422891475+422545372+421867041+420892020
3128+419911973+419143771+418655977+418321271+417744633+416602684+415130206
3118+413970169+413480429+413356401+412959787+411945122+410548498+409286981
3108+408459455+408047020+408031516+408491666+409162457+409250204+408180109
3098+406355652+404800772+404241195+404686053+405599662+406369740+406723524
3088+406612309+405914369+404667789+403378131+402605930+402354724+402166947
3078+401663933+400841398+399947965+399152827+398384059+397562869+396877388
3068+396606749+396678143+396562327+395781985+394516928+393445488+392937412
3058+392720894+392425726+392053252+391712529+391244557+390381530+389170983
3048+388046802+387429565+387342667+387431405+387221648+386397485+385086590
3038+383883158+383320324+383308502+383266133+382736890+381743074+380633087
3028+379737212+379143052+378696955+378173695+377445313+376533474+375567621
3018+374695142+374010086+373553582+373279368+372974962+372398678+371577063
3008+370833391+370436919+370272398+369886722+368858748+367187450+365393328
2998+364157685+363731799+363743480+363676015+363415747+363174381+363034142
2988+362806792+362285301+361471368+360592943+359943778+359588330+359282508
2978+358815704+358252835+357727061+357248754+356806302+356367178+355750543
2968+354774353+353527809+352357472+351611746+351403263+351532459+351671814
2958+351646718+351441279+351001093+350227086+349185343+348211561+347656762
2948+347453588+347119201+346333514+345266250+344246913+343474393+343071550
2938+342994599+342897897+342440260+341631955+340696436+339843283+339278468
2928+339129096+339260062+339319987+338967442+338057868+336802651+335762926
2918+335428539+335677763+335845187+335472218+334784471+334235124+333839183
2908+333273730+332488821+331856505+331666322+331736796+331680197+331379224
2898+330946082+330314651+329269191+327930900+326851460+326474916+326712212
2888+327106312+327243330+326977045+326423840+325823876+325332436+324885419
2878+324280995+323405472+322378701+321485835+320965370+320859819+321045826
2868+321330729+321483569+321296961+320741738+319994349+319249367+318600804
2858+318113435+317808745+317536868+317059870+316334108+315579321+315032097
2848+314727195+314553011+314430470+314334900+314180007+313845230+313373223
2838+312996963+312875731+312890845+312766853+312360010+311799300+311318975
2828+310939953+310439240+309733512+309097550+308774490+308563140+308098991
2818+307381299+306698083+306173549+305722213+305329705+305036590+304736502
2808+304286440+303737836+303246644+302863942+302531961+302151418+301628440
2798+300999770+300439945+300023404+299615464+299088168+298515069+298114138
2788+298036691+298140048+298010002+297381261+296456308+295613137+294953318
2778+294338417+293696916+293096580+292610998+292250153+291961409+291616545
2768+291058171+290227885+289243466+288352705+287793729+287605989+287560186
2758+287379082+287020218+286610774+286161509+285555987+284820368+284174902
2748+283724628+283281823+282661842+281988130+281460251+281029887+280592887
2738+280229015+279974127+279667915+279217252+278686257+278080134+277367186
2728+276662255+276126588+275765742+275457778+275104968+274724955+274407505
2718+274154901+273834973+273348241+272742490+272137181+271634521+271262561
2708+270927023+270494642+269959595+269458032+269124600+268970149+268888278
2698+268782444+268652629+268491806+268181241+267642371+267018903+266531021
2688+266208439+265927447+265642543+265417106+265273521+265155599+265000122
2678+264758065+264408706+263999244+263596241+263210406+262861737+262655448
2668+262655059+262704525+262512961+261975666+261323776+260852034+260583908
2658+260364400+260161137+260016650+259813441+259391431+258831252+258365493
2648+258078059+257883663+257710187+257526145+257279292+256977753+256749236
2638+256655524+256542416+256238841+255800177+255413528+255176144+255069212
2628+255020791+254927593+254711623+254390846+254068830+253848365+253723010
2618+253568594+253323175+253104020+253025441+253014787+252951569+252864035
2608+252847930+252882689+252835063+252620102+252306705+252034368+251852166
2598+251710228+251582289+251486878+251417307+251357806+251327047+251321083
2588+251266113+251098264+250849324+250605126+250399846+250214654+250094289
2578+250177682+250520848+250939460+251140262+251008040+250702819+250470107
2568+250372644+250239236+249933290+249623397+249648971+250127774+250825679
2558+251410494+251724068+251797904+251697273+251443111+251096813+250799893
2548+250618169+250440481+250162993+249856817+249619822+249411534+249154859
2538+248833179+248410638+247859715+247319057+247012916+246984883+247071798
2528+247115795+247073674+246958212+246769975+246488895+246146703+245875215
2518+245776353+245780070+245756425+245695809+245668360+245710870+245808086
2508+245870808+245766141+245476955+245140834+244868850+244655907+244478095
2498+244359164+244372632+244601999+244989409+245274224+245248102+245003656
2488+244790359+244708612+244654881+244502323+244241295+243929101+243563548
2478+243112513+242662398+242393883+242363832+242409829+242306579+241978475
2468+241558110+241254394+241169992+241241846+241319452+241277632+241088493
2458+240817553+240562913+240407525+240372447+240348891+240163610+239802145
2448+239442821+239192801+238971681+238720935+238509585+238379133+238280714
2438+238180331+238070054+237919992+237742428+237617674+237567305+237502035
2428+237355955+237181700+237072733+237062521+237127190+237238635+237363831
2418+237436304+237409386+237335071+237294366+237266191+237185895+237100855
2408+237127721+237286986+237491752+237654274+237724092+237697067+237662556
2398+237782655+238168862+238832557+239803047+241286144+243725397+247732201
2388+253914096+262716276+274448246+289420818+307877907+329691148+354207237
2378+380489520+407699288+435182031+462169936+487554928+510245463+529901488
2368+546960785+561451456+572064555+577035195+575823409+569469489+559440179
2358+546376537+529990333+509685001+485613381+460863147+441281595+431597007
2348+433452613+445850489+464555032+482181091+493089004+497409630+498237156
2338+497971472+497741468+498038123+498614336+498288515+496022173+492151007
2328+487831443+483524161+478471968+471606787+462860089+453234790+443575333
2318+433934354+424182902+414569107+405461122+396798667+387993531+378440440
2308+368070973+357361844+346959954+337371290+328780654+320998536+313653844
2298+306517493+299651037+293289559+287605351+282557070+277937364+273542212
2288+269304731+265323625+261788456+258842208+256490950+254623575+253094340
2278+251793621+250660556+249647626+248709222+247822496+246970671+246120439
2268+245278737+244540020+243998495+243636712+243343756+243011085+242602349
2258+242173366+241807830+241489654+241082900+240498793+239825064+239219631
2248+238744102+238374266+238087150+237841855+237559005+237219114+236915203
2238+236741567+236695322+236718790+236764185+236797086+236808572+236827792
2228+236860357+236840729+236731497+236648086+236764026+237081051+237413952
2218+237633585+237785398+237933106+238052444+238140386+238275157+238522540
2208+238900022+239408434+239983851+240477768+240781520+240925104+241036655
2198+241256341+241658759+242197453+242738341+243167324+243471695+243741042
2188+244080048+244516181+245007603+245482229+245828970+245961156+245939866
2178+245924203+245986801+246056089+246009224+245798494+245528864+245364095
2168+245317248+245231713+245008435+244741353+244556639+244378083+244014353
2158+243518612+243230329+243340004+243660639+243935295+244131939+244384260
2148+244814889+245451152+246337063+247744253+250048239+253321176+257317733
2138+261847072+266852365+272230981+277900800+283955499+290545600+297658802
2128+305114214+312781542+320720642+328974412+337332814+345521492+353471316
2118+361152378+368273226+374328120+378915632+381943168+383457484+383368817
2108+381591543+378398637+374387054+370130920+365893581+361524391+356651090
2098+350995642+344457839+337092722+329134934+320877942+312599748+304692469
2088+297545499+291232762+285606250+280590338+276155046+272228804+268758197
2078+265684098+262949183+260605536+258693367+257049802+255475577+253989224
2068+252762395+251876678+251176915+250420305+249610053+248959862+248516118
2058+248144512+247810780+247547521+247331428+247187118+247160005+247183278
2048+247202569+247296227+247565467+248062464+248744282+249413144+249930759
2038+250465152+251264732+252323731+253455681+254532218+255560033+256606837
2028+257658225+258614274+259465675+260310137+261212968+262212678+263278296
2018+264097928+264229124+263628859+262734558+261965206+261397665+260878156
2008+260243964+259426827+258444603+257387728+256435201+255757136+255308065
1998+254878392+254490716+254491495+254975430+255378539+255059337+254088174
1988+253023547+252229683+251777693+251625879+251617366+251574608+251502382
1978+251517797+251640444+251783781+251867033+251948939+252309643+253168087
1968+254198769+254690616+254415234+253926325+253798687+254036619+254371626
1958+254712455+255086220+255431173+255660168+255808584+256036269+256515657
1948+257373181+258746231+260630348+262391782+262897788+261816649+260213152
1938+259219176+258953351+259005437+259177603+259482275+259887455+260307907
1928+260819912+261805977+263486035+265286211+266450920+267240784+268284509
1918+269027456+268420766+266931457+266147841+266816101+268329108+269617456
1908+270107232+269985752+269765712+269747129+269938091+270302583+270931572
1898+271954502+273192003+274104815+274574769+275297540+276565075+277319649
1888+276545890+274888503+273639763+273186923+273184410+273292846+273359532
1878+273388416+273465101+273670293+274393683+276484885+280225316+283937164
1868+284766353+282090390+278360224+275924157+275173229+275289735+275478467
1858+275474238+275442930+275632317+276076803+276720145+277685716+279283691
1848+281959760+285893755+289777965+290764189+287986355+284261623+282271087
1838+282189357+282754421+283254709+284469415+287467661+291517382+294113776
1828+294200514+293283524+292306114+290675344+288471069+286913906+286618632
1818+287061579+287649880+288580213+290412369+292953403+294932700+295237496
1808+294258351+293445745+294054434+296484695+299973708+302783238+303622763
1798+303199780+303657912+306565277+311283048+314448876+313006697+308715343
1788+305717576+305680587+307494390+309635500+311662175+313359065+314226730
1778+314753884+316748101+321628976+328558898+333886012+334354302+331108196
1768+327110347+324136260+323476795+325668593+329034515+330952807+331389949
1758+332018265+332962492+333962609+336533783+342084636+348977391+353265594
1748+353393905+351599181+350453267+351005199+353075588+355517530+357009157
1738+358312690+362156247+369103866+374237718+372572508+367136055+362330361
1728+359160108+357752440+358132276+359672962+362372022+367794104+377017622
1718+387300157+391986425+388458424+381518946+375929440+373497231+374657799
1708+379052792+384845967+389610850+393697118+399898835+408272776+413939799
1698+414018450+410655819+405023449+398787256+395502745+396512525+400431724
1688+406409737+415684757+427457078+433922460+429706253+421749526+417142192
1678+417669912+422133999+427442282+431269699+434795930+439206816+441766061
1668+439832018+436801438+437318328+441425905+445320574+446337398+446547262
1658+449796978+458635989+473788815+490490080+496204923+491803842+490593153
1648+495519938+500305810+498883489+494404465+492624890+495450915+503022462
1638+514939341+528076961+535199543+533730498+530918277+532760821+539647276
1628+549011211+558704860+568802733+579341216+588586185+596157837+604745429
1618+616038062+626876067+632532790+634581659+637490865+642411490+647773435
1608+651846748+654415161+656631240+659494715+662808003+665898012+668848915
1598+672364457+676822455+681938184+687170224+692261459+697250824+702058182
1588+706447866+710379029+714068011+717726978+721463249+725729118+731814629
1578+740716113+750119869+754974657+756079228+759700675+768361183+778770046
1568+786649078+792942152+801090974+812427569+827624818+848782488+874546749
1558+891078078+890885098+885678401+882362210+880903112+880336562+879969717
1548+879678336+880285521+882650122+887287862+893863681+896946399+887550926
1538+870617144+858761359+853948550+851159549+846529809+841900564+840624109
1528+842544278+845338730+848317171+852546935+856721764+857086698+853550273
1518+849580245+846293858+843091926+840731572+840983946+845334624+854354473
1508+865243661+868477591+858584662+846172662+839788832+839277712+841631837
1498+843381608+841780713+837416585+834255004+835191869+839261005+842341246
1488+841361056+837619475+833828057+831154730+829591001+829013407+829831907
1478+832745502+837763608+843426136+846574479+843994244+837050943+831496232
1468+830806008+833676420+835564590+833455831+830567367+832234099+839897498
1458+848983821+850472369+842870630+834319425+829268330+827321544+826831449
1448+825990438+823809471+821115473+819342270+818956594+820076668+823134680
1438+827186260+828540586+825109853+820607964+818831645+819344818+819643774
1428+818840353+818198409+818316774+818345798+818310190+819560876+821440551
1418+820367766+815657889+811237976+809673822+809885137+809572448+808243890
1408+807421285+808039018+808831183+808266119+807115321+807094083+808386395
1398+810004139+811121028+810879272+808667440+805873271+805045073+806766669
1388+808650450+807887027+805300138+804616002+807700489+813146889+818772321
1378+823823275+828339465+831695512+833282886+834105420+835820150+838537934
1368+841108611+843145587+845366268+847841305+849290847+848755516+847041778
1358+845611988+844976132+844827822+845130459+846071712+847032292+846948120
1348+845806595+844556617+843817122+843854712+845089329+847374289+849431865
1338+850237551+850410497+851045928+852073901+852813609+853495338+855286027
1328+858925314+863877867+868707595+872200979+874459392+876722690+879858219
1318+883525964+887042213+890290514+893436520+896523911+899684571+903208891
1308+907104869+910759164+913487496+915520082+917887515+921009098+923920570
1298+925436444+925481609+924841081+924273611+924035041+923716405+922664504
1288+920798704+918676919+916778343+915279955+914273856+913638283+912901266
1278+911589344+909719509+907969101+907335652+908224448+909840918+911043465
1268+911733052+912689668+914332330+916403640+918482878+920238879+921499476
1258+922507345+923945206+926133393+928387063+929629396+929520518+928798012
1248+928547054+929281027+930685191+931936444+932238797+931372442+929765954
1238+927906880+925882859+923806099+922256174+921649414+921380899+920250135
1228+917806883+914852582+912507448+911111780+910293422+909869730+910105327
1218+911105055+912552826+914016526+915110761+915770545+916735868+918945788
1208+921994030+924257258+925034839+925275887+925817447+926541439+927574369
1198+929566816+932299041+934379200+935023055+935182904+936335118+938844419
1188+941810613+944268306+946296645+948535237+950825294+952156825+952192292
1178+952032655+952894551+954752705+956841004+958949621+961688077+965506043
1168+969798387+973093128+973905681+971807046+968442646+966865890+968681640
1158+972362835+975518611+977971491+981063058+984757633+987113244+986801050
1148+985148618+984868422+987110695+990617954+993696424+996007224+997893412
1138+999432576+1001111768+1004012833+1008310487+1012262887+1013833271
1130+1013148781+1011966976+1011402479+1011359366+1011627456+1012552286
1121+1014533689+1017288073+1019744492+1021027601+1021280329+1020677180
1113+1018939868+1016800527+1016617458+1020111620+1026188991+1032351595
1104+1037116902+1039943848+1040796470+1040232822+1039588684+1040526751
1095+1043701004+1047665580+1049520336+1047929210+1044969458+1043893134
1087+1045483198+1047624237+1049084398+1051440575+1055659791+1059614528
1078+1061082263+1060720586+1060014929+1058847707+1056865949+1055097701
1070+1054894457+1056026920+1056298974+1054512745+1053482294+1056815687
1061+1063072728+1067031712+1066758949+1064306070+1060509837+1055658376
1053+1053334125+1057252546+1065259853+1070687493+1070192443+1066646531
1044+1063871193+1062973477+1063388603+1064141336+1063899085+1061731640
1035+1058391168+1055962641+1056110455+1059075941+1064231880+1070200655
1027+1073741823+1071547052+1065246757+1060565834+1060761149+1063531107
1018+1064159247+1061416190+1059210234+1061483726+1066822804+1069933768
1010+1068565921+1065818404+1064847559+1065299780+1065375032+1064647288
1001+1064118824+1064391374+1064517031+1063288786+1061000073+1058883527
993+1057640982+1057201787+1056860852+1055464051+1052603196+1049235681
984+1046382613+1044236051+1042617812+1041101796+1039225024+1037148617
975+1035361255+1034271338+1034473521+1036224779+1038316972+1038679357
967+1036801806+1033992417+1031054611+1027358124+1022251740+1016339528
958+1011197252+1008090889+1006578272+1004966262+1002715424+1000735224+999475618
948+998762670+998703487+998832895+997505895+994007910+989639322+985377348
938+980935065+976724415+974303463+974361583+975586147+976128981+975630746
928+975306447+976045022+977138620+977393331+976595644+975445553+974622452
918+974075228+972889176+970231565+966993104+965428030+966481135+968457724
908+969176407+968774449+968804889+969150001+968124081+965626744+963930137
898+964897654+967850539+970164666+969563003+966318171+962826770+960908159
888+960470238+960540960+960301682+959220685+957454207+956018045+955739053
878+956190282+956277003+955702666+955090738+954669949+953863342+952518715
868+951263993+950180519+948735508+947330282+947195069+948569288+950181651
858+950643854+949803408+948674414+948345513+949065753+950262496+951101030
848+951060678+950403656+950189863+951180459+952713393+953422731+952776469
838+951060678+948301551+944286075+939593401+935733243+933983188+934689978
828+937597131+941792703+945467527+947120737+947058723+946803517+947337786
818+948534812+949947258+951580718+953663496+956005656+958483950+961561571
808+965021399+967144953+967052570+966236406+965625328+963783173+960014053
798+956621690+956176761+958287927+960462805+961443702+961932735+962332852
788+961921054+960376651+958566069+957887667+959517446+963281751+966766711
778+967205835+964798616+962432528+962164225+963277645+963532214+961751294
768+958800675+956189787+954868450+955504660+958301873+961908807+964139611
758+964262790+962944710+960203918+955868178+951467946+949163730+949353807
748+951076182+953845786+957594942+961389900+963785226+964491378+964522314
738+964617034+964445009+963623536+962554644+961885375+962251087+964090198
728+966525238+967490561+966286810+964642095+964292664+965337911+967290644
718+970031719+972809747+973421745+970879031+968049253+968342404+970351062
708+968800005+961899250+953863130+949003598+947907239+949265034+951902398
698+954730405+956868897+958230868+959059491+958980204+957052390+952936176
688+947751921+943367334+940757933+939428172+938064360+935793133+933735274
678+934021982+935887924+935452693+931610941+928119681+927174888+925193272
668+918021879+910863582+909972662+912163115+913670352+914363337+914954665
658+914972150+913840183+911620847+908739249+905746933+903757247+903791794
648+905834574+909183117+912129418+912500157+910245212+906359498+900070105
638+890907681+881462371+874905666+871581901+870180427+870387353+872451300
628+875584068+878286136+880047659+881446938+882744559+883113811+881372464
618+877242092+871621686+866289758+863365119+863145026+863084640+860999172
608+857700538+856034584+857151261+859807597+863199606+867431565+870954186
##END=
