##TITLE=<SNM>
##JCAMP-DX=4.24
##DATA TYPE=INFRARED SPECTRUM
##DATE=3/5/2025
##SAMPLING PROCEDURE=Instrument type and / or accessory
##ORIGIN=Admin
##XUNITS=1/CM
##YUNITS=ABSORBANCE
##RESOLUTION=4
##FIRSTX=4497.3318
##LASTX=599.83466
##DELTAX=-1.4281778
##MAXY=1.7220501
##MINY=0.17927004
##XFACTOR=1
##YFACTOR=1.6037841e-09
##NPOINTS=2730
##FIRSTY=0.19895379
##XYDATA=(X++(Y..Y))
4497+124052727+124585488+124771015+124456061+123933632+123443370+123109647
4487+122962817+122896440+122969832+123536375+124731230+126131598+127057629
4477+127028724+126180823+125416423+125667333+126858100+127978857+128088373
4467+126962524+125143000+123675967+123418553+124292953+125373730+125793415
4457+125481582+124987567+124641393+124202577+123520487+122978807+122909578
4447+123200292+123751867+124518739+124972097+124477300+123308154+122445239
4437+122394508+122776955+122934711+122584524+121920320+121210506+120425897
4427+119421141+118316727+117440357+117044699+117166200+117568066+117873906
4417+117952491+118002404+118133002+118144634+117830980+117270318+116788112
4407+116731872+117120785+117436028+117097650+116289757+115842959+116107100
4397+116440173+116111040+115296476+114769550+114822157+114944170+114651310
4387+114282995+114528414+115275124+115581949+114954195+113984718+113410063
4377+113182790+112871868+112465441+112302128+112483726+112781770+113009471
4367+113149249+113163074+112984701+112672877+112339962+112030080+111806347
4357+111779412+111959681+112246427+112557656+112848361+113073376+113196783
4347+113206223+113170117+113245971+113433747+113427410+112998693+112421725
4337+112208733+112508738+113011404+113378194+113540726+113581041+113566407
4327+113556317+113531993+113284762+112683989+112036083+111816735+112108471
4317+112550632+112793905+112796627+112726599+112755448+112945947+113285161
4307+113733966+114172020+114434192+114567837+114851555+115317799+115502137
4297+114963942+113959539+113303261+113456594+113980295+114172494+114062625
4287+114242745+114810199+115120787+114688753+113774624+112972130+112752104
4277+113403049+114788421+116141924+116709768+116603067+116441436+116329087
4267+115920216+115305023+114946195+114808350+114469536+114095460+114371671
4257+115404691+116540509+117282341+117647041+117715313+117539244+117378506
4247+117518738+117942633+118402680+118708019+118915418+119252235+119743956
4237+120024979+119775453+119187233+118691982+118409361+118164861+117889747
4227+117695718+117622122+117564684+117487780+117560196+117973174+118654222
4217+119273521+119612420+119799991+120065108+120345388+120298997+119728932
4207+118935097+118542783+118884320+119640739+120255765+120565107+120797305
4197+121119358+121419438+121479562+121244549+120910696+120729107+120749279
4187+120881660+121131530+121536043+121917486+121963060+121589802+121089171
4177+120861155+121043384+121446903+121893933+122527373+123525096+124522140
4167+124786030+124140325+123225908+122635876+122324815+122067010+121960430
4157+122181051+122581430+122814176+122766140+122757908+123223111+124117227
4147+124811776+124767122+124142676+123541931+123351219+123503447+123730562
4137+123861095+123882651+123814128+123645770+123499145+123659001+124213503
4127+124811033+124989406+124622132+123930417+123271277+122977051+123133878
4117+123432174+123478900+123324869+123471662+124272568+125504773+126595817
4107+127111045+126977743+126450409+125921505+125651519+125714161+126148982
4097+126872232+127478486+127559803+127189333+126681966+126060372+125233311
4087+124515924+124433548+125014530+125713446+126130781+126442995+126967458
4077+127670759+128273696+128481635+128065117+127045830+125774043+124682544
4067+124084457+124073354+124347186+124390975+124072072+123714275+123552096
4057+123583194+123864031+124454964+125133644+125496253+125380698+125054185
4047+124916442+125092121+125435275+125823287+126171281+126283111+126060864
4037+125731006+125560809+125541771+125577106+125723201+125997321+126184196
4027+126146028+126143891+126462385+126861380+126878373+126555967+126366258
4017+126543136+126882396+127024878+126671067+125789940+124816561+124365601
4007+124641774+125383420+126378485+127659071+129077696+130059475+130089272
3997+129307738+128361712+127770603+127637682+127798393+127996176+128086143
3987+128223236+128604177+129015668+129036805+128721117+128663613+129299488
3977+130358337+131033876+130677882+129471320+128338447+128031418+128470550
3967+129130396+129761950+130433968+131130078+131676979+131946110+131926877
3957+131720583+131505714+131366614+131254896+131201044+131300637+131478017
3947+131639266+131924145+132372718+132659920+132574477+132342224+132138792
3937+131907300+131872337+132470555+133530900+134124983+133665614+132766685
3927+132544216+133359857+134476814+135014639+135008451+135010838+135060221
3917+134728143+133962534+133235271+132943238+133085998+133397738+133735800
3907+134427627+135925952+137931134+139313320+139440786+138792582+137902443
3897+136947618+136389353+136839431+138092003+138874484+138407237+137814687
3887+138456276+139971326+140980495+141259827+141567043+141769257+141298767
3878+140648760+140709191+141634897+143140804+144922429+146227339+146204873
3868+145339328+144773073+144532401+143939712+142975020+142184168+141932783
3858+142621182+144879792+148512244+150834490+149341497+146092012+143686554
3848+142692641+142757410+143409349+144310182+145460876+147065475+148842130
3838+149900124+149963054+149718174+149428482+148742611+147832152+147492278
3828+148052401+149207805+150907547+153249769+155259225+155445375+154476605
3818+154172279+154451453+154046132+152968402+152269496+152576971+153898717
3808+155605380+156888781+158107979+160234412+162695571+163737065+163453812
3798+163299763+163525075+163784246+164493075+166215116+168729514+171369660
3788+173812702+176248125+178947642+182071286+185918199+190743629+196153311
3778+201403017+206436181+211808642+217954118+224925920+232207436+238915069
3768+244820384+250487397+256460371+263457352+272597305+284303464+297270575
3758+309599694+321184249+333503297+347806620+364172565+381036409+396219949
3748+409460057+421940846+434155608+444967614+453729859+461886834+470909940
3738+481343978+492918870+504443850+514389688+522183116+528021366+531691857
3728+532987168+532439022+530696466+528029022+524927974+522426026+521115662
3718+520588440+520606613+522018772+525358494+528918307+530383240+530693902
3708+532370750+535754438+539602465+543060780+546216907+549467544+552631587
3698+555150594+557195264+559826434+563897898+569043319+573602721+575707264
3688+575887403+576888888+579801175+583151712+584814326+584574649+584693428
3678+586635411+588053479+585991936+582890442+582043117+582060956+580140083
3668+576891007+574782710+574971880+577197432+579966448+581376711+580978303
3658+580228090+580694213+582216269+583806225+585498496+587575425+588888502
3648+588680638+588726426+590328609+592414123+593361422+593063879+593041952
3638+594840552+598297567+601801409+604825897+608916761+614859519+620001038
3628+621151369+619918717+619798786+622001704+625694717+629025816+630840212
3618+632596258+636168633+640535224+643908765+646782289+650404093+654003301
3608+656406911+658587976+661713256+664920819+666561579+666000090+664116494
3598+662886778+664322313+668637022+673651473+677334302+679831939+682097146
3588+683926036+684253906+682943839+680980486+679461478+678742633+678357380
3578+677815961+676860225+674951208+671797906+668693587+667499996+668233187
3568+669141723+669220364+668960878+668576815+667626654+666346022+666036215
3558+667666941+670712910+673623897+674746949+673271572+670393812+668766505
3548+670065199+673435470+676764191+678821943+679006802+676755717+672413953
3538+667643601+664367357+663302877+663461052+663430279+662937768+662630934
3528+662857195+663281693+663289795+662572585+661773240+661970215+662915395
3518+663125675+662059559+660711362+660451207+662057998+664699167+665891569
3508+664068476+660407277+656901949+654327529+653005049+653896192+657676170
3498+663187963+667466250+668076351+665648435+663079144+662496843+663724106
3488+665084270+665135632+663873658+662327445+661483948+661728345+662437156
3478+662184211+660394790+658427944+657896187+658656880+659333432+659006751
3468+657866826+656678141+656009765+656020618+656335034+655978101+654451734
3458+653016422+653615670+656452475+659775695+661594476+660581358+656813942
3448+652526215+650158507+649616121+649042070+647582972+645921919+644986179
3438+645396406+647345042+650027166+651845129+651952313+650983198+649765673
3428+648427510+647301856+647088232+647477201+647326980+646679342+646573868
3418+646689748+645524477+643162492+641624827+641827897+642247713+641508352
3408+640603012+641053750+642493819+643557184+643898805+644175461+644795151
3398+645275843+644491364+641500845+636862652+633057401+632374086+634335357
3388+635848345+634549874+631536386+629764433+630686497+633131434+634760748
3378+634436074+632979652+631853107+632176814+634483869+637921557+640181561
3368+639859192+638175469+637023725+636763942+636805046+636729676+636202825
3358+634994442+633619485+633301130+634611791+636264295+636502226+635837195
3348+636257011+637823813+638530840+637468590+635999160+635524860+635699164
3338+635219661+633827237+632953934+633886255+635782711+636735696+636399502
3328+635892274+635685413+635050784+633463615+631862621+631881352+633776544
3318+635830877+636401434+635697083+634943451+634696973+634320343+632950143
3308+630788552+629049304+628397579+628219112+628294632+629547984+631924463
3298+633497658+633037555+631840099+631477443+631600533+631150465+630079147
3288+629061271+628732510+629511563+631030719+632040270+631671667+630584145
3278+630364054+631839058+634252331+635898220+635743539+634531291+633601274
3268+632941818+631626177+629672115+627919860+626706274+626009504+626029425
3258+626579318+626877976+626574487+626033959+625457381+624679963+623827324
3248+623479645+624118251+625622245+627137908+627501976+626199938+623859955
3238+621681899+620575497+620735678+621550521+621863488+620833980+618913961
3228+617525960+617335303+617503661+616959714+615539862+613686443+611949797
3218+610788093+610176357+609752527+609569044+610044421+611135920+612222068
3208+612883456+613138371+612925861+612074262+610761149+609455245+608416780
3198+607640254+607194683+607254853+607903234+608962474+609840348+609816674
3188+608849752+607652296+606552435+605045096+602986601+601132216+599977239
3178+598954570+597287979+595152218+593444151+592536991+591791498+590527814
3168+589073696+588355222+588597537+588942057+588523914+587502396+586623704
3158+586202067+586154756+586439812+586680975+586131825+584672281+582986848
3148+581467431+579936753+578482115+577371030+576274811+574785200+573492936
3138+573336955+574001465+574115004+573109430+571733136+570480378+568803121
3128+566483579+564604628+564179943+564659372+564799818+564386395+563988804
3118+563640382+562997724+562316490+562119106+562239001+562025414+561086440
3108+559293340+556648938+553821536+552140488+552146769+552679567+552314160
3098+551150859+550238755+550008183+550196573+550571493+550891744+550719224
3088+549921143+549076345+548942923+549376676+549095820+547164689+544426483
3078+542543109+542124482+542600455+543130056+542946275+541642750+539717268
3068+538292882+538050269+538651227+539121438+538685976+537335400+535716566
3058+534647218+534600799+535289206+535866750+535753694+534962897+533669332
3048+532111301+530861999+530420442+530460691+530099336+528994718+527683536
3038+526732707+526064926+525322369+524342551+523068869+521566139+520300411
3028+519815147+519976369+520011379+519360694+518166805+516894981+515816416
3018+514974517+514356797+513871905+513327921+512627138+511851281+511170047
3008+510800961+510805235+510819915+510333685+509208366+507671519+506085094
2998+504877157+504297903+504209673+504319161+504393268+504169015+503462731
2988+502397024+501185111+499822158+498283156+496822534+495712787+494789831
2978+493705616+492609955+491958749+491615493+490947527+489914302+489156917
2968+488838190+488315947+487212332+486045909+485497762+485595060+485877960
2958+485919808+485402173+484183867+482579677+481105825+479977346+479251105
2948+478964526+478738748+478019828+476940073+476097654+475601353+475150690
2938+474695679+474288202+473711029+472836091+471995455+471587792+471459722
2928+470994825+469860809+468392605+467163113+466464745+466217040+466120783
2918+465967849+465836694+465800978+465595418+464830079+463370833+461393320
2908+459293757+457545367+456452901+456025987+455985775+455885652+455484939
2898+454983397+454653558+454411576+453991389+453293393+452340742+451143137
2888+449765319+448361634+447091371+446140839+445750718+445964491+446317038
2878+446091261+445091634+443873699+442999504+442378737+441605110+440691929
2868+440112452+440151215+440521973+440695868+440390781+439647369+438615780
2858+437396434+436009844+434477457+432951759+431707809+430956147+430673507
2848+430616013+430525739+430368382+430316426+430463450+430647975+430599920
2838+430141416+429237637+428085187+427148778+426743865+426562760+426002423
2828+424887994+423491556+422115038+421036473+420475355+420259129+419884580
2818+419140017+418345912+417881052+417751606+417664938+417316218+416531516
2808+415280096+413745553+412355731+411506510+411216958+411168792+411031319
2798+410704638+410302996+409853374+409116875+407976876+406793839+406002373
2788+405627824+405441442+405194889+404586015+403459692+402071876+400803138
2778+399730258+398721897+397779058+397037616+396481331+395856438+394967897
2768+393905573+392847485+391847969+390941849+390191822+389504790+388639589
2758+387503343+386319489+385465957+385130989+385061900+384762350+384063685
2748+383319567+382842591+382388026+381517882+380306526+379284748+378745633
2738+378435156+377891358+376880878+375569771+374348455+373426986+372673019
2728+371897014+371084736+370299476+369622367+369184823+368958451+368605087
2718+367850711+366841421+365837446+364790470+363548936+362271166+361297629
2708+360759963+360542659+360428525+360138006+359487507+358605061+357777137
2698+357115265+356541252+355953896+355269205+354479486+353709241+353047444
2688+352436377+351853852+351362457+350886819+350236171+349402709+348564080
2678+347798110+347017161+346166975+345363059+344806141+344556875+344432410
2668+344210051+343858322+343446534+342949340+342264649+341344964+340277882
2658+339277884+338534583+338062402+337777904+337610884+337435577+337089943
2648+336568666+336017361+335524441+335068278+334599553+334075340+333497982
2638+332920624+332335944+331672511+330990348+330507760+330322195+330258903
2628+330089468+329771261+329371849+328897586+328339962+327752792+327145999
2618+326477624+325833666+325368583+325057363+324768814+324504088+324308972
2608+324109990+323857937+323634575+323446409+323120992+322544935+321838391
2598+321181425+320633613+320249624+320150208+320245536+320121962+319529589
2588+318770828+318285193+318091972+317915290+317597380+317164148+316708319
2578+316363056+316223576+316214731+316158983+315995123+315828438+315758345
2568+315735785+315623956+315388516+315189571+315237514+315563674+315973195
2558+316217146+316175224+315902693+315546169+315201799+314846947+314427168
2548+313977620+313604967+313378149+313278918+313225995+313092201+312743779
2538+312155680+311483254+310954006+310700949+310728786+310954415+311206523
2528+311294084+311179058+311005869+310906732+310854106+310740474+310543239
2518+310350762+310227430+310117459+309941352+309730812+309574627+309469784
2508+309333481+309144534+308958059+308796187+308631732+308425224+308070150
2498+307463673+306770211+306349931+306274932+306225725+305954142+305513030
2488+305030870+304593847+304298348+304175555+304111482+303937457+303568056
2478+303093310+302742602+302648593+302675166+302562928+302203580+301757730
2468+301517030+301571830+301656288+301470128+301048305+300631890+300323383
2458+300051280+299743739+299391099+299019616+298713247+298615168+298783786
2448+299048122+299144101+299005884+298778007+298569678+298342191+297973087
2438+297368524+296644754+296166775+296179727+296464206+296603352+296485595
2428+296298952+296162427+296011815+295762104+295406435+295021628+294751327
2418+294706376+294863714+295122791+295413347+295687216+295881571+295947761
2408+295875178+295712656+295605267+295719587+296066225+296469447+296732426
2398+296774460+296637432+296447519+296345427+296359643+296339202+296066708
2388+295440979+294496579+293183112+291129783+287760013+282749966+276303455
2378+268925328+261087544+253168833+245462224+238083465+231014681+224301176
2368+218166460+213039027+209383236+207285773+206474275+206997670+209486554
2358+214507714+222038422+231844055+244011339+258124081+271779563+281287542
2348+284194496+281046341+275289723+270583277+267584730+264674246+260853683
2338+256497146+252376048+248854831+245896552+243587992+242290246+242113805
2328+242605350+243160948+243561773+244109771+245395289+247856115+251372537
2318+255215789+258510597+260935428+262943564+265191843+267872722+270716179
2308+273424672+275863904+277935760+279546250+280784161+281941126+283189944
2298+284378314+285306231+286049736+286824366+287675203+288460983+289037003
2288+289375297+289582139+289795912+290022470+290144669+290110793+289968674
2278+289713257+289312451+288901128+288720283+288824940+289016599+289065118
2268+288900923+288654296+288555735+288701719+288913281+288925285+288688507
2258+288413783+288338022+288459347+288525613+288341757+288014092+287786363
2248+287756464+287877938+288108305+288423483+288767018+289074651+289317134
2238+289487554+289585168+289653292+289801933+290128688+290616757+291151004
2228+291642883+292117852+292646301+293206991+293733545+294314118+295156203
2218+296296425+297535618+298720159+299951938+301466151+303342520+305385480
2208+307343035+309172557+310970321+312771096+314564382+316377997+318275976
2198+320349969+322634539+325009866+327346728+329673294+332023572+334277406
2188+336288554+338030180+339570558+340969337+342192661+343192697+344079268
2178+345036378+346065143+346947180+347408174+347293706+346709956+345961006
2168+345286684+344736085+344253943+343765818+343177347+342337418+341129407
2158+339671052+338232432+336939090+335798161+334856697+334103177+333496384
2148+333092623+332921293+333266072+335218350+339890326+346939449+354964303
2138+363183716+371566840+379806062+387395676+394355938+401190992+408373426
2128+415981289+423732534+431371317+438738499+445495654+451278120+455914046
2118+459143797+460689786+460807525+460248749+459852570+460551644+463353291
2108+468977174+477694077+489450372+503714933+518990530+532848617+542917695
2098+547678309+546522663+540158268+530640347+519875429+508582879+496801833
2088+484228688+470310654+454970204+438785996+422435438+406733372+392618214
2078+380449053+370008066+361192749+353981512+348138467+343427988+339605530
2068+336299629+333393883+331020749+329029671+327180897+325581576+324312874
2058+323184916+322107131+321143442+320405048+320194843+320748527+321879309
2048+323401848+325591796+328975856+334125922+341604822+351768596+364850715
2038+381182914+400812577+423020303+446483054+469539257+490273168+506887040
2028+518044681+523062031+522380536+517556630+510386608+502197783+493633293
2018+484761449+475553150+466153116+456634787+446916510+436939230+426683361
2008+416198741+405694052+395426699+385601535+376432223+368064187+360452645
1998+353520517+347347038+342047383+337552350+333636756+330133434+326987862
1988+324115230+321454848+319170649+317466485+316212315+315079340+313964501
1978+313005644+312288322+311711949+311077914+310292060+309487605+308855558
1968+308414131+308059428+307733751+307437973+307176740+306955943+306785597
1958+306663566+306559281+306436265+306304032+306192630+306062441+305823544
1948+305479545+305201978+305187985+305370763+305365857+304925619+304325738
1938+304008182+304039847+304135677+304062480+303867029+303738903+303755441
1928+303868423+304094219+304479416+304914265+305295522+305760921+306365503
1918+306758578+306636826+306257910+306072921+306202776+306475195+306661949
1908+306647622+306543467+306591187+306882728+307264375+307547907+307730183
1898+307935891+308180716+308341380+308424778+308615361+308900899+308975118
1888+308714591+308386554+308216840+308184358+308248635+308399618+308536013
1878+308575557+308604917+308783625+309239324+310067323+311172257+312043182
1868+312057193+311252385+310310958+309736685+309552959+309599601+309748280
1858+309899932+310015942+310150517+310367691+310685897+311100138+311631524
1848+312414423+313587908+314843677+315355179+314804059+313953686+313617715
1838+313883927+314350906+314766225+315337525+316309390+317407244+318064210
1828+318235578+318346961+318505805+318516174+318416757+318427498+318588422
1818+318802493+319062685+319483430+320166969+321050976+321885999+322468189
1808+322876781+323365203+324132624+325256085+326632045+327901378+328696969
1798+329122657+329749185+331051335+332871900+334292384+334502032+334005284
1788+333978674+334919023+336506378+338242727+339859107+341159771+342013860
1778+342689817+343804693+345794916+348452400+350846086+352133854+352475660
1768+352455442+352495841+353088660+354563070+356518061+358147040+359331786
1758+360596288+362138636+363829755+365795747+368248823+370870145+372917491
1748+374140517+374960302+375802796+376874895+378218447+379556759+380519518
1738+381463844+383322986+386203163+388552065+388960137+388349404+387974521
1728+388051118+388533037+389451941+390781557+392693919+395648834+399705618
1718+403727577+405878799+405919161+405420183+405594450+406759127+408880171
1708+411783055+414973113+417867487+420674039+424189775+428333524+431796002
1698+434095995+435923399+437239523+438055555+439381937+441897301+445396796
1688+449718231+455226568+461534324+466160995+467581591+467992450+469585974
1678+472838172+477324508+482128234+486421164+490354596+494466644+498411523
1668+501430214+503998056+507264748+511405078+515456881+518641625+521438775
1658+524885420+529767899+536436861+543759111+548396188+550196238+552662880
1648+556831121+560896341+562960039+563923207+565564823+568385647+572310680
1638+577252102+582415882+585845543+586803100+587211097+588813949+591927410
1628+596083870+600798214+606020975+611799576+617850410+624050685+630909041
1618+638656978+645767462+649675436+650055114+648340618+645443606+641888178
1608+638368801+635690616+634663004+635963928+639766726+645463675+651904742
1598+657958624+662791710+665878858+667194574+667374675+667307332+667514044
1588+667990425+668420201+668448744+668028779+667719195+668449636+670774233
1578+674378867+678080724+680735049+682953800+686369487+691704746+698365012
1568+705311598+712717766+721613656+732290641+744633437+759553997+777517554
1558+793727368+803979781+812535165+822811958+833646449+842526135+848516465
1548+852448597+855432575+857584801+858452306+858115740+856313014+852172387
1538+847401887+844574968+843491905+842550738+840998505+839633062+839337080
1528+840100152+841533532+843587939+846457003+849415189+850643195+849736741
1518+848555117+848455886+849187145+850195803+851777397+854750449+859308291
1508+863887317+865246441+862809829+860324382+859577068+859777239+860128968
1498+860423166+860313753+859480142+858561869+858383625+858773932+858913450
1488+858628766+858516825+858906017+859813883+861250013+862803734+863661502
1478+863670942+863733379+864585796+865545247+865252016+863867396+862994018
1468+863610066+865494777+867550299+868672980+869065888+869717911+870825205
1458+871285680+869582408+866142712+862984950+861086413+860302083+860069802
1448+859782590+859159779+858422128+857891263+857532175+857149301+856721235
1438+856061407+854598369+852519285+851173614+851249505+852016591+852319783
1428+851889338+851330302+850964970+850482642+849466923+847851657+846139689
1418+845280136+845633278+846463544+846857939+846341272+844917629+843025633
1408+841169612+839445602+837822978+836695912+836393612+836516256+836582262
1398+836781540+837381012+837961009+837917377+837296722+836486301+835269073
1388+832858774+829361398+826717034+826952660+830251054+835342065+840792313
1378+845665240+849653268+853059515+856450376+860081025+863682537+866757570
1368+869055705+870845498+872539404+874058041+874887935+874778373+874107396
1358+873507032+873383198+873746821+874367476+875121852+876109475+877338298
1348+878388061+878703220+878519774+879146376+881735662+885867370+889778689
1338+892297585+894050955+896081354+898256398+899980780+901584227+903882660
1328+906900087+909976680+912721019+915272322+918062968+921528010+925494482
1318+928992750+931360458+933149804+935288576+937864557+940159645+941400956
1308+941391665+940889640+941165404+942681142+944532256+945605953+945802184
1298+945653673+945433062+945165325+944890006+944449155+943379175+941501599
1288+939353238+937464587+935515431+932834199+929585755+926646597+924502994
1278+923168696+922701755+922796005+922464717+921250164+920176913+920475497
1268+921805484+922537337+921769657+920351589+919618026+919868667+920553692
1258+921176132+921258935+920095894+917262731+913165958+908804645+904947809
1248+901501498+897903480+894266364+891502699+889938127+888574840+886436143
1238+884012018+882416153+881707639+881158935+880673932+880642193+880821180
1228+880766027+880891719+881773273+882985298+883793191+884406785+885652036
1218+887744054+889929133+891397076+892400680+894113764+897101607+900438059
1208+902930344+904507255+905825944+907413781+909656690+912611902+915573284
1198+917966264+920414546+923602114+926675809+928296352+928681976+929297206
1188+931116878+933979996+937075915+939544564+940924129+941357993+941733657
1178+943589380+947865660+953336795+957300888+958331846+957431114+956567548
1168+957195786+959518227+962379486+964462956+965735932+967247061+969850990
1158+973523413+977501704+980884760+983416886+985575430+987612815+989064183
1148+989760209+990626154+992521272+994669632+995399553+994289062+992672756
1138+992480911+994826543+999095018+1003363122+1006142172+1007225903+1006582577
1128+1004429237+1002438085+1002537538+1004699501+1007494161+1010246601
1120+1012855510+1014490324+1014436583+1013364001+1012610369+1013213706
1111+1015619917+1019512357+1024113682+1028425863+1031000134+1030635397
1103+1028184142+1026338305+1026917113+1029451989+1032509405+1035302504
1094+1037957721+1040614052+1042565141+1043409084+1044149188+1044973656
1085+1043736210+1040024021+1037772639+1040060814+1044220173+1045469437
1077+1043723054+1042834736+1044699527+1047427290+1048909281+1050050321
1068+1053025380+1057334291+1059587382+1057774473+1054094840+1052145610
1060+1052825655+1054439657+1055988769+1058611652+1063082677+1067543443
1051+1069205239+1067657614+1065410023+1065181682+1066973258+1068085309
1043+1066852323+1065285744+1066231296+1069421540+1072047470+1072887846
1034+1073195646+1073741823+1073408230+1070481634+1065035698+1059379258
1025+1056040354+1055611321+1056724339+1058127689+1059728609+1061322616
1017+1062121664+1062022805+1061591096+1060438461+1057852371+1055112269
1008+1054117511+1054377517+1053933544+1052108668+1049741629+1047997624
1000+1047695770+1048616347+1049510165+1049519456+1049026351+1048486567
991+1047545995+1046136252+1044768134+1043355789+1041428263+1039442686
983+1038328181+1037630892+1035765877+1032082974+1027148353+1021538221
974+1015787085+1011172827+1008686637+1007482491+1005775056+1002928068+999837946
964+997297421+994823198+991543089+987524586+983427664+979391321+975235977
954+971267720+968008126+965563561+963716163+962068118+960011035+957279407
944+954461259+952449071+951590634+951823436+953286250+955812579+958225925
934+959243057+958686474+957325046+955949346+954688709+953039103+950918765
924+949412170+949559566+950885465+952113174+952662547+952486088+951418040
914+949664223+948067020+947321490+947503301+948336466+949130236+948564659
904+945813037+941949660+939210153+938820292+940207067+942022875+943068475
894+942620637+940957875+939343427+938807061+939340974+940059299+939686757
884+937492312+934268545+931802573+931040616+931479163+932384577+933525988
874+934552263+934772057+934134751+933578465+933711368+934001626+933774102
864+933306789+933458348+934554344+936032991+937170463+937664237+937349004
854+936261407+935123563+934710735+934926143+935478638+936720395+938436824
844+938703891+936037971+931956139+929230680+928706282+929382165+930383762
834+931451289+932344885+932904367+933257508+933695238+934560960+935815353
824+936745965+937099032+937892505+939752167+941621865+942492195+942963596
814+943943785+945327364+946667088+947763605+948568078+949593610+951579856
804+954109529+955438401+954270008+951252655+948464016+947618364+948803184
794+950390873+950297515+948288226+946506387+946627991+947610559+947522627
784+946317663+945331229+945327885+946133919+947102885+947439749+947202636
774+947450750+948500735+949389722+949319034+948252324+946182234+942884657
764+938973486+936621833+937920379+942176441+946198066+948186171+949577034
754+951922815+954292307+955104139+954742970+954721265+955201214+954807339
744+953104439+951886467+952829641+955175570+957015981+957800163+958240345
734+958553200+958182740+956904189+955346306+954478726+954822131+955785225
724+955551532+952551349+947793634+944557974+945030342+948298929+951979157
714+954644631+955814585+955089571+952409453+948449448+944792634+943225163
704+943784719+944310976+943060076+940583177+937580691+932908157+926116030
694+919782816+917070959+917843620+918514300+916264404+912472533+910253039
684+910039638+910130469+909613875+908524272+907077438+905493614+903416834
674+899479573+892332445+881577859+868830708+860733792+864531683+875000322
664+882301610+884809654+886145438+887827675+886942405+881200337+874225729
654+871868799+874812639+877716638+875545012+869359938+864439291+864682871
644+869611917+874856865+875988986+872347856+866130522+859360768+853711910
634+851014697+851476435+852978421+852960954+850527092+847565784+847167152
624+848756402+847273667+841101080+835619539+834741181+835049428+832622479
614+831267666+836086926+844829028+850941779+850524267+844528437+834816032
604+822644195+812562444+811396801+820811366
##END=
