##TITLE=<SNM>
##JCAMP-DX=4.24
##DATA TYPE=INFRARED SPECTRUM
##DATE=2/5/2025
##SAMPLING PROCEDURE=Instrument type and / or accessory
##ORIGIN=Admin
##XUNITS=1/CM
##YUNITS=ABSORBANCE
##RESOLUTION=4
##FIRSTX=4497.3318
##LASTX=599.83466
##DELTAX=-1.4281778
##MAXY=1.6958956
##MINY=0.26478067
##XFACTOR=1
##YFACTOR=1.5794258e-09
##NPOINTS=2730
##FIRSTY=0.29064479
##XYDATA=(X++(Y..Y))
4497+184019276+183480752+183486205+183794658+183902740+183462732+182580942
4487+181949696+182299774+183659292+185403795+186789560+187161885+186175805
4477+184337862+182913831+182758179+183519585+184319502+184749868+184809985
4467+184420999+183610590+182895150+182967607+183951310+185082719+185332470
4457+184539874+183653480+183597042+184316275+185124778+185435269+185044773
4447+184265914+183781582+183927685+184228213+183908552+182814523+181713191
4437+181577144+182505353+183607552+184096866+184025824+183753863+183320931
4427+182713233+182210334+181985887+181695774+180935369+179897796+179101200
4417+178658172+178358625+178273205+178643737+179316534+179817036+179837113
4407+179295947+178135046+176375579+174324169+172618366+171926456+172307272
4397+173004937+173257934+173145399+173232593+173690923+174289601+174856768
4387+175192940+174960454+174220691+173663600+173788835+174188652+174048964
4377+173219800+172405032+172301743+172916743+173833083+174716609+175189676
4367+174739818+173361884+171845300+170900789+170434119+170071681+169948938
4357+170496821+171710499+173055827+174002395+174388494+174354964+174078249
4347+173513723+172570967+171635777+171387479+171899077+172541475+172880986
4337+172958765+172781961+172279704+171577038+170852899+170254975+170097475
4327+170635150+171551678+172043633+171604417+170653170+170156630+170513369
4317+171185448+171646231+171999517+172407787+172711976+172779338+172622367
4307+172245343+171785390+171537677+171600134+171880453+172439733+173166532
4297+173220913+171778390+169394885+167700063+167643626+168760449+170082757
4287+171099782+171781843+172206171+172419241+172444186+172262948+171915455
4277+171657043+171751898+172028273+172096334+172110712+172622310+173595030
4267+174330189+174391626+173953411+173319693+172615423+171918531+171462842
4257+171578755+172301592+173142172+173503591+173305295+173050827+173252726
4247+173815478+174168650+174098533+174066059+174505086+175273492+175945458
4237+176143621+175647704+174634924+173635750+173045770+172919536+173165645
4227+173647335+174206634+174669606+174774442+174400419+173871028+173596294
4217+173590445+173800307+174402721+175219923+175525564+175056158+174562562
4207+174835899+175707557+176401071+176543023+176400128+176291574+176269761
4197+176303612+176298480+176018538+175380668+174653775+174117459+173840045
4187+173877991+174263977+174800991+175159334+175145145+174880128+174844069
4177+175464900+176456150+176997485+176767773+176274837+176093580+176360767
4167+176978767+177706227+178113893+177969035+177560859+177286088+177147608
4157+176921933+176547042+176148508+175913947+176005160+176392202+176815379
4147+177043035+177023166+176774377+176380089+176064050+176034879+176266591
4137+176565798+176803284+176961445+176966823+176674805+176196492+175988876
4127+176293593+176737979+176829871+176560666+176256138+176162056+176316651
4117+176528022+176532721+176399580+176489831+176827003+176950312+176578912
4107+176006688+175721746+175987517+176780906+177799836+178542222+178652606
4097+178252638+177828800+177747456+177903258+177892370+177558576+177250727
4087+177383641+177888634+178347795+178545599+178575544+178455462+178013680
4077+177307315+176796680+176797888+177048394+177127097+177069905+177257294
4067+177849858+178569865+178983211+178948775+178781670+178861807+179159260
4057+179371726+179380085+179248643+179003250+178740215+178655682+178721818
4047+178678758+178430762+178077816+177671262+177347771+177426474+177947015
4037+178472425+178748234+179168694+180192191+181560200+182430688+182257356
4027+181320751+180303462+179636931+179462467+179812375+180497342+181230859
4017+182036022+182928039+183293024+182491220+180963861+179859473+179765165
4007+180440339+181430249+182392704+183080803+183368179+183234680+182749575
3997+182156161+181784346+181752985+181945639+182323832+182975193+183779318
3987+184315558+184233855+183591438+182813711+182397497+182581527+183233699
3977+184065675+184919596+185799669+186637720+187087956+186738123+185656811
3967+184560743+184241271+184907576+186063704+186863338+186733670+185898731
3957+185230351+185456119+186575943+188151078+189917809+191615725+192483382
3947+192025373+191177755+191291611+192131379+192225838+191065842+189541899
3937+188628616+189017037+191176396+194448107+196648658+196137173+194029723
3927+192789929+193315018+194404783+194806223+194942175+195923896+197599188
3917+198286192+196540990+192962034+189525766+187616818+187526983+189440817
3907+193955303+201058288+208850956+214314557+216005359+214370504+209920437
3897+203856139+199071373+198200904+200957829+203590802+202859474+200919185
3887+201752613+205192259+207791683+208699834+209672158+209589417+206302252
3878+202465884+202483998+206780659+212639208+217805092+220521203+219315525
3868+216317605+215292994+216099912+215079944+210660520+205775635+204030791
3858+207271274+216398383+230391132+240692011+236517094+223112929+210893705
3848+204007262+202919232+206504076+212795312+220118065+227544466+233254516
3838+234100454+229792321+224150087+219785290+216296735+213287173+211864481
3828+212502294+214166170+216999741+222775550+230066565+232839943+230020298
3818+227165046+225373596+220702611+213204281+207579765+207083791+211755361
3808+218493456+223113721+225842229+230076980+234856709+235251412+231484954
3798+227903809+225091730+221399653+217565814+215686660+216325813+218787228
3788+222428075+226496420+229887554+232582210+236059519+240649122+244034010
3778+244540984+244210719+246285092+252421809+262337948+273415253+281920513
3768+287212631+291826764+297297007+304119880+313704678+326681439+340439192
3758+351628183+361311194+373935557+392750036+416378208+436871206+448266436
3748+455779352+465869369+477561410+484209027+485226637+487681505+496478424
3738+511792537+529110320+541080491+543643744+539650517+535182581+534420496
3728+537666017+541942356+543984368+543506981+541800725+539182110+536291140
3718+535183525+537948487+545857880+558635384+571931561+578369807+576515240
3708+571914239+569447295+571441644+577701426+584606153+587902733+587403118
3698+585512850+584477051+586749153+594093643+605294597+615546587+619151677
3688+615322233+608811078+603755332+601798533+602913054+606055927+611189451
3678+619100504+626141088+625049021+618570396+615726711+616136434+611426220
3668+599875509+588712104+582639240+581506755+583524351+587624226+593583951
3658+599984270+603816695+604915253+607763240+616185985+628813479+637861923
3648+636043094+625854429+614742311+607835093+606436365+608683145+611757523
3638+614698119+618414084+623269289+628943978+636474744+646580875+654409131
3628+652804730+644882356+639388885+640236938+646938633+656715613+665632086
3618+671697743+676365955+680822909+684325917+686602510+688623087+690154955
3608+688776606+683460882+677485269+675267774+678391665+684516268+689899392
3598+693228503+695511058+697189652+697764556+697903281+699521192+703009256
3588+705852978+705862488+704337338+703267914+702572097+701483728+700442155
3578+700517254+701738536+702923515+703604764+705737273+711907540+721202829
3568+727663001+725603553+717252624+709357194+705613643+705834034+707860725
3558+709565660+710265326+710448884+710461640+710308498+710814491+713286191
3548+717009288+718530212+715439833+709473050+703897839+700470081+699617274
3538+700947922+703112281+704828840+706252248+708017489+709336589+708810896
3528+706983690+706027857+706662462+707295935+706866928+706164998+705295208
3518+702947894+699471906+697774745+699617953+703313879+706157224+707232988
3508+707080752+706449242+705712366+704207745+701162048+697450272+694602550
3498+693088645+692769984+693811029+695862023+697630963+698631402+699799172
3488+701352701+702152298+701744423+700687755+698932401+696624033+695514455
3478+696673017+698754353+700384189+701535580+701466595+699224344+696586219
3468+696228386+697747875+698903192+699151207+699068183+698298928+696526593
3458+694760522+694142219+694349553+694135125+693293412+693055813+694115199
3448+695358370+695382522+694294229+693012716+691841172+690919304+691416316
3438+694502619+699193172+702963593+704552219+704760534+704309336+702577833
3428+699080184+694813657+691457677+689878108+689609110+689627828+689546540
3418+689555295+689378605+688431830+687084577+686755123+688472512+691822228
3408+695006197+695749413+693231371+689385549+687355613+688639843+691962085
3398+694723916+695283497+693868693+691911516+690984138+691999974+694680290
3388+697688325+699497342+699093166+696474363+692553140+688626861+685994246
3378+685443872+687041329+690245904+693702117+695911159+696566973+696390358
3368+695667672+694072177+692086395+691392163+693275977+697196294+700958337
3358+702058858+699586026+695142583+691599572+691016819+693449498+697140744
3348+699731545+700404190+700757721+702202414+703348749+701869412+698297041
3338+695538154+695191643+696290729+696822234+695300329+692004956+689013300
3328+688034975+688992770+690823902+692579180+693869222+694685951+694876076
3318+694222300+693332887+693571694+695507058+698211376+700326827+701150425
3308+700858029+700196706+699568365+698440975+696291182+693548975+691387559
3298+691317140+694329627+699333256+703275612+703987731+701800351+698337874
3288+695591743+695335048+697365135+699064636+698352592+696428700+696148003
3278+698403086+701300623+702731805+702723050+702527491+702446504+702113352
3268+701952587+702235548+701858846+700315883+699380882+700674169+703123905
3258+704414097+703626351+701403119+699002745+697885997+698830282+701082496
3248+703239761+704534482+704611845+703008803+699650257+695482076+692176966
3238+690899680+691240607+691783433+691785923+691525530+691120524+690340023
3228+689497556+689319432+690032759+691211624+692131907+692017485+690642004
3218+689031414+688888009+690828581+693527163+694983781+694430992+692687790
3208+690780201+688848610+686773388+685325148+685796573+688447152+691929404
3198+694177844+693644528+690329381+686029644+683203885+683177846+685360773
3188+687913760+689217992+689005148+687882211+686196598+684260781+683098898
3178+683653196+685267937+686199240+685758382+684781945+683858190+682299603
3168+679548491+676523474+674576637+673875537+673650316+673570387+673843234
3158+674183254+673724585+672154979+670459176+669961183+670630432+671025324
3148+670106928+668285684+666511612+665418035+665470039+666617807+667590396
3138+666808234+664222566+661262685+659129044+657960972+657310140+656684894
3128+655806349+654887198+654270481+653693389+652779597+652057288+652385006
3118+653676407+655146007+656226149+656379668+654800476+651380945+647653470
3108+645667913+646052843+647705322+649069255+649265192+648289962+646726243
3098+645242000+644192049+643743795+644118082+645168713+645974046+645509413
3088+643556010+640711231+638078540+636806236+637032438+637597303+637499712
3078+636881561+636092456+634959556+633337192+631443868+629642323+628344583
3068+627826853+627943992+628229406+628242048+627851458+627363164+627179416
3058+627245949+627092128+626301362+624750625+622762201+621037793+620079470
3048+619791150+619895307+620384960+621128742+621528087+621173499+620458852
3038+619923498+619339085+618180975+616769455+615925591+615608855+615047047
3028+613959848+612691052+611518075+610397892+609002071+607072065+605149569
3018+604214229+604202454+603970251+603134464+602608243+602827087+602885807
3008+601960165+600675709+600318102+600937838+601019541+599375780+596702558
2998+594575144+593622444+593400204+593322879+593103431+592801375+592634421
2988+592471543+591873959+590805856+589637671+588496129+587367191+586434002
2978+585681389+584861301+584146615+584004229+584366667+584581321+584040231
2968+582556216+580510316+578778964+578146057+578661862+579539124+579699738
2958+578748924+577370009+576394968+575751306+574774566+573240283+571536631
2948+569978422+568504633+567134247+566221549+565885076+565613399+564978605
2938+564279882+563885707+563539233+562939196+562408371+562388558+562621101
2928+562225567+560592523+558072179+555617764+553819918+552554368+551517738
2918+550665723+550084933+549818992+549736572+549415910+548540687+547457865
2908+546757898+546340212+545533143+544098451+542536279+541409568+540787417
2898+540263347+539359178+538077552+536955936+536399599+536201399+535856208
2888+535180279+534518352+534249920+534042020+532984257+530816010+528466620
2878+526941017+526363434+526366717+526626545+526775762+526465290+525737660
2868+524940516+524143486+522992547+521400676+520036856+519587432+519737668
2858+519505465+518485138+517208153+516368517+516111671+516049931+515737535
2848+515044964+514136493+513311461+512888302+512845923+512533715+511210237
2838+508923945+506465945+504506918+503170270+502299122+501735616+501395783
2828+501250869+501147542+500672192+499517290+497998518+496746365+495891520
2818+495097962+494300252+493707838+493165880+492205595+490713239+489149973
2808+488096851+487730715+487679165+487369486+486547699+485325284+483837193
2798+482192299+480697150+479740525+479369333+479155659+478572529+477537446
2788+476488400+475763186+475113297+474149879+472994374+471999181+471120598
2778+470143557+469192479+468458623+467760165+466839165+465770910+464719185
2768+463614060+462367606+461148777+460156149+459239678+458081342+456775375
2758+455811731+455421933+455358269+455303624+455083233+454534747+453561441
2748+452238115+450710398+449183511+447959625+447206220+446724530+446149589
2738+445346822+444495638+443825861+443363493+442987734+442631410+442229423
2728+441538814+440303229+438674223+437218246+436341890+435843143+435225822
2718+434402639+433758901+433429334+432918321+431726021+430103431+428834900
2708+428342077+428283696+428053116+427401038+426454904+425394839+424316810
2698+423268293+422316612+421596341+421161635+420771196+420045491+418880287
2688+417574508+416599505+416239483+416270541+416080529+415333766+414328233
2678+413511692+412962111+412497554+411952426+411201889+410185600+408992319
2668+407754507+406541300+405526408+405027018+405059360+405058907+404413547
2658+403145695+401770290+400683694+399975689+399604722+399448939+399274702
2648+398857771+398176521+397465723+396987618+396673372+396143868+395215697
2638+394186615+393458306+393044620+392592630+391831149+390892903+390142630
2628+389778796+389711585+389750795+389725774+389465834+388886591+388085447
2618+387229772+386414514+385677563+385048694+384522812+384029952+383471993
2608+382811839+382119947+381501796+380970216+380410370+379676665+378781364
2598+378013468+377714393+377815569+377768359+377136546+376128824+375308018
2588+374880709+374530122+373923782+373174302+372700990+372675441+372741860
2578+372429539+371754290+371123534+370696112+370273331+369832625+369615291
2568+369577175+369284893+368529903+367614035+366891613+366394488+365986426
2558+365567758+365077426+364549771+364175144+364083289+364085252+363839237
2548+363289090+362767699+362592405+362653503+362547044+362106526+361568455
2538+361135712+360709685+360240185+359961488+359990019+360028021+359766797
2528+359315939+358991466+358911726+358975805+359014675+358818097+358219117
2518+357328232+356550826+356214465+356246128+356307980+356180878+355918523
2508+355677376+355523366+355423171+355335656+355239801+355075942+354730487
2498+354178189+353608456+353246735+353046798+352759271+352321433+351951788
2488+351829327+351880764+351918654+351845102+351676639+351440435+351118114
2478+350719938+350337047+350019329+349678553+349235998+348778234+348423344
2468+348133553+347809797+347494985+347344183+347428603+347641107+347744019
2458+347504118+346907968+346246757+345820731+345593924+345362514+345183560
2448+345304359+345682798+345942738+345866130+345614341+345384251+345138840
2438+344808518+344539973+344558427+344828443+344985472+344705719+344112890
2428+343657050+343568743+343642144+343601198+343430621+343264121+343161510
2418+343079996+342966140+342860435+342895721+343107960+343320124+343359523
2408+343294538+343288273+343319747+343247629+343087619+343029012+343165888
2398+343346692+343330955+343055995+342727899+342606835+342687179+342662461
2388+342231415+341340870+340111360+338594399+336604805+333827464+330181956
2378+325992717+321645846+317190817+312488414+307657720+303125328+299202615
2368+295841200+292986062+290910236+289845038+289632157+290234138+292176748
2358+295960415+301418110+308166374+316303253+325741872+334955345+341531750
2348+344023262+342998972+340618712+338606513+336655600+333795424+330007795
2338+325696020+321117927+316728675+313170173+310765515+309348711+308569248
2328+308209320+308144241+308202131+308366141+308966556+310283203+312080370
2318+313858857+315397914+316824417+318345907+320071258+321965224+323895796
2308+325735267+327370915+328664203+329543087+330125651+330645004+331259230
2298+331954556+332590973+333034585+333257655+333336679+333420194+333687569
2288+334225715+334947382+335685427+336285653+336584653+336471400+336025146
2278+335474547+335044596+334879717+334979271+335172037+335272874+335251137
2268+335192190+335176038+335207926+335209776+335130072+335067540+335170679
2258+335435638+335717090+335897856+335976011+336033185+336133908+336228329
2248+336206705+336082735+336047903+336276105+336698131+337056719+337217899
2238+337314396+337504483+337745101+337924886+338074480+338301438+338613495
2228+338930910+339243080+339649332+340188044+340695434+340949223+340909636
2218+340708341+340477723+340321336+340356281+340621090+340987792+341297547
2208+341536920+341774406+342012006+342233642+342498036+342816999+343033805
2198+343005916+342852284+342861115+343176945+343688411+344206216+344643451
2188+344993699+345239148+345366778+345420593+345473993+345582490+345769898
2178+346008365+346247474+346505377+346851021+347271613+347666769+347972712
2168+348189103+348343641+348534823+348899298+349431859+349950381+350297912
2158+350450299+350436977+350342896+350367200+350674464+351180004+351642938
2148+351952165+352176141+352372115+352526804+352681531+352927886+353238169
2138+353467089+353578869+353697707+353879303+354033727+354137696+354304008
2128+354564137+354779207+354838230+354802756+354806039+354901026+355042242
2118+355170816+355283502+355407925+355554991+355744021+356031624+356439762
2108+356877261+357188563+357285210+357230867+357196450+357289135+357441937
2098+357545189+357637760+357850943+358197191+358529966+358704883+358714129
2088+358658012+358611934+358555591+358447357+358299462+358141641+357988348
2078+357867661+357792261+357720520+357651761+357697123+357955063+358407657
2068+358977013+359542406+359910580+359945752+359726946+359442891+359186044
2058+358936029+358663635+358385467+358180435+358174963+358432489+358811531
2048+359023468+358948709+358833419+358989315+359338846+359488478+359243256
2038+358820814+358558723+358596159+358825947+359048376+359161968+359203178
2028+359229255+359274276+359402586+359670905+360083534+360682665+361516679
2018+362382656+362865969+362843590+362661240+362641201+362757132+362896424
2008+363068321+363240294+363290599+363210783+363154855+363256748+363468459
1998+363628620+363812027+364441651+365631158+366610841+366462945+365270948
1988+363839652+362690449+361924628+361537548+361394407+361230510+360903320
1978+360492314+360181728+360099157+360163048+360218901+360431366+361136089
1968+362071845+362305595+361362669+359886239+358764207+358239684+358144735
1958+358358899+358713110+358915990+358816324+358473359+358009444+357629873
1948+357706972+358690580+360702930+362865101+363422117+361569399+358678806
1938+356644039+355943996+355860481+355693905+355306674+354881364+354553986
1928+354479340+355123983+356762801+358592838+359488025+359678641+360007152
1918+359903447+358203456+355558689+353826356+353765182+354632443+355250896
1908+354986767+354076296+353188430+352648246+352251655+351815175+351634334
1898+352180255+353289681+354071616+354215286+354702183+356115138+357175241
1888+356433347+354498322+352891279+352075531+351714452+351594671+351640901
1878+351732604+351789136+351911257+352757686+355553406+360703572+365966877
1868+367356095+363758666+358412412+354661049+353219300+353045289+353047817
1858+352824747+352497406+352307093+352373323+352826370+353951458+356057701
1848+359489875+364327682+368926607+369775791+365924988+361055631+358472227
1838+358158170+358411091+358543250+359838764+363702926+368999102+372264548
1828+372059215+370412283+368606172+365939743+362642823+360360155+359836047
1818+360298755+360880413+361773902+363750627+366658580+368869396+368909851
1808+367308281+365946121+366404300+369238135+373563119+377121187+378099964
1798+377273536+377317161+380290967+385690243+389563613+387799467+382090625
1788+377574686+376605419+378051433+380136920+382295468+384133543+384857776
1778+384957443+386701890+392056144+400255706+406753200+407104543+402571584
1768+396980712+392562855+390987777+393237613+397441985+400016634+400432283
1758+400737283+401275278+401822821+404361544+410778505+419058486+424044152
1748+423529403+420347962+417893320+417584056+419241441+421474220+422623498
1738+423595294+427915183+436648966+443768348+442331089+435630148+429415162
1728+425283775+423680771+424831446+427840574+432344776+440215261+453150812
1718+467908136+475518039+472086884+464090354+458104061+456581741+459944250
1708+467554680+477017263+485045418+491749152+500938434+513705787+524364519
1698+528135392+526762176+521574196+514823931+511717400+514692904+521933312
1688+531575416+545046623+562543662+574995750+573854246+566524360+562475922
1678+564796744+572611301+582005351+589266629+595762538+603984592+610764141
1668+611181299+608462943+609346545+614907000+620501684+622376592+622942439
1658+627098166+638182622+657237230+677952619+683713577+676361955+673495061
1648+678178670+681295013+674606148+663153594+655166310+653157658+657010499
1638+665527476+673562990+671634192+658852801+645878493+638993918+637167843
1628+636826841+636045812+635306672+633865904+629602773+624158287+621986983
1618+623704184+623832908+617716985+609169817+603451993+601283784+600682011
1608+599733462+598001091+596014969+594161609+592387953+590626713+589222702
1598+588687499+588893474+588876605+587867750+586183269+584669365+583689191
1588+582934390+581958443+580723952+579584674+579032904+579995265+583892751
1578+590897673+596936384+595995571+590465193+588183128+591263808+594857162
1568+593875252+590112077+587952170+589807681+598175102+616013295+638733524
1558+645998273+633085176+618564018+610224372+606996966+606590865+607331439
1548+609562331+615663575+627264176+643397510+661418242+675424086+674973718
1538+662288635+652733632+652690610+658112453+661586328+661892007+664328987
1528+671719556+681893993+692022466+702172374+711905351+717682084+718706827
1518+718367560+717470222+714863118+712416703+714066314+722297312+737242685
1508+754624359+761260994+749248481+733202361+725087069+725268816+730549216
1498+736664687+739061514+737096110+735803729+739922246+748965520+756708714
1488+756724489+750209974+743215732+739734990+740030479+742237332+745262575
1478+750219333+758521580+769315981+778444392+780159441+774038083+767266798
1468+765933131+770148561+775095960+776107116+775352806+778821698+788814314
1458+800209053+801788849+791728380+780502934+773849619+771586159+771926783
1448+772298655+770545340+767059767+763865004+762155163+762429368+765467291
1438+770759617+774076123+771365843+765829653+762917851+763203529+763472829
1428+762038778+760884669+761808726+764236876+767641161+772685019+777688119
1418+777402215+770507149+762237658+756979599+755217754+755182129+755280022
1408+755630459+756947068+758447161+758798881+758903340+760846025+764654335
1398+768307391+770250001+770000551+767647124+764957901+764758040+767899592
1388+771867610+773056438+771462302+770880379+773995439+780210161+787497478
1378+794632483+801420524+807506484+811928190+814399059+816041726+817785909
1368+819506695+821515120+824943482+829443910+832169286+830722329+825967470
1358+820422298+815732349+812253040+809753264+808118446+807289263+806741531
1348+805644030+803767008+802040864+802025165+804582606+808851925+812612761
1338+814062510+813317710+811934832+811337210+811945625+813501042+815768729
1328+818555089+821369904+823782430+826037965+828776473+832181739+835771092
1318+838963968+841624132+844009713+846308194+848422287+850261570+851997526
1308+853868735+855895879+857914871+859822687+861701821+863656130+865511339
1298+866829005+867359000+867216652+866552837+865434806+863905429+861777826
1288+858704505+854772263+850522416+846234605+841939548+838123690+835528889
1278+834233715+833596694+833022168+832360618+831771525+831532492+831840737
1268+832625842+833597072+834457200+835073465+835502095+835826492+836083036
1258+836420793+837042114+837916206+838900191+840106152+841726780+843609537
1248+845463010+847290066+849231921+851237252+853089895+854563118+855615484
1238+856581733+857833734+859186648+860257959+861365650+863219500+865869021
1228+868840676+872008116+875410364+878524744+880601249+881572026+882108814
1218+882974981+884636819+887239319+890530616+893893238+896875912+899607250
1208+902306737+904778738+907053671+909957699+914148221+919020446+923175947
1198+925497750+925777918+925226488+926082692+929513167+934074052+937251229
1188+938328955+938661278+939514387+940827298+941995068+943008413+944407971
1178+946428700+948753824+951104006+953630200+956634083+960017612+963247547
1168+966121761+969066245+972146434+974692101+976525949+978251490+979887439
1158+980815346+981155970+981681739+982608060+983648954+984809025+986324062
1148+988221009+990238039+992043811+993712517+995856423+998814341+1001854905
1138+1003570407+1003113398+1001173278+999717793+1000454140+1003563614
1130+1007928487+1012117198+1014971562+1016035175+1016109896+1016953496
1121+1019873977+1024422559+1028349896+1029468304+1028030178+1026274522
1113+1025340201+1024587551+1024329120+1026314148+1030323979+1033028976
1104+1032118958+1029395016+1027793031+1027745104+1028336083+1030068341
1095+1034130176+1039711803+1044162416+1045893844+1045450873+1043762316
1087+1041228274+1038884054+1038675965+1041490327+1046249488+1051276213
1078+1055028746+1056235160+1054981800+1053218823+1052957902+1054485090
1070+1057078231+1059643596+1060724418+1060191781+1060102417+1061739650
1061+1063317936+1062719182+1060500404+1058729653+1058951856+1061198937
1053+1063996015+1065669099+1066002026+1065986176+1066475564+1067914672
1044+1070328858+1072790670+1073741823+1072475028+1069875774+1067922823
1035+1068146309+1070196850+1072506954+1073720992+1073436672+1072463631
1027+1072047605+1072219465+1071982771+1071183401+1070545928+1070314970
1018+1070182434+1069789882+1068659170+1066802377+1065169371+1064447364
1010+1064255427+1063893745+1063120414+1062231982+1061413819+1060118493
1001+1057661889+1054645855+1052820233+1052973374+1053982040+1054294286
993+1053392872+1051424901+1048315125+1043884513+1038542976+1033328240
984+1029097413+1025780907+1022453985+1018616843+1015370379+1014225177
975+1014705282+1014528365+1012515260+1009790413+1007562351+1005160015
967+1000872354+994178961+986674423+980647562+977056246+975099446+973118419
957+969781157+965171363+960655312+957206797+954383680+951444027+948701519
947+947116138+947078702+947818596+947801690+946183326+943934433+942748624
937+943154762+944122671+944182146+943027358+941938083+942100433+942960260
927+943106533+942241800+941222870+940840582+941377822+942636617+943893751
917+944267208+943367983+941474206+939438080+938331748+938359825+938302614
907+936854827+934132320+931186025+928822030+927482552+927400282+928334982
897+929493996+929820507+928443517+925469824+922460808+921385950+922746562
887+925065195+926525285+926848701+926938292+926985842+926326707+925227696
877+925056591+926245796+927271822+926358784+923851988+922118070+922740750
867+924225898+923808363+921318776+919165813+918943913+920033867+921015738
857+921106234+920571937+920164063+920063378+920089040+920786819+922704974
847+924869259+925923663+925979591+925659571+924946546+924054869+923656505
837+923775229+923763908+923078356+921535468+919790682+919365599+920944640
827+923252857+924909488+926289044+927858952+928501860+927693508+927599389
817+930810757+936706440+941401975+941955292+940004078+939737872+942367921
807+944595379+943285940+939336187+935445835+932965606+932029926+932259148
797+932832164+933540057+935238501+938045768+940499353+941610969+942199911
787+943228125+943974360+942915955+940104008+937493206+936654815+937321497
777+938604067+940132916+941620328+942749228+943399456+943008791+940665628
767+937037555+934776737+935552558+937890362+939166290+938765284+937919572
757+937622572+938220571+939966868+942779947+945913347+948262246+948863416
747+947493067+945158886+943477952+943184651+943730873+944375818+945125374
737+946288163+947488765+948032572+947967209+947823352+947699042+947501445
727+947580016+948246396+949090373+949529645+949652672+949655691+949189851
717+948113030+947476085+948161863+949287744+949789435+950035865+950410756
707+949954426+947463103+943478480+940274736+939156327+938658485+936616850
697+932960398+928595979+923651448+919053429+916801818+916551539+915187455
687+911245099+906890189+904511854+903585155+901628809+897417681+892314876
677+888356293+886309073+885859837+885393696+882060811+874983470+869116693
667+870576330+875714458+878219291+878309410+879188181+881389977+881507041
657+876633081+868686252+862347446+859991226+860365588+860852033+859738531
647+856799406+853034722+850097484+849530430+852070436+856253109+857962950
637+853861263+846559153+843189059+847456038+855354563+859959224+859140230
627+855722132+852341094+849413895+846488356+843055239+838071838+831187489
617+824466396+821365375+823799336+829682114+834308059+835640216+835720976
607+835737958+834535620+832066336+829794498+827262493+823338704
##END=
