##TITLE=<SNM>
##JCAMP-DX=4.24
##DATA TYPE=INFRARED SPECTRUM
##DATE=2/5/2025
##SAMPLING PROCEDURE=Instrument type and / or accessory
##ORIGIN=Admin
##XUNITS=1/CM
##YUNITS=ABSORBANCE
##RESOLUTION=4
##FIRSTX=4497.3318
##LASTX=599.83466
##DELTAX=-1.4281778
##MAXY=1.8485067
##MINY=0.3862935
##XFACTOR=1
##YFACTOR=1.721556e-09
##NPOINTS=2730
##FIRSTY=0.40563992
##XYDATA=(X++(Y..Y))
4497+235624002+237056510+237363629+236668720+235629334+234606099+233671758
4487+233080613+233163430+233857993+234621454+234871931+234577553+234305870
4477+234491949+234935792+235326629+235712462+235965969+235581295+234581032
4467+233783329+233743323+234190369+234645500+234885607+234895509+234944275
4457+235434876+236303798+236905296+236640831+235529604+234284525+233853682
4447+234448099+235082903+234650104+233216021+231760178+231087549+231420756
4437+232516352+233751338+234436206+234319476+233705255+233145668+233080734
4427+233503717+233867496+233738424+233492154+233801748+234521118+234717324
4417+233915379+232747094+232228881+232787619+233902102+234502716+233997504
4407+232954465+232345992+232320665+232312425+232027724+231662664+231461109
4397+231588572+232167512+233069482+233855223+234109560+233810439+233384131
4387+233306438+233592836+233686473+232897736+231103423+229058737+227794287
4377+227659606+228175828+228710209+229027508+229359988+230064505+230950392
4367+231205542+230476980+229456879+228840442+228441088+227853596+227265220
4357+227167948+227797923+228978759+230124003+230617946+230519099+230364717
4347+230218800+229718279+228951269+228395577+228094361+227682803+227117001
4337+226733903+226684739+226728069+226572527+226219412+225965784+226206099
4327+227151087+228519474+229545911+229552091+228561696+227226529+226201927
4317+225736358+225737881+225897647+225743040+225040324+224386252+224832640
4307+226476848+228014919+228251980+227466239+226777700+226852225+227536263
4297+228159070+228141880+227631544+227243408+227104641+226743355+226000805
4287+225454253+225760196+226811180+227716923+227718343+226951886+226171113
4277+225991318+226484620+227194053+227526880+227336352+226971933+226719084
4267+226624755+226815214+227371009+227966794+228097702+227679981+227223483
4257+227312705+227975380+228654190+228783505+228347867+227917994+228152838
4247+229094883+229931225+229781552+228764359+227889793+227911692+228705570
4237+229658486+230218783+230065699+229156096+227835903+226739840+226327676
4227+226511003+226881239+227204579+227451991+227533389+227375199+227108709
4217+226861954+226602268+226375577+226371439+226637635+227031639+227461651
4207+227951802+228537425+229192103+229824034+230351785+230688143+230593416
4197+229861582+228827666+228280266+228596578+229301078+229719249+229692208
4187+229443861+229206194+229146142+229225046+229094035+228569451+228081533
4177+228160438+228729979+229399717+230108216+230973693+231789036+232020349
4167+231309029+230029865+229187533+229426930+230342852+231088674+231278146
4157+230932440+230097396+229030208+228376171+228644600+229537480+230138043
4147+229922379+229306184+228996001+229170776+229561837+229954007+230305979
4137+230672390+231141629+231580764+231562587+230915873+230118931+229744817
4127+229802395+230013107+230314826+230662211+230837591+230875745+231108894
4117+231525541+231719393+231599599+231496960+231480826+231195433+230462041
4107+229595594+229075010+229199685+229999483+231130533+231886360+231737916
4097+230970819+230436074+230573283+231021991+231266686+231195156+230897661
4087+230377925+229698769+229123412+228851971+228807879+228896236+229225843
4077+229834749+230469433+230882722+231064456+231028465+230679539+230026956
4067+229339889+229010369+229252537+229814928+230084776+229739710+229160320
4057+228895267+228930391+228890593+228778779+228998165+229661446+230329055
4047+230564091+230414435+230183589+229972859+229666138+229252866+228913011
4037+228790049+228914482+229352440+230153208+231106903+231810017+231998641
4027+231713282+231251556+230987091+231033434+231119367+231011604+230845797
4017+230771480+230634340+230378618+230331150+230680959+231123937+231403618
4007+231740755+232345767+232981800+233306179+233257551+233009221+232849594
3997+233035621+233495564+233832424+233775314+233405649+232950034+232676983
3987+232857176+233490042+234187790+234491568+234208338+233553782+233175773
3977+233769359+235340513+237006705+237753323+237273593+235999068+234610202
3967+233751684+233954174+235294776+237027219+238026737+237872026+237161624
3957+236675263+236678033+237146320+238243630+240108106+242101620+242902595
3947+242037516+240733545+240397550+240949122+241286068+240905774+240314041
3937+240203093+241000917+242807573+245049712+246362599+245830883+244443142
3927+244102526+245358891+246911643+247424714+247276184+247795470+249272416
3917+250207726+248805444+245203038+241345879+239028627+238913663+240994824
3907+245237141+251285976+257633898+261991249+263068529+260987281+256349003
3897+250675044+246595106+246066091+248648587+251415135+251873659+251539811
3887+253379878+257031933+259423901+259887687+260363695+260575654+258810320
3878+256440268+256399587+259111726+262879888+266278160+268054885+267131692
3868+265140844+264884014+265969154+265207977+261497341+257544070+256206324
3858+258684328+265554202+275955558+283406087+280475566+271152650+262777353
3848+258458745+258602619+262057118+266865514+271752399+276521187+280305656
3838+280933882+277903301+273650597+270272909+267931282+266297929+265635877
3828+265974745+266940628+269281544+274345195+280495716+282979087+281292710
3818+279614244+278548302+275167532+269720419+265845084+266076224+270327283
3808+275661371+278573767+279871766+282835923+286944528+288165336+286064856
3798+283739935+282016130+280092312+278467147+278249509+279506706+281870093
3788+285487040+290390839+295695652+300620848+305646032+311185639+316201407
3778+319909619+323690228+329658600+338948070+351399514+365069255+376965525
3768+386334974+394801709+402895905+410142299+417200070+424654649+431108014
3758+435086248+437981142+442539131+449906288+458329018+464202870+466985346
3748+470429146+476939084+484403912+488807795+491442467+497662995+510449204
3738+528710586+546679547+556630792+557173605+554595299+554506561+558076076
3728+564263262+571322210+576996983+579787976+579551711+577052587+574361965
3718+573918555+576512752+581136593+585832171+587759123+584728889+578282172
3708+572379167+569836903+570818798+572651300+572012168+569173293+567475230
3698+568222419+570132441+572809214+577859777+586248057+595392009+599781247
3688+597199375+591673756+587155445+584534934+583736746+585461017+591254961
3678+601234147+610093848+610300337+604797846+601900977+601679393+597874584
3668+589396077+581861866+578336945+577356746+576702415+576337597+577407053
3658+579307795+579950459+579689267+581361570+585703652+589622578+588594357
3648+581927164+573097723+564945777+558505776+553772563+550278318+547934510
3638+547435184+549370411+553384479+559067181+567112178+577361801+584497195
3628+581723029+572301336+564553226+562464691+565760618+571718015+576810645
3618+579358206+580617774+582181086+584157479+585899062+586870501+586644000
3608+585231332+583588700+583103707+584444846+586759155+588542008+589853787
3598+592336985+596158136+598924408+599184147+599265371+602176781+607687374
3588+612575107+614187756+612869953+610177981+607336370+605494174+605695193
3578+608287313+612643590+617266738+620620555+622961385+626696672+633273847
3568+639491502+639459995+632810529+625224453+620624640+618418215+616364337
3558+614259771+614128897+616743107+619597874+620002335+619058316+619578001
3548+621838160+624097489+625233385+624844436+622599649+619303929+616889907
3538+616016865+615110447+612550040+609036060+606981004+607745747+610009784
3528+611283894+610838787+610048977+609768673+609475005+608894592+608277688
3518+607342810+605968087+605369602+606727291+609022557+609490031+606745433
3508+602669390+600188616+599941342+599828472+597800076+594566954+592447916
3498+592398336+593479460+594760701+596144703+597031109+596276892+593991527
3488+591616213+590299587+590412595+591545098+591912513+589641066+585606917
3478+582768492+582634295+583954591+584377678+582779155+580050518+578094864
3468+578146486+579726278+581161452+581285331+580364926+579175537+577994493
3458+576943491+576335104+576092435+575662492+574811539+573753855+572784424
3448+572431759+573096200+573888606+572907299+569504111+565280680+562196020
3438+560758042+560457657+560798758+561288944+561512675+561686411+562103335
3428+562236493+561503534+560214710+558757032+556972621+555150783+554347886
3418+555137107+556892089+558279518+558112706+556268017+554000414+553062385
3408+554119308+555829350+556088742+554591767+553044209+552500842+552221404
3398+551344346+549996282+548515165+546945725+545467273+544297274+543327600
3388+542544023+542593948+544288687+547149617+549005351+548167277+545683526
3378+544130081+544498846+545306694+544748855+542947237+541543224+541590726
3368+542491119+542955685+542603677+542132949+541941244+541432570+540230164
3358+539147898+538947468+539008092+538409018+537511602+537322666+538137300
3348+539629082+541413354+542838107+542942320+541400648+539164170+537506270
3338+536630112+535849512+535027850+534854079+535462155+535962035+535824895
3328+535698211+536255634+537023181+536903284+535553247+533950985+533540708
3318+534745538+536382491+536914294+536261763+535733734+536285306+537630842
3308+538949164+539699331+539738420+539290369+538803853+538471477+538103301
3298+537436782+536273500+534691457+533451105+533533437+534872775+536254180
3288+536770541+536589084+536016531+534999355+534084143+534502660+536384084
3278+538024015+538059850+537329106+537259342+537698667+537824174+537978279
3268+538977208+540374713+540757880+539546368+537641609+536267683+535688136
3258+535343019+535052501+535425732+536712098+537946218+537969969+536856093
3248+535585342+534590463+533377705+531625977+529867360+528786617+528547652
3238+528957168+529631442+529923795+529331888+528172794+527464556+527846892
3228+528605368+528177157+526024639+523450487+522096053+522342324+523422478
3218+524317020+524268722+523117765+521387815+519632383+517849322+515979254
3208+514607371+514581369+515907655+517337497+517342794+515484914+512738515
3198+510619131+509991113+510418286+510750385+510497052+510133861+509953443
3188+509589353+508920584+508295024+507658973+506678047+505695321+505302736
3178+505145238+504390640+503130760+502110988+501408011+500515789+499359638
3168+498215640+497022824+495641523+494446284+493965619+494171658+494567117
3158+494700483+494405602+493805178+493145480+492467259+491411895+489512710
3148+486862528+484431194+483336949+483669741+484362261+484340899+483448468
3138+482241526+481390920+481257761+481598343+481752587+481343244+480538547
3128+479570951+478400190+476990360+475650295+474816549+474440756+473901752
3118+472852585+471759344+471103143+470611087+469891354+469243428+469098671
3108+469144407+468784229+468125362+467700370+467448734+466816561+465802155
3098+465075324+464981670+465062063+464601030+463251097+461283706+459558014
3088+458901744+459220825+459616457+459550293+459347094+459433858+459688507
3078+459664375+459068971+458024582+457007752+456372186+456015955+455746834
3068+455644905+455717197+455594772+454922506+453755138+452496678+451723452
3058+451787643+452280875+452370098+451841931+451174893+450626887+450047202
3048+449497534+449280278+449357452+449302644+448788119+447808474+446623413
3038+445664438+445212337+445040298+444644250+443853368+442859112+441765317
3028+440632363+439769570+439410776+439220629+438577619+437357556+436132160
3018+435425168+435056888+434641625+434374547+434595369+434930412+434666761
3008+433673094+432328285+430964676+429837159+429144223+428802776+428570943
2998+428366012+428188606+427973774+427742460+427619516+427558407+427290982
2988+426625052+425661196+424701216+423964345+423363817+422635982+421736488
2978+420932172+420390398+419940825+419418717+418966235+418768748+418682226
2968+418304459+417347354+415909203+414415586+413254312+412539564+412291147
2958+412559195+413128978+413404712+412958877+412002568+411025001+410230621
2948+409582833+409035659+408429799+407563024+406641164+406224239+406511364
2938+407074015+407365190+407161194+406536257+405647185+404589190+403453466
2928+402462258+401774273+401222147+400541711+399675247+398727489+397929925
2918+397569712+397595748+397530000+397050824+396321881+395612430+394973506
2908+394334651+393693891+393155234+392770820+392415385+391974328+391547363
2898+391305386+391295345+391424799+391453155+391095296+390322971+389442866
2888+388794317+388453077+388186518+387692939+386936714+386113216+385323788
2878+384597130+384148283+384230166+384721979+385093236+384885466+384236398
2868+383742334+383659967+383563024+383022878+382190102+381407736+380739313
2858+380148583+379701814+379367257+378919622+378247667+377574432+377165748
2848+376949772+376669710+376304997+376032898+375847425+375514945+374904584
2838+374184851+373628432+373264618+372874526+372381882+371969597+371666753
2828+371182349+370355217+369456935+368864024+368631464+368476563+368111918
2818+367578904+367186596+367067114+366955768+366548676+365923531+365401908
2808+365051563+364550367+363668496+362698511+362109408+361895926+361637711
2798+361131979+360587851+360239341+360075749+359889376+359413663+358551804
2788+357537121+356715424+356243900+356126010+356319896+356618204+356624401
2778+356060400+355014419+353826588+352805570+352050279+351452832+350849915
2768+350210956+349676523+349383789+349262195+349057333+348592249+347978599
2758+347519504+347365053+347276073+346825322+345875383+344744265+343872469
2748+343474968+343498026+343704134+343760708+343424696+342731449+341940497
2738+341255663+340632249+339907080+339089850+338418899+338111140+338131152
2728+338221620+338115052+337723713+337165287+336610495+336107776+335572269
2718+334954533+334373636+333954392+333556129+332916581+332109634+331546671
2708+331451251+331605530+331636794+331355936+330854428+330362788+329962101
2698+329493381+328826170+328049898+327331965+326789811+326502755+326443412
2688+326439535+326344427+326148844+325863589+325440120+324868191+324257484
2678+323786582+323557520+323457945+323228363+322729418+322046765+321332433
2668+320722661+320364040+320283958+320303520+320266405+320204915+320140102
2658+319956464+319604387+319209794+318913217+318738754+318599779+318364000
2648+317955004+317385567+316722441+316111492+315724897+315538108+315329715
2638+315015654+314766614+314728529+314808853+314746845+314330231+313619708
2628+312924072+312476264+312268736+312227570+312294668+312321951+312156040
2618+311837962+311533907+311315266+311121207+310875940+310567558+310229468
2608+309874795+309484945+309083289+308759395+308561908+308416321+308214956
2598+307950059+307685369+307415140+307028476+306445502+305780645+305326605
2588+305287932+305500549+305548328+305254209+304903379+304825582+304936755
2578+304922421+304707692+304446534+304172289+303795977+303375209+303065060
2568+302838421+302507845+302005576+301496348+301245507+301401620+301817714
2558+302117753+302047573+301690615+301263234+300846725+300433817+300097943
2548+299971190+300096489+300371842+300612261+300638505+300351726+299784540
2538+299089908+298459951+298046869+297933169+298090701+298330670+298397526
2528+298209838+297959136+297899343+298082530+298332851+298420100+298230126
2518+297825112+297403063+297178051+297220533+297388002+297469054+297409295
2508+297310482+297241030+297183556+297142078+297143117+297143844+297063312
2498+296903010+296763689+296723007+296718437+296600443+296328379+296035784
2488+295854431+295777881+295749837+295760881+295788995+295752087+295603141
2478+295405827+295238531+295078229+294877245+294702401+294654830+294681801
2468+294635753+294502213+294395749+294349459+294290185+294204910+294131510
2458+293996967+293701013+293370957+293277026+293454985+293652957+293669264
2448+293531536+293359670+293250055+293259160+293345405+293361851+293210585
2438+292986889+292903206+293046959+293239425+293203072+292875716+292476968
2428+292262758+292308218+292519934+292754606+292913558+292994333+293060219
2418+293137843+293179598+293150584+293098339+293098858+293174300+293290805
2408+293394881+293423444+293326432+293131680+292971585+293004442+293289317
2398+293732520+294143108+294352263+294324669+294186664+294125555+294220386
2388+294362131+294308119+293761603+292429604+290132087+286923253+283060969
2378+278833419+274435213+269948028+265364332+260692038+256098631+251863670
2368+248195014+245232813+243117843+241859608+241369803+241823549+243714390
2358+247399526+252816760+259808297+268442501+278298812+287484345+293413854
2348+294656457+291955864+287936810+285083688+283629610+282521152+281427842
2338+280562659+279767067+278647340+277138541+275641324+274722909+274604673
2328+274896940+275022619+274892456+274958498+275619754+276820412+278264138
2318+279710667+280957789+281846861+282464458+283161150+284230052+285627452
2308+287042406+288183167+288976854+289544439+290046881+290555728+291002775
2298+291243748+291231734+291108685+291052873+291100445+291208571+291387362
2288+291640833+291863560+291925223+291819590+291645231+291454980+291199985
2278+290858156+290549773+290420164+290437112+290418865+290245684+289932955
2268+289532598+289101876+288754162+288595088+288590934+288621523+288670618
2258+288825086+289064016+289208565+289138247+288932624+288751773+288678061
2248+288706867+288801456+288906155+288944014+288858566+288675395+288498076
2238+288422184+288470361+288618666+288845808+289124207+289398608+289621197
2228+289778158+289833277+289709986+289416474+289119897+288998095+289063237
2218+289182512+289214140+289105425+288906536+288699164+288541129+288499565
2208+288627512+288845738+288982290+288992382+288996381+289058407+289078211
2198+288961222+288783383+288697190+288739655+288844388+288986254+289169857
2188+289331666+289404217+289415314+289415729+289396531+289329865+289211352
2178+289073451+288996191+289018470+289041996+288967921+288895266+289004916
2168+289284839+289555120+289741787+289926827+290116109+290171972+290053026
2158+289919401+289898177+289923400+289899077+289851869+289845083+289892863
2148+290014111+290231627+290462455+290553859+290505145+290493962+290590178
2138+290640761+290568746+290567119+290831151+291288307+291717315+291971444
2128+292021578+291927647+291807091+291750656+291777004+291887450+292082686
2118+292304617+292470320+292596035+292791687+293104017+293454431+293753778
2108+293992085+294192619+294362615+294528561+294748380+295034500+295307465
2098+295482585+295588323+295746651+296037377+296409119+296715079+296828537
2088+296754306+296630980+296598435+296676717+296786920+296858970+296906230
2078+297012486+297247331+297597296+297980983+298298506+298486853+298611078
2068+298848450+299233038+299499285+299395348+299064045+298866454+298938157
2058+299137341+299321429+299471344+299604537+299725162+299859048+300055669
2048+300325898+300615931+300886229+301163487+301450023+301663609+301747396
2038+301760795+301805354+301916215+302027388+302036494+301952188+301919054
2028+302015340+302158538+302298864+302536513+302984355+303654267+304427284
2018+304996791+305012821+304476829+303830807+303517369+303597278+303830807
2008+303979580+303981277+303940699+304024590+304318466+304718806+304984049
1998+305006139+305081270+305722998+306992538+308160702+308398421+307733391
1988+306872536+306315598+306102635+306123373+306254558+306368120+306451526
1978+306603865+306849062+307074212+307159695+307164473+307409532+308190270
1968+309253251+309841003+309545258+308806897+308318685+308329314+308694028
1958+309213297+309701059+309972950+309979701+309876422+309897646+310193530
1948+310816528+311861125+313379150+314878099+315294504+314175365+312456217
1938+311349023+311131143+311387973+311768440+312167431+312528232+312754386
1928+312905445+313440121+314775581+316476067+317681001+318421196+319236834
1918+319670412+318821329+317212350+316334842+316762500+317788643+318414999
1908+318264460+317691665+317225161+317056307+317088090+317252512+317651399
1898+318436430+319464131+320239538+320679936+321497790+322993622+324113835
1888+323806144+322617656+321728896+321465591+321518806+321667371+321838787
1878+322010481+322253531+322737069+323883456+326394318+330426805+334431871
1868+335749051+333620319+330174649+327683246+326727386+326714680+326959635
1858+327174606+327393005+327706477+328131123+328764300+329863115+331664353
1848+334398565+338147216+341780437+342733007+340131469+336523211+334450671
1838+334144608+334468260+334827815+336038981+339096913+343192379+345863161
1828+346151394+345540237+344817665+343274849+341078292+339640244+339611854
1818+340270582+340772713+341268162+342510314+344554256+346268453+346545364
1808+345699501+345066047+345788792+348211470+351571761+354162808+354729267
1798+353937969+353826935+356020688+360270847+363659321+362911439+359015192
1788+355828221+355328999+356743191+358579571+360291933+361714227+362432748
1778+362808022+364434520+368720998+375039785+379954247+380224338+376916673
1768+372933211+369823795+368632191+370074047+373006576+375001666+375573976
1758+376012609+376501376+376949253+378937037+383847310+389917126+393116006
1748+392098311+389384043+387543508+387419317+388683698+390236865+390899437
1738+391431550+394479269+400851686+406190828+405318375+400274528+395153993
1728+391344267+389421712+389575090+391026051+393524033+398544821+407255333
1718+417109739+421768756+418735822+412477797+407374435+405074182+406019343
1708+410015615+415566301+420426648+424571728+430283201+437634190+442483215
1698+442608203+439901689+434861305+428699462+425136872+425890916+429589261
1688+435057096+443394723+454205404+460429844+456708475+449202585+444667967
1678+444940065+448881115+453419403+456258798+458695740+462222634+464417149
1668+462332215+458642733+457864660+460461559+463033598+462902933+461840297
1658+463522572+470463838+483328397+497551995+501562151+496332935+494057819
1648+497194587+499582988+495598072+488689005+484541848+484829042+489417429
1638+497761635+506881351+510089752+505289164+499341773+497550818+499935549
1628+504049331+508076175+511819183+514543354+514821615+513927903+515276555
1618+519838110+523989906+523626543+520666142+519219890+520327742+522578588
1608+524368712+525433009+526502914+527992826+529526605+530652461+531595890
1598+533019604+535221701+537762719+539878606+541255579+542244780+543261125
1588+544296685+545200853+546088713+547161631+548524340+550674746+554683032
1578+560819566+566405844+567470868+565657166+566122666+569913904+573330214
1568+573217725+571479708+571137187+573435812+579947135+592906387+609473274
1558+616118309+609036406+600196856+595245140+593923321+594916503+596874546
1548+599603218+604643637+613310559+625007646+638015889+648872895+650797147
1538+644005173+638146001+638104661+641659219+644274606+645565681+649235324
1528+656910380+666239285+674410482+681815413+689606454+696430349+701055505
1518+704321727+706070996+705639114+704986895+707402163+714615562+726468243
1508+740018121+746460684+739873468+729644446+724617668+725670747+730607714
1498+735986811+738237137+737213072+737013161+741023975+748414711+754329487
1488+754474486+750264524+746097147+744579779+745674198+747982691+750736914
1478+754595734+760401519+767837956+774674108+776988487+773625114+769241901
1468+768630674+772340895+777034604+778974643+779118604+781786132+789189124
1458+798081024+800196530+793564028+785909192+782026482+781830657+783477859
1448+784479489+783148252+780216692+777794430+777315393+779288116+783620711
1438+788759527+791122585+788980350+785878655+785400518+787072371+788077671
1428+787181848+786098300+786647760+788929178+792422315+796768345+800232053
1418+799723932+795130144+789659367+785507917+782994182+781775261+781583798
1408+782512444+784364127+785743904+785454944+784778212+785971790+789256707
1398+793044759+796093413+797663476+797140814+795711595+795914830+798253098
1388+800061641+798674039+795577745+794793336+797946688+803360061+808718453
1378+813385087+818022638+822840780+827096791+830251528+832675036+834783134
1368+836516546+838071583+840054208+842312913+843609874+843194403+841880755
1358+840959103+841013529+841717475+842109264+841415082+840002136+839087754
1348+839230815+839763309+840100741+840787098+842534428+844860925+846428149
1338+846582842+845867748+844969501+844175952+843855278+844417687+845686742
1328+847067627+848380514+849846432+851414141+852859355+854340923+856234291
1318+858645059+861429957+864314500+866702763+867972648+868522731+869933531
1308+873290879+877624305+880715683+881397470+880514526+879991864+881259118
1298+883765582+885108452+883702015+880767893+878465564+877248374+876091011
1288+874140308+871453806+868853100+867187963+866378419+865563750+864394339
1278+863384054+862804680+862234585+861485561+861051118+861186561+861359812
1268+861105406+860712925+860625953+860786463+860961861+861224092+861828948
1258+862939500+864515865+866305712+867986013+869348063+870364235+871278547
1248+872530983+874283576+876177775+877803581+879111966+880293772+881666556
1238+883521424+885715108+887781936+889608759+891394798+893071014+894542956
1228+896331695+899170467+902867808+906136938+907941395+908771505+909977962
1218+912033849+914209045+916013225+917944886+920294026+922459458+924077993
1208+925583173+927211887+928652669+929860234+931265355+933174650+935468255
1198+937706602+939582105+941611194+944699040+948697666+952472077+955305863
1188+957008323+957351502+956768458+956630868+957733319+959382321+960841107
1178+962511022+964765642+966965489+968484865+969789788+971779407+974506625
1168+977130944+979022858+980521876+982287764+984075326+984841453+984339634
1158+983795229+984559280+986915551+990351977+993936310+996271462+996568178
1148+995802742+995701575+997068058+999735863+1003397128+1007390145+1010389358
1138+1011533771+1011253329+1010459226+1009825980+1010062175+1011520684
1130+1013475542+1015027324+1016181432+1017043949+1017291846+1017082103
1121+1017143592+1017810700+1018881575+1020188229+1021822483+1023954954
1113+1026524778+1028673037+1029208925+1028431787+1027861346+1028199678
1104+1028628236+1028006484+1026650319+1026042486+1026524085+1026837212
1095+1026463634+1026415232+1027867232+1031785396+1038502446+1045575901
1087+1049017866+1048522625+1047638850+1048445832+1049312989+1048667001
1078+1047848732+1048801475+1051069044+1052973353+1055066216+1058769513
1070+1062364717+1061928889+1056331878+1049381472+1045921572+1047449188
1061+1051678955+1055156720+1056099145+1055438547+1055120989+1056070478
1053+1057809914+1059468057+1061207216+1063738955+1066514506+1067608855
1044+1065629000+1061844202+1058857177+1057644141+1057581128+1058199556
1035+1059105559+1059408160+1059290097+1060612470+1064727152+1069982923
1027+1073304402+1073741823+1072074194+1068772242+1064266464+1059865524
1018+1057127504+1056889093+1058908487+1061816504+1063691315+1063551924
1010+1062388953+1062077489+1063447018+1065405407+1065597701+1062648345
1001+1057919875+1054098032+1052416068+1052284503+1052834239+1053481681
993+1053529183+1052564461+1051277402+1050990589+1052195454+1053856089
984+1054367187+1053138156+1050934016+1048689229+1046374158+1043300438
975+1039319884+1035845720+1034558662+1035260391+1036269708+1035933661
967+1033407254+1029084630+1024560087+1021722147+1020628351+1018920352
958+1014851095+1010318105+1008778648+1010211467+1010306679+1005830123+998596158
948+992295479+988159539+985453857+984022146+984513232+986640233+988471211
938+987888237+984588155+980337961+977155111+975468023+974289472+972994312
928+972330113+973088832+974554058+975198314+974332889+972443952+970566095
918+969785149+970533896+972278664+973966513+974714360+974459884+973843811
908+972834148+970025498+964815775+959690739+958278485+961498936+966580209
898+969531088+968412296+964760656+961677173+960536014+960280084+959603836
888+958970867+959889057+962297332+963845098+962803098+960531859+959481896
878+959832068+959939952+959200276+958391355+957746268+956660574+955139467
868+953966179+953414088+952921270+952122805+951625764+952400686+954401869
858+956485661+957672245+957748830+956409699+953052905+948405591+944820219
848+943904453+944679236+944578484+942279617+939219538+937846269+938737661
838+940408822+941850643+943520627+945295448+946206505+947180991+950587157
828+955885168+958927450+957392633+953571274+950272507+948030282+947092635
818+948416601+951384168+953421912+953365408+953152757+955149993+959205054
808+962794996+963248759+959825490+954837559+952362047+954180769+957464648
798+958380137+957097718+956366767+957084839+957868624+957559375+956304516
788+955213560+955524470+956869763+957662550+957393187+956604139+955524955
778+954306034+953636087+954149055+955834065+958715630+962816808+966752976
768+968242022+967005582+965683832+966524190+968102078+966975876+962643972
758+958452568+956998767+957000429+955597801+952597342+950951386+953583461
748+961032293+970833381+977767653+977235158+970631531+964432988+962852746
738+964204272+964851921+964509851+965642077+969243514+973486298+976030847
728+976501229+976164490+975597304+973942762+970821401+967487389+965325558
718+964939793+966565529+969247114+970639979+969033770+965235400+962213891
708+962275312+964582835+965788807+964013571+961050297+959113235+958498477
698+958938322+959978106+959923402+957825346+955244027+953087459+950275485
688+946923538+944107410+940968253+936869152+933839541+932918651+932193793
678+930377495+927888757+924760264+921352645+918471218+914897964+909600369
668+907677295+915121972+924769751+926800778+921241575+912925587+905841607
658+901767711+900479545+899996768+898055690+893927229+888994002+886361719
648+888634827+894567954+899176491+898700985+894626397+891212199+890333409
638+891597894+894254758+897138054+898751119+897067286+890338603+880306029
628+872119598+870329474+875973502+884703368+888150458+881946514+871097333
618+863381353+861241542+861709846+862244487+864849072+872935028+885789408
608+897311929+900734644+893998067+881715097+872034565+869988511+873765692
##END=
