##TITLE=<SNM>
##JCAMP-DX=4.24
##DATA TYPE=INFRARED SPECTRUM
##DATE=2/5/2025
##SAMPLING PROCEDURE=Instrument type and / or accessory
##ORIGIN=Admin
##XUNITS=1/CM
##YUNITS=ABSORBANCE
##RESOLUTION=4
##FIRSTX=4497.3318
##LASTX=599.83466
##DELTAX=-1.4281778
##MAXY=1.8219457
##MINY=0.29674861
##XFACTOR=1
##YFACTOR=1.6968191e-09
##NPOINTS=2730
##FIRSTY=0.31541425
##XYDATA=(X++(Y..Y))
4497+185885604+185996010+186713467+187504480+187831603+187318921+186108329
4487+185022299+184813133+185372641+186108101+186806378+187643005+188514126
4477+188882225+188427590+187612795+187293102+187669579+187972060+187428483
4467+186199080+185060482+184558865+184749465+185377137+186057324+186436523
4457+186437542+186287829+186172067+186017349+185712216+185307128+184876240
4447+184486520+184411084+184913668+185699553+186098827+185937224+185733293
4437+185898391+186193407+186103025+185387183+184220255+183095480+182594863
4427+182924919+183619140+184000657+183934934+183793195+183762951+183589000
4417+183021396+182283249+181970423+182470952+183533850+184491912+184874957
4407+184707400+184306510+183936760+183626709+183279494+182898486+182566673
4397+182277400+182037217+182035654+182384328+182781284+182771536+182312510
4387+181793557+181543416+181617552+182002354+182604137+183005009+182737972
4377+181946080+181291623+181063191+180811223+180117599+179284503+178846167
4367+178767219+178613994+178220586+177619400+176670893+175481184+174885233
4357+175726812+177720092+179552542+180136568+179487978+178436689+177743153
4347+177524205+177397624+177042118+176521110+176154855+176287812+177133993
4337+178536555+179820510+180221506+179651952+178723415+177895623+177095687
4327+176327489+176009042+176273867+176588590+176645127+176946431+177789047
4317+178501376+178539928+178382575+178561338+178838352+178891341+178819453
4307+178661626+178302046+177830269+177370558+176946414+176824908+177345723
4297+178199966+178526843+177948683+177057416+176712887+177165116+177968969
4287+178495316+178397732+177833571+177398748+177528648+177836961+177531687
4277+176578069+175786282+175679443+175989160+176344912+176816970+177571539
4267+178421092+179037137+179394012+179640378+179669832+179310726+178861553
4257+178885176+179523527+180388958+180943213+180803916+180052263+179293513
4247+179035697+179196088+179558197+180212250+181120343+181776397+181711201
4237+180973739+179968941+179130628+178716723+178675414+178817644+179161417
4227+179840164+180648109+181012906+180595752+179716920+178956976+178508840
4217+178257100+178322226+178907939+179607498+179645857+179019608+178623285
4207+179020486+179778041+180221699+180208702+179931723+179636408+179727739
4197+180460161+181354150+181575522+180973563+180185096+179806354+179932180
4187+180335494+180737613+180968733+180989915+180816790+180588287+180659771
4177+181294117+182257782+183002164+183232318+183083729+182783391+182392934
4167+181983912+181793627+181900836+181965119+181661795+181187770+181017560
4157+181282982+181652556+181795015+181744871+181717015+181746732+181730381
4147+181683556+181700593+181784494+181907352+182039360+182070501+181924494
4137+181655507+181316968+181013064+181042307+181557186+182204494+182493995
4127+182330671+181887189+181217751+180328662+179528936+179368686+180023968
4117+180955016+181524254+181739970+181934751+182020409+181727377+181364144
4107+181591997+182498544+183546444+184327551+184714127+184497199+183640128
4097+182696346+182266528+182207866+181924248+181230519+180505721+180191841
4087+180420168+181000576+181572817+181797158+181597371+181256619+181156647
4077+181457161+182063106+182658075+182760576+182138525+181144932+180329592
4067+179920184+179880525+180090780+180367407+180655222+181092698+181610597
4057+181775941+181325398+180625329+180422855+181126104+182312387+183126936
4047+183238939+183079058+183068151+182976872+182259450+180937523+179839163
4037+179662104+180097155+180342467+180172011+179992722+180195933+180883532
4027+181880831+182751425+183077582+182820521+182267828+181792855+181754320
4017+182311474+183155617+183618086+183267726+182393970+181745679+181791327
4007+182333042+182818413+183008979+183283850+184078499+185058954+185332438
3997+184604829+183587595+183104209+183288293+183759982+184161997+184410733
3987+184630998+184924241+185232483+185449464+185544589+185555496+185622132
3977+185990196+186721968+187389772+187348814+186463659+185330945+184607674
3967+184459718+184903516+186121958+187917893+189374762+189735976+189267782
3957+188735358+188504782+188563673+189041000+190226248+191881744+192935018
3947+192717123+192211993+192738955+193827426+193802908+192260240+190447093
3937+189638340+190476705+193011121+196239564+198134189+197472848+195591554
3927+194981937+196386712+198090561+198361972+197875442+198379922+199995215
3917+200938716+199650160+196711938+194088036+192967229+193200317+194770559
3907+198769712+205854411+214073088+219697985+220912159+218426307+213121086
3897+206548860+201866498+201594209+205034645+208174831+207994681+206944393
3887+208675061+212270391+214206660+214570315+215542498+215361416+211531717
3878+207174687+206882130+210854288+216378948+221357240+223871738+222262452
3868+218958064+218159656+219794831+219807336+216192019+211754881+210147685
3858+213382503+222462256+235976038+244559442+238257853+224329412+213256590
3848+208334994+209182334+213988607+220532469+227361405+233882065+238560457
3838+238702196+234306157+228922936+224944350+222046419+219723312+218684089
3828+219261142+220933148+224437533+231295363+239162451+241683290+238331673
3818+234650053+231556955+226158507+219460366+215461845+216317335+221520511
3808+227860599+231816423+234696017+239785240+244963862+244953851+241075272
3798+238107983+236046731+233026786+230117211+229396540+230897107+233655442
3788+237584147+242892231+248855210+254806755+261481554+269458696+277283175
3778+283382624+288928853+296582912+307929305+322377824+336777445+347542552
3768+354520798+359383678+362151989+363451101+365772909+369744154+372942458
3758+374345477+377058322+384733106+398127244+413774903+424599410+428165742
3748+431065043+438541077+448413248+454405401+457192364+463650972+477434707
3738+497974191+521120330+539700309+548251203+548231110+545891106+546560562
3728+552067676+560806045+569635709+576918753+581965209+583084610+580127139
3718+576164606+574619848+577300938+584049978+591149869+592228839+585618938
3708+576223830+569499801+568261424+571237899+573302259+570826594+565946185
3698+562783500+563698249+569322584+578874886+589732343+597400137+597916648
3688+592663785+587004745+583765131+582870755+583614716+585668819+589817632
3678+596814846+603162346+602309034+596686280+594240368+595646232+594814628
3668+588732269+581020496+574936556+570765507+567935267+567051254+569004471
3658+572023310+572485515+571490956+575040814+585938561+599075357+602705551
3648+592321153+577739783+567569838+562942556+561598376+561394848+561933174
3638+563821862+566925287+570296031+574206295+581013435+591861689+601545718
3628+601640773+593774018+586492940+584454820+588231214+595486403+601105363
3618+601710816+599946303+599317384+599633881+599761955+600643439+603045513
3608+604996060+604313818+602011576+601065458+603035607+606607349+609569843
3598+611694903+613885581+615597053+615945305+616777540+621146531+628457362
3588+632962084+629948585+622171545+615245710+611972268+612550182+615561012
3578+618395503+619053226+617874565+616924302+618490768+623958189+632107789
3568+637776770+635714658+627601029+619611118+615239457+614230672+615057217
3558+616970389+619880895+622596515+622342826+617892129+612565779+611144248
3548+614243388+617664504+617735953+615517454+613656200+612394288+610877492
3538+609607359+609609467+610725601+612021447+612952530+613419653+612896537
3528+610594857+607055924+604082119+602387298+600949608+599326728+598631629
3518+599388903+600349494+600120815+598574372+596264050+593647770+591332812
3508+590318898+591147551+592837173+593275140+591373981+588480055+586720776
3498+586604223+586802587+585961394+584231973+582818240+582699756+583955170
3488+585629125+586407440+585881409+584614825+582946314+580669820+577811232
3478+574947375+572999286+572751744+573786173+574347366+573342234+571811036
3468+571410023+572094162+572196452+570501315+567521643+564785439+563326427
3458+562963632+562813639+562300535+561661394+561411358+561306433+560343032
3448+558071175+555436453+553830855+553541477+553643276+553344518+552807914
3438+552349397+551641020+550344789+548809305+547508542+546491501+545740656
3428+545446570+545632288+545985668+546273642+546410533+546023114+544620166
3418+542532130+541004444+540930782+541944380+542745844+542026472+539618849
3408+537024383+536145990+537290858+538797397+538841025+537260859+535414113
3398+534534034+534613000+534884464+534813120+534297522+533382772+532028826
3388+530097037+527914579+526560316+526679609+527488836+527784362+527257031
3378+526174935+524720701+523147455+521818801+520919577+520472407+520505638
3368+521150996+522620757+524695971+526285937+526250424+524658877+522617349
3358+521190549+520973638+521984180+523396472+523947760+523228529+522189464
3348+521929557+522587315+523550154+524001645+523397245+521946102+520284968
3338+518732131+517458135+516826336+516969058+517605564+518355567+518645543
3328+517933934+516725591+516257660+516674305+516804522+516071310+515215399
3318+514766542+514184799+512964723+511480350+510241129+509227040+508440786
3308+508275372+508782293+509201748+508800138+507914720+507771752+509173822
3298+511479682+513172642+513367141+512373145+511138175+510620680+511081690
3288+511660482+511394112+510595212+510399132+511323647+512920041+514419801
3278+515347231+515675636+515568709+515183468+514659544+513847999+512375252
3268+510580213+509726761+510559558+512344376+513791163+514160456+513317331
3258+511633153+509881321+508530080+507332731+506035164+504948361+504396196
3248+504238123+504252595+504252982+503655537+501991944+500038445+499222720
3238+499789815+500567638+500442690+499251313+497502958+495964102+495199697
3228+495101938+495186700+495318076+495588030+495666715+495048931+493935607
3218+493053034+492531289+491773804+490507500+489220507+488412825+488034469
3208+487782185+487455361+486977560+486378921+485648238+484570428+483070036
3198+481636140+480924356+480973780+481120261+480611372+479247555+477523684
3188+476123019+475241008+474510606+473589709+472551101+471596623+470660094
3178+469521759+468263922+467308108+466806666+466280003+465200682+463760920
3168+462565855+461677732+460575192+459098792+457865192+457455433+457545569
3158+457240840+456178486+454825664+453632741+452496760+451305840+450345881
3148+449765789+449281735+448740810+448290865+447792936+446874076+445710801
3138+444873683+444344631+443575098+442530623+441783852+441483795+441087032
3128+440272431+439411812+438946797+438829648+438751384+438530996+438111927
3118+437455679+436544477+435382081+434114267+433159296+432880632+433054441
3108+433012816+432340479+431169336+429918488+429027520+428714536+428719805
3098+428480132+427630332+426187725+424510503+423329243+423330718+424284599
3088+425131342+425271676+425099798+425020551+424745434+423905962+422729409
3078+421732216+421083169+420488007+419616956+418579296+417830453+417553123
3068+417395226+416927506+416124461+415313091+414780737+414418997+413781226
3058+412757019+411943366+411820526+411907817+411408343+410333518+409250720
3048+408321392+407363155+406497373+405969304+405584696+404950684+404069200
3038+403241390+402609310+402129857+401730109+401221677+400399909+399431344
3028+398769230+398600514+398674808+398627492+398225214+397390028+396226893
3018+394989183+393921209+393129826+392515345+391814942+390855826+389803378
3008+389045191+388807730+388967454+389198908+389148851+388507497+387244180
2998+385846044+384926060+384526909+384190354+383626105+382882776+382059463
2988+381278619+380702391+380290910+379825579+379249351+378704281+378301511
2978+378041183+377791814+377327678+376632755+376020135+375667176+375300096
2968+374620067+373742095+372945830+372310624+371818280+371466936+371110640
2958+370557456+369916769+369428957+368996259+368367551+367626471+366993793
2948+366386829+365627553+364843160+364299390+363996417+363640473+362976145
2938+362056548+361166704+360561496+360389056+360709031+361278022+361464127
2928+360786346+359490149+358278504+357550420+357126329+356613295+355811971
2918+354796442+353810700+353117779+352782208+352553424+352071513+351214794
2908+350209697+349448102+349183488+349305907+349435035+349304853+348982455
2898+348662937+348390806+348083231+347722615+347380791+347044939+346545816
2888+345763672+344824192+343980295+343376246+342998768+342754950+342543870
2878+342318704+342072743+341741879+341226245+340555244+339894746+339345917
2868+338881148+338492289+338235017+338082283+337862246+337411036+336729813
2858+335969869+335309301+334863500+334650243+334554029+334370348+334018197
2848+333626177+333266684+332841469+332385306+332115914+332033506+331884391
2838+331600913+331283749+330761301+329750197+328440898+327389539+326850897
2828+326613963+326401127+326075989+325537944+324782216+324100009+323914432
2818+324296827+324837542+325081395+324907269+324425639+323743783+322945586
2808+322135270+321401847+320777565+320265023+319886105+319641935+319388879
2798+318873491+318020776+317075677+316315452+315748709+315231003+314728015
2788+314308806+313986127+313702263+313385099+312926653+312243076+311452712
2778+310824917+310430262+310011088+309309351+308368677+307452101+306793219
2768+306423434+306170833+305866280+305512197+305143150+304652492+303952510
2758+303181958+302552653+302072358+301571443+300950392+300300151+299798042
2748+299532234+299405424+299188654+298700455+297970650+297221034+296648951
2738+296230972+295773685+295137565+294351328+293555151+292937596+292636274
2728+292557835+292434257+292185925+291975864+291778729+291289880+290446281
2718+289615486+289074842+288672951+288167609+287593577+287118972+286735224
2708+286308182+285863769+285573741+285458699+285358814+285175696+284881997
2698+284372458+283594775+282752352+282152677+281908999+281884709+281854886
2688+281674525+281334879+280898633+280435603+280024016+279717671+279465071
2678+279106966+278513157+277767475+277166939+276927037+276944390+276958968
2668+276840519+276609697+276333421+276099245+275945054+275772316+275450655
2658+274998760+274562374+274233302+273981421+273758486+273552342+273292575
2648+272842577+272174948+271437574+270809129+270415001+270317505+270406623
2638+270409469+270194595+269931720+269812252+269788243+269705623+269527686
2628+269313269+269104437+268914855+268720724+268423214+267954493+267461165
2618+267213255+267259552+267334567+267197201+266916412+266721385+266689841
2608+266694952+266587374+266335600+266018857+265755508+265615982+265559532
2598+265483464+265347381+265189625+265042845+264917775+264839388+264808318
2588+264754433+264573334+264186653+263614289+263044138+262734438+262773324
2578+263004286+263193007+263198241+263039308+262875439+262847267+262899273
2568+262853502+262661391+262462887+262398744+262476288+262614742+262733385
2558+262803235+262871136+263003742+263163659+263200648+263005498+262603238
2548+262086867+261550473+261076606+260710158+260472189+260400476+260467727
2538+260479267+260217410+259708908+259226926+259004448+259010174+259023979
2528+258902192+258704320+258545036+258428922+258297810+258153419+258051989
2518+258006341+257957128+257868554+257810735+257871663+258012611+258093984
2508+258021516+257828334+257652908+257613443+257642581+257533317+257214783
2498+256860349+256675175+256692528+256777606+256738562+256478796+256096787
2488+255776356+255583806+255443771+255262637+254995336+254668055+254410572
2478+254365240+254483268+254518466+254304136+253928907+253574543+253318447
2468+253177306+253207954+253435421+253734881+253887773+253768077+253431750
2458+253015633+252604556+252235262+251950257+251740143+251490055+251121113
2448+250752294+250564012+250535945+250493687+250391379+250351421+250414598
2438+250424205+250209384+249808933+249471553+249420566+249635808+249911382
2428+250080573+250090514+249924520+249590547+249183685+248898100+248929399
2418+249296180+249765797+250058126+250105882+250026722+249925134+249851613
2408+249876624+250053946+250319561+250528498+250611398+250635461+250703116
2398+250869004+251177615+251736385+252763015+254599100+257677146+262499068
2388+269659255+279794284+293459166+311059814+332768720+358321043+386962037
2378+417774003+449971741+482624060+514207772+542972310+567986623+589534787
2368+608215897+623743280+634869987+640399092+639972576+634260951+624645489
2358+612077369+595937788+574121111+545649114+514928655+490417610+478163282
2348+479665957+493195089+513593080+532856179+545339678+550704246+551013507
2338+548932321+547117891+546936810+548189168+549917535+550731329+549020104
2328+544127224+536900208+528484308+519379984+509784650+499924914+489867481
2318+479575188+469172594+458853850+448594646+438099351+427047571+415368768
2308+403242865+390944558+378861019+367531381+357341483+348159071+339491204
2298+331041547+322979343+315646242+309119066+303148271+297478552+292078014
2288+287018789+282321727+278035619+274321734+271334704+269070013+267346001
2278+265898124+264533570+263229557+262036284+260926156+259844078+258836820
2268+258001125+257358471+256869535+256487332+256118303+255626046+254965917
2258+254265619+253692360+253268356+252879216+252426531+251893667+251303898
2248+250718010+250236257+249903092+249645187+249369719+249075844+248821699
2238+248625214+248445819+248255991+248075402+247910286+247737073+247589082
2228+247540501+247550249+247488724+247382639+247432889+247702297+247974674
2218+248033583+247948153+247960342+248151242+248337346+248327862+248201948
2208+248236425+248582974+249112148+249589598+249921604+250176031+250411682
2198+250577343+250621164+250632861+250770068+251066279+251431708+251814684
2188+252214186+252563931+252767704+252839259+252892037+253000510+253140914
2178+253257396+253343511+253414415+253409269+253226502+252886364+252545805
2168+252332425+252257884+252281613+252370502+252497769+252604415+252580968
2158+252358946+252035353+251822780+251851550+252065211+252325417+252594931
2148+252958797+253494909+254274928+255487557+257349321+259882770+262943463
2138+266404379+270198968+274291191+278681873+283394936+288499843+294131326
2128+300339740+306981360+313884082+320980180+328191073+335379520+342469470
2118+349441217+356150844+362204785+367085616+370456254+372256106+372497114
2108+371176645+368386730+364338135+359355049+353866587+348193496+342359311
2098+336252257+329864537+323322326+316822760+310546182+304572893+298932014
2088+293702861+288996315+284863766+281239210+277963046+274915052+272109524
2078+269624549+267513927+265790723+264403880+263259012+262313895+261602743
2068+261157364+260904096+260621427+260131928+259562691+259164892+258928889
2058+258691060+258453125+258274556+258101694+257938932+257914641+258065513
2048+258269884+258415416+258543754+258822805+259303873+259763127+259984762
2038+260085174+260329238+260798100+261394403+262009078+262606575+263223638
2028+263888475+264583609+265309865+266072303+266848440+267699978+268708061
2018+269621599+269892360+269303187+268284479+267450135+267052424+266914655
2008+266714324+266298435+265773897+265336685+265093148+265011652+264920128
1998+264663260+264465563+264874094+265964427+266902361+266826977+265884372
1988+264802645+263945311+263310139+262930220+262843719+262954932+263119029
1978+263232684+263267741+263281616+263347409+263573945+264210943+265388568
1968+266638151+267139435+266697165+265972541+265567436+265480970+265578290
1958+265957402+266591607+267119254+267278767+267243886+267383991+267913429
1948+268900734+270497480+272781684+275055473+275837213+274479034+272216433
1938+270683777+270304087+270553438+270930793+271305565+271724458+272166254
1928+272658440+273630992+275483359+277640560+279123704+280134948+281406784
1918+282242322+281356605+279414242+278431872+279270870+281115052+282652415
1908+283214768+283066777+282854959+282897779+283117553+283465278+284145430
1898+285396717+287006986+288253900+288888298+289711647+291152427+292023057
1888+291101036+289123844+287608805+286958212+286717081+286551210+286392487
1878+286254999+286200324+286402112+287474935+290452464+295520101+300427172
1868+301501469+297962571+292988056+289607003+288329511+288131182+288049160
1858+287788762+287520495+287489161+287785372+288488778+289811320+291993076
1848+295356302+299992577+304315235+304982899+301174961+296440857+293920949
1838+293664397+294125267+294629396+296359257+300617175+306152919+309434790
1828+309144990+307512028+305887848+303530737+300598698+298667927+298407107
1818+298970092+299483969+300215354+301997677+304743577+306972052+307302213
1808+306128716+305147541+305880963+308845460+313098390+316470574+317375137
1798+316679933+316973210+320206817+325760019+329593284+327772531+322298998
1788+318274571+317773761+319489343+321678580+323882501+325761143+326565558
1778+326854445+328893513+334519885+342837077+349331023+349694836+345184177
1768+339600449+335333679+334130464+336762095+341126660+343657861+343972883
1758+344192920+344770307+345590283+348516070+355228964+363692672+368876194
1748+368647305+365840916+363854433+364076156+366208453+368730978+370014177
1738+371106531+375456588+383771286+389895236+387539951+380493981+374167873
1728+369749634+367507705+367601390+369260557+372467642+379226413+390913154
1718+403958584+409734001+404994522+396043037+388891579+385842461+387484942
1708+393242128+400584468+406296726+410799973+417781802+427772001+435124387
1698+435947454+432171517+424754356+415914857+410664206+411054997+415439936
1688+422586722+433842908+448259250+456140583+450642988+440469284+434370028
1678+434418364+439090608+444671104+448561205+452523070+458083157+461384841
1668+458416936+453490265+453056021+457555053+462043231+462716340+462208997
1658+465665065+476248353+494548227+514489880+520826279+515050125+513216094
1648+518339654+522418388+518419112+511056047+507510756+509805621+517973628
1638+531684333+547106861+554460231+550069391+543918006+544090903+550980452
1628+561093737+571591701+582616820+594086089+603445402+610298805+618717901
1618+631434258+644308618+650143470+650327116+651257637+655167023+660320195
1608+664429385+667026837+669143817+671455474+673589456+675261585+677163868
1598+680125098+683998864+687908390+691407840+694896541+698731738+702565670
1588+705920677+708818607+711497203+714064797+716770651+720533837+726918010
1578+736524689+746028376+749823808+749817485+753468475+763233719+774739519
1568+782612597+788014822+795158517+805963247+822119198+847031818+878146441
1558+894508658+887531537+876815187+871910645+871218357+871213228+869972462
1548+868786144+870903827+877851231+888265346+899124032+903527096+892641573
1538+873442546+860420230+855764671+853630759+848890262+843375700+841836563
1528+844868891+849116552+852183023+854994962+857529114+857289265+854483439
1518+851577710+848196428+843245308+838774096+838263275+843817672+855502340
1508+868971967+871749903+857593678+840768553+831902427+830831396+834014350
1498+836960685+835918881+831737188+829507238+832507670+838954229+843078383
1488+840833890+834440022+828188982+824113584+821997517+820966883+821321247
1478+824476941+830962280+839261803+845748267+845742857+838977273+831703958
1468+829023746+830673113+832580384+831482375+829725941+832413318+841498639
1458+852237049+853850585+844399450+834113689+828644653+827525076+828272795
1448+827764644+824481929+820164646+817234890+816369705+817662248+821634231
1438+827341079+830580587+828251227+823737090+821469132+821605707+821707717
1428+820707643+819965052+820443767+821574444+823286969+826377608+829248842
1418+827555285+820911452+813934049+809562670+807517840+806563081+806051979
1408+806068981+806661367+807114649+806810939+806734081+808435716+811838356
1398+815390216+817717468+817691896+814548355+809990520+807462129+808307080
1388+810264513+809922865+807165654+805340441+806862084+811195175+816522087
1378+821900917+827321408+832226090+835312303+836403778+836934691+837766646
1368+838513733+839384889+841544585+844861725+847123360+846801172+845099888
1358+843836710+843228165+842542200+841753030+841765676+843125734+845188549
1348+846817893+847588726+848082545+849293102+851797888+855038871+857409471
1338+857785263+856952816+856563676+857106393+857832755+858207703+858543871
1328+859465119+861617087+865452003+870369260+874706426+877599438+880088417
1318+883420170+887273703+890645571+893484628+896382769+899406385+902155798
1308+904490848+906615909+908886677+911705641+915085307+918387904+920933157
1298+922534890+923247623+923256475+922939416+922284995+920786535+918576467
1288+916611728+915123104+913281591+910881274+908920961+908161509+908162493
1278+907915477+906811286+904941602+902940682+901621793+901474680+902322371
1268+903431901+904014804+903813805+903492320+904399728+907431353+911837368
1258+915605823+917376449+917606041+917716130+918590799+920018091+921276701
1248+921991401+922198301+921959505+921398734+920870068+920601133+920518725
1238+920555187+920312457+918698078+915263121+911565834+909632078+909470000
1228+909374524+908405292+907176680+906258524+905456427+904830810+905173863
1218+907098628+910170860+913188223+915168067+916026999+916375883+916803172
1208+917599929+918942423+920809368+922860099+924795331+926573404+928023669
1198+928910703+929597301+930892022+933112628+935885927+938745780+941419317
1188+943681585+945292592+946232458+947090547+949052125+952806669+957391201
1178+960853346+961979105+961108440+959742129+959455561+960895709+963743548
1168+967239486+970283476+971772451+971785518+971575738+972023470+973093799
1158+974391049+975764807+977470026+979771565+982557018+985116111+986648574
1148+986998582+986799972+987099538+988511795+990893776+994248713+999073866
1138+1004843101+1009110082+1009853657+1007870370+1005468929+1003968713
1130+1003479600+1004053721+1005570025+1007017339+1007430858+1007485305
1121+1008474770+1010002807+1010405366+1009351407+1008916672+1011618170
1113+1017266708+1022483320+1024892630+1026324910+1029167339+1032140442
1104+1032263317+1028973155+1024490282+1021476993+1021369082+1023895085
1095+1027384348+1029950256+1030811366+1030959041+1032085292+1034531135
1087+1037791508+1041814847+1045804533+1047375004+1045396214+1042461751
1078+1042224290+1045440825+1049521140+1051202683+1049522335+1046396217
1070+1044532504+1045066860+1046823365+1047695435+1047164451+1047027314
1061+1049291408+1054146350+1060019210+1064228231+1064668165+1062493294
1053+1061172368+1062036078+1063407377+1064027935+1063836983+1062384049
1044+1059967994+1059312940+1063079920+1069680336+1073741823+1072053044
1035+1067329689+1064135003+1064037068+1065984103+1068216091+1068727403
1027+1066607893+1063758439+1062901333+1064098681+1065110207+1064298766
1018+1061809296+1059263833+1058736432+1060530171+1062617153+1063294969
1010+1062904354+1062059964+1060467996+1058214721+1056214012+1055311451
1001+1055833653+1057342440+1058648543+1058961246+1058402090+1056649590
993+1053054523+1048807424+1046229082+1045249311+1042907235+1037552994
984+1031398062+1027550079+1026794561+1028068136+1030274340+1032514126
975+1033701569+1033356408+1032458765+1032535764+1033963899+1035524253
967+1035540903+1033248005+1029393559+1025428180+1021746841+1017728069
958+1013473383+1009872134+1006718476+1002706098+997761019+993566471+991530774
948+991534217+992270204+992297814+991304625+990049527+988869180+987272083
938+985306150+984045432+984056742+984709829+985237160+984865654+982518589
928+978287297+974292131+972528952+972651195+972937272+972492560+971767814
918+971485039+971377690+970242517+967664104+965040377+964104376+965255989
908+967804754+970842351+973406783+974470367+973377768+970710975+968521421
898+968366720+969035684+967905710+964719244+961904354+960915381+960657827
888+959886573+958755685+957762286+957193364+957384105+958003188+957473891
878+954705720+950988832+948627436+948167549+948392645+948338830+947817049
868+946758524+945576420+945126159+945557382+946088436+946243558+946612184
858+947717639+948798014+949060696+949444988+951082833+953086001+953829997
848+953156607+951916263+950855630+950457848+950197766+948782417+946695646
838+946386175+948705770+951545459+952530358+951238587+948995499+947641413
828+947934304+948758531+948773776+948732818+950787061+955421193+960160425
818+961997933+960650591+958469749+958005928+960179956+963863754+966530898
808+966427694+964697957+963524776+962815415+961372387+959775852+959000101
798+958438696+957622971+957744862+959318494+960233771+958618689+955825929
788+954643334+956299866+959947975+963732799+966277912+967782483+969288109
778+970881412+970928694+967634246+961875128+956787574+954299508+954040409
768+955234667+957554754+960189440+961838455+961711014+959904558+957188516
758+954937068+954554884+956556296+960455424+965123489+969321972+972424132
748+974290445+974562541+973165669+970873052+968402620+966069256+964472229
738+964420381+965556819+966072136+964852165+963048520+962593481+963934290
728+965392985+965349568+964598055+964781419+966178080+967648859+968032519
718+967493526+966516707+964780717+962292511+959713817+956975434+953176419
708+949217434+948449762+952472819+958209245+961629448+963052595+965171543
698+967467673+966231825+959821939+952145784+949338412+953183163+958851583
688+960290396+957170953+952686815+947289297+939269528+929752142+923388835
678+923760130+929713502+936693995+941222253+943569388+944720088+942138232
668+933749346+925629534+923276287+922838179+919959147+915566691+912999238
658+912853109+913783982+914404049+912552349+907575024+903343521+904055270
648+908008635+909728116+907881615+905749108+904355749+900802624+894295366
638+889571238+890648732+895228346+897490754+894619380+888538285+882899935
628+880479454+881418406+882886094+880513106+871925258+860648558+853604765
618+853699187+858467645+864829969+870434597+872501838+870907340+871076513
608+877711776+887305528+892642276+892454274+889934594+885948069+878791729
##END=
