##TITLE=<SNM>
##JCAMP-DX=4.24
##DATA TYPE=INFRARED SPECTRUM
##DATE=2/5/2025
##SAMPLING PROCEDURE=Instrument type and / or accessory
##ORIGIN=Admin
##XUNITS=1/CM
##YUNITS=ABSORBANCE
##RESOLUTION=4
##FIRSTX=4497.3318
##LASTX=599.83466
##DELTAX=-1.4281778
##MAXY=1.7116245
##MINY=0.26518974
##XFACTOR=1
##YFACTOR=1.5940745e-09
##NPOINTS=2730
##FIRSTY=0.28547898
##XYDATA=(X++(Y..Y))
4497+179087597+178917429+179492808+180060727+180080581+179840491+179860141
4487+180202346+180601668+180828783+180691444+180118104+179360012+178694876
4477+178096109+177645730+177825115+178821688+180040517+180805675+181021068
4467+180867390+180525015+180321401+180451467+180535092+180061400+179138244
4457+178312025+177852710+177602973+177357554+177132122+177138908+177502951
4447+177931437+177884474+177148219+175987833+174796469+173951349+173869200
4437+174603978+175406846+175347001+174455310+173637168+173438919+173602282
4427+173875968+174401541+175105640+175543717+175520310+175103228+174130716
4417+172636911+171506196+171785416+173376139+174982230+175383888+174362785
4407+172551640+170912720+170238311+170668554+171646133+172462406+172827626
4397+172952457+173166934+173441593+173320688+172522886+171449118+170743655
4387+170604054+170827730+171178722+171419859+171351078+171009470+170537554
4377+169958548+169325138+168790872+168349223+167924345+167796429+168436383
4367+169817396+171233445+171915314+171679468+170910701+170067469+169401809
4357+169090713+169264676+169749138+170124080+170238628+170352055+170605307
4347+170684595+170170221+169055229+167873437+167313875+167523659+167890599
4337+167755635+167111382+166461389+166359684+167007845+167917895+168309458
4327+168083838+167797364+167668252+167524500+167589019+168247519+169092601
4317+169159382+168217830+167105736+166645672+166801949+167148624+167662680
4307+168581947+169806253+170831413+171106950+170498555+169637824+169458196
4297+170106338+170832516+171144341+171437022+172224466+173246877+173636981
4287+172844228+171257525+169763889+168914917+168666284+168582003+168270309
4277+167902490+168054897+168766474+169306742+169259685+169168412+169668055
4267+170616973+171464411+171966428+172140634+171958146+171560918+171405763
4257+171707287+172102963+172157685+171776068+171126692+170647372+170876712
4247+171745837+172395531+172154338+171284783+170515642+170270841+170523999
4237+171101098+171907723+172862456+173690227+173928727+173304759+172173165
4227+171431077+171630896+172201694+172122724+171413671+171170683+171928046
4217+172845798+173030717+172857988+173149155+173702640+173672428+172970742
4207+172326133+172268102+172760546+173475507+173975336+173994069+173751586
4197+173631129+173547504+173117540+172503499+172498694+173432114+174462433
4187+174534281+173760335+173199502+173399509+173788211+173593140+172961674
4177+172808220+173616958+174846705+175691600+175978598+176021972+176038069
4167+176103541+176345744+176720742+176838001+176515575+176302257+176813884
4157+177667865+177795893+176839104+175553607+174771118+174533271+174379294
4147+174077732+173815282+173852169+174288769+175044561+175805139+176231793
4137+176447429+176945520+177872621+178831840+179433094+179664528+179735571
4127+179730486+179434047+178594947+177370118+176289021+175778928+175886671
4117+176360700+176903660+177384252+177775029+177936672+177686449+177075735
4107+176422695+176126387+176504003+177592522+178985332+179975586+180044349
4097+179300859+178356054+177698414+177408537+177399096+177535313+177658536
4087+177755567+177888194+177963164+177930465+178008389+178354184+178815500
4077+179239107+179661106+180082769+180376291+180402783+180055155+179336231
4067+178519211+178105064+178460712+179438459+180438641+180918578+180792420
4057+180402596+180213302+180407532+180721488+180834186+180805769+180859668
4047+180965523+180937854+180736651+180474668+180265818+180132967+179995049
4037+179768513+179500604+179387327+179634801+180225716+180874083+181343887
4027+181731261+182298040+183133849+184012827+184485473+184266228+183660133
4017+183302484+183352458+183347242+182922644+182263696+181749994+181490517
4007+181399114+181556419+182196279+183289790+184428264+185236049+185629312
3997+185638586+185357926+185059449+184985508+185034210+184909884+184525388
3987+184063978+183737813+183641045+183712350+183741310+183671425+183993271
3977+185327901+187371695+188838502+188845756+187835179+186787342+186156325
3967+185893632+185949495+186363230+187088062+187998991+188988928+189874262
3957+190343131+190226882+189804602+189664010+190202727+191190308+191793300
3947+191482895+190998976+191577028+193104260+193982864+193224511+191659027
3937+190770010+191477137+193841301+196853251+198656020+198188964+196568385
3927+195737642+196201781+196762502+196463820+196130008+197112710+199086245
3917+199827623+197610595+193446485+189947886+188668540+189371685+191573756
3907+195877168+202791694+210545132+215702937+216858405+215261625+211808082
3897+206934135+202539133+201100444+203044067+205533529+205408623+203974626
3887+204661562+207498670+209507129+210053118+210817809+210652614+207426504
3878+203569939+203102771+206285862+210729939+215014543+218131058+218137097
3868+215658478+214013201+214062652+213233236+209940439+206196309+204908195
3858+207878959+216191661+228743255+237067136+231830119+219134250+208677265
3848+203843251+204422089+208647894+214232408+219732194+224866180+228730261
3838+229179014+226036511+222106939+219132792+216409091+213510998+211732851
3828+211963799+213556989+216604536+222638402+230502594+234512576+232671238
3818+229430901+226487825+221671835+215374416+210969506+210735286+214715972
3808+220589186+225043097+227983593+231781398+235540708+235458335+231916044
3798+228301438+225139156+221474595+217964891+215989934+215922293+217527524
3788+220572304+224279341+227308716+229557377+232661965+237117316+240560800
3778+241090542+240424303+241549054+246109924+254080401+263356903+270644987
3768+274808087+277288687+279521831+283004745+289703130+299757092+310080179
3758+317722696+324350318+334490299+351087472+372305359+390184346+399224908
3748+405014365+414412800+426313728+432924823+432795038+433686149+441105085
3738+455350789+472931729+488235833+496850919+498546057+496864754+495958013
3728+497958788+502566827+507974480+512429476+515226202+516717706+518394597
3718+521959005+528056604+536856740+548474167+560743063+568796755+571001912
3708+570944142+572426149+576956264+583511309+589308319+592891199+595571712
3698+598553038+601858175+605859127+611469890+618844592+625645037+626866015
3688+620646894+611980656+606281575+604930437+606219991+608146881+611231408
3678+617149229+623061105+622749074+618501750+617887597+620698269+619221796
3668+611259938+603196562+599358449+599042716+599928929+601689764+605819118
3658+612132278+617760092+621634737+626915521+636010376+645917147+649184555
3648+643664166+636606170+634044486+635817062+638685056+640583192+642099188
3638+644374378+647559301+651411211+655978045+661923947+669450906+675106427
3628+673583177+666984870+662134760+662547411+668352273+677254637+684283842
3618+685624398+683634354+682751992+683927876+685512897+686806264+688304462
3608+689407134+689149059+689028135+691760846+697776895+704121838+707324409
3598+707344526+706474803+705862930+705712318+707314089+712239057+719543314
3588+724764571+724115382+719764297+715492332+711539689+706957974+702591334
3578+700437291+701363252+704343644+708302942+713874332+721780739+729888910
3568+733546609+730296999+722997604+716060382+711900516+710707207+711313322
3558+712775025+714854584+717102405+718550199+718369823+716643238+714826167
3548+714849424+717057759+719476159+719722568+717519019+714999887+714566073
3538+716659990+719345439+720404063+719711575+718638966+717850382+717169111
3528+717000476+717986711+719408929+719853662+719415585+719336165+719838033
3518+720011977+719178224+717489181+716053576+716345005+718175836+719051841
3508+717460390+715519927+716207255+719090429+720960746+720483109+719858822
3498+721003447+721912357+719120642+713597187+710868215+714461377+721627285
3488+726198680+725233160+721517803+719144497+718884926+718672020+717261168
3478+716000555+716372525+717543623+718008547+717897644+718239551+719421044
3468+720987668+722044947+722043077+721710967+722513909+724402996+725082173
3458+723048382+720208581+719489321+721352533+724031102+725578581+724726133
3448+721653160+718749046+718512359+720465684+722287766+723580536+725983680
3438+729539600+731577654+730360939+727687530+725868664+724349452+721559457
3428+718331010+716734473+716812621+717006383+716826007+716943192+717530760
3418+718291450+719023648+719328313+718829363+717894130+717471682+718282701
3408+720237148+722357389+723502612+723279012+721997385+720152494+718652053
3398+718751963+720614352+722674094+723335248+722700118+722093032+722437332
3388+723868898+726251103+729262305+732381120+734966136+736403909+735980863
3378+733290703+729383154+726294103+724637141+723311991+722215601+722720833
3368+724733387+725749909+723877199+720294806+718084900+719411397+723557727
3358+727746608+730061209+730323024+728669203+725965732+724899778+727636154
3348+732631642+735823744+735399577+733715020+733654745+734945047+735107849
3338+733229830+731072571+730260879+730205540+729159853+726403734+723214773
3328+721792181+723283648+726721860+729898183+731440727+731744495+731739708
3318+731509078+730524040+728852570+727345249+726759551+727359907+729068468
3308+731214434+732522908+731947380+729559716+726826257+725520026+726368213
3298+728868275+731586254+732568451+731086481+729390408+730665828+734756071
3288+737583757+735921710+731603753+729173837+730615051+733598284+734476608
3278+732894205+731793552+733131416+735959101+738090410+738453405+737454308
3268+735756066+733584749+730714437+726890869+723005232+721424474+723827319
3258+729132183+734619443+738232123+739187323+737626308+734605907+731881796
3248+730934747+732199548+734971744+737689275+738628322+737166618+734531723
3238+732639420+732337522+733388070+735526483+738451237+741153063+742332387
3228+741654107+740216558+739338010+738778935+737026849+733504507+729361243
3218+725981885+723950336+723411452+724428348+726626213+729009240+730716306
3208+731850536+732987758+733802890+733073833+730699854+728525097+728028240
3198+728235314+727189103+724871510+722974048+722344676+722616810+723501341
3188+724567145+724749839+723844668+723257100+723892380+724584419+723705872
3178+721565813+719933306+719642177+720101492+720887010+722382815+724225462
3168+724702427+722946677+720207011+717999125+716262295+714244507+712330218
3158+711541110+711635710+711431254+710815343+710468875+710127043+709163916
3148+707903153+706931127+706207454+705537027+704816869+703839234+702881341
3138+702801922+703570913+703700437+702147050+699958083+699120367+700222665
3128+701803946+702077876+701010501+699956289+699452776+698498399+696227097
3118+693445851+691768250+691688232+692305639+692849608+693545163+694583671
3108+695252977+694766590+693286265+691507333+689863084+688722872+688477509
3098+688760263+688431443+687003915+685362658+684660224+685296700+687036670
3088+689005251+689820234+688961728+687496509+686498683+685407976+683078493
3078+680088006+678406366+678493039+678400308+676765258+674902195+674522149
3068+675350144+676073293+676112031+675492680+674193330+672471531+671004294
3058+670267833+670266038+670911788+672058506+673005630+672651010+670581173
3048+667679452+665304202+663951756+662877278+661331817+660035907+660313949
3038+661712985+662213282+661331144+660926719+662129375+663504256+663194730
3028+661354327+659425979+658118701+657014758+655707406+654472294+653811588
3018+653547156+652741671+651047094+649340327+648321562+647618679+646969639
3008+646805117+646986914+646572094+645251206+643523201+641630524+639702325
2998+638223646+637379274+636788191+636212588+635660691+634920940+633799049
2988+632548009+631706403+631704609+632375410+632800700+632224872+630937113
2978+629711573+628768488+627720557+626405914+625535106+626094818+627840359
2968+628994781+628266621+626472022+625066143+623947356+621982327+619266703
2958+617352265+617060836+617308853+616652298+615229593+614262465+614022936
2948+613333551+611300619+608667855+606847456+606260748+606261982+606157136
2938+605567399+604389197+603148925+602738442+603283235+603928760+603871439
2928+602839212+600794913+598163645+596127535+595598073+595893165+595297521
2918+593156378+590751963+589641776+589772645+589863581+589096871+587616098
2908+585783845+583884588+582437055+582059514+582773503+583701744+583768712
2898+582758471+581394733+580300437+579280961+577771060+575683013+573566997
2888+572056199+571357877+571222708+571173164+570767206+569855679+568572631
2878+566999688+565176185+563530030+562706036+562780333+563089260+562877176
2868+561868619+560356249+558919336+557888867+557090038+556283468+555589522
2858+555253972+555252812+555226638+554674031+553339869+551513338+549808889
2848+548660114+548071162+547653089+546839042+545363167+543602332+542179328
2838+541219005+540260216+538982216+537646035+536572827+535644886+534545654
2828+533192871+531958956+531458921+531708359+531714304+530592488+528714581
2818+527031370+525913518+525222001+524717779+523996499+522717826+521025941
2808+519299917+517731312+516442057+515575175+514987420+514221308+513020895
2798+511668337+510672829+510213887+509944258+509334779+508205447+506854047
2788+505671022+504804551+504242821+503911795+503502322+502555198+501018674
2778+499434850+498313819+497571152+496782642+495762119+494634769+493472795
2768+492161068+490662160+489206850+488058224+487159934+486181962+484917049
2758+483525679+482348822+481582149+481165310+480783806+479993539+478689852
2748+477374610+476530574+475958299+475130005+473878254+472437564+471143411
2738+470262657+469816877+469517447+469000773+468041909+466654501+465211680
2728+464199122+463609647+462943557+461968801+461003879+460241207+459296252
2718+457795100+456060664+454765165+454077238+453542055+452674463+451360306
2708+449867193+448682410+448085718+447761199+447125059+446060639+444963987
2698+444074745+443222446+442324717+441674742+441450394+441296192+440734274
2688+439713303+438498606+437318871+436304181+435489947+434777828+434036656
2678+433186413+432165105+431020667+429990348+429269629+428803994+428415385
2668+427955172+427321575+426481466+425444416+424237235+423047442+422215035
2658+421809750+421423459+420689205+419800711+419201813+418963742+418767138
2648+418337586+417634180+416727738+415764499+415009081+414635802+414442152
2638+413986539+413060915+411874786+410747136+409795750+408999650+408380187
2628+407946933+407553651+406960325+406044311+404914567+403857214+403147414
2618+402780492+402397006+401650188+400670048+399951759+399708229+399577883
2608+399135693+398432211+397787621+397296261+396802807+396176165+395418055
2598+394626778+393911519+393264610+392618899+392055523+391675103+391251758
2588+390432999+389333991+388496237+388193330+388132120+387865931+387251105
2578+386487273+385875663+385537084+385301107+384909357+384323808+383760133
2568+383410486+383184643+382789154+382107920+381426612+381117198+381132940
2558+381031983+380531986+379829065+379292574+379031545+378876333+378676364
2548+378464467+378310003+378127272+377735821+377083005+376316295+375652785
2538+375239049+375076546+374997538+374766123+374272445+373616750+373005588
2528+372602396+372452046+372487979+372576260+372555694+372320951+371924416
2518+371509035+371117323+370714730+370388041+370284243+370336927+370286000
2508+369987580+369558888+369228871+369111649+369091944+368930189+368498992
2498+367868124+367216093+366762349+366636265+366662925+366455665+365876211
2488+365219469+364816090+364676060+364661739+364769202+365007497+365163045
2478+364977584+364495497+363968129+363477142+362917543+362295463+361782117
2468+361501083+361437705+361501569+361547411+361392124+360910337+360142692
2458+359350106+358916890+359040095+359499074+359858667+359888243+359666176
2448+359358594+359074195+358890155+358848838+358882714+358811708+358498144
2438+358019721+357626925+357493886+357563808+357669401+357727769+357735622
2428+357639413+357353295+356911927+356492583+356278928+356378688+356776308
2418+357253123+357499906+357434023+357269875+357221565+357290851+357335571
2408+357196812+356832695+356433990+356270179+356355281+356432831+356328883
2398+356142412+356036034+356008364+355947080+355784951+355541346+355271455
2388+354969931+354442787+353356792+351539982+349091221+346079495+342386423
2378+338015558+333289213+328504799+323628178+318574172+313627629+309349158
2368+306109588+303828882+302135931+300776381+299971887+300359860+302493823
2358+306463591+312015556+319002678+327619558+337639139+347359963+354273217
2348+356849782+355515920+352367865+349432529+346905919+343974734+340510834
2338+336977985+333548335+329953790+326086063+322517542+320148835+319315606
2328+319515276+319975639+320287969+320643897+321585786+323374478+325643723
2318+327805655+329607546+331142163+332548677+333936981+335501549+337444106
2308+339694693+341835199+343398010+344234941+344613528+344968709+345525803
2298+346189912+346808739+347413096+348108762+348839614+349400373+349684136
2288+349836618+350111370+350593756+351124489+351468939+351500160+351272185
2278+350999191+350920370+351109570+351416217+351596742+351499637+351153542
2268+350714717+350357330+350211130+350334148+350683234+351137240+351564773
2258+351860314+351984416+352022518+352134393+352397030+352739423+353061026
2248+353370739+353742222+354142983+354417024+354481712+354434262+354424241
2238+354508633+354645486+354781628+354942074+355204711+355566099+355920794
2228+356194685+356382278+356467979+356456649+356450592+356578209+356862196
2218+357199354+357450400+357573119+357677029+357893600+358224738+358586948
2208+358931697+359229482+359425562+359520910+359628037+359856947+360212875
2198+360641866+361073213+361396537+361545018+361628999+361847963+362261175
2188+362751151+363171618+363460167+363666006+363910209+364268568+364690717
2178+365051095+365262095+365351198+365443293+365647376+365991002+366480979
2168+367098198+367690366+368041583+368123171+368151476+368355483+368785634
2158+369337381+369858542+370240009+370488998+370713272+370973553+371192741
2148+371297288+371373192+371552932+371815869+372036740+372174602+372303116
2138+372500841+372779893+373085456+373347420+373564028+373799818+374061744
2128+374248066+374303255+374346741+374525884+374810208+375077406+375322170
2118+375585443+375753480+375659067+375357954+375103319+375065965+375251688
2108+375628854+376128927+376560573+376752017+376766786+376798232+376926223
2098+377144514+377464883+377802453+377946484+377831693+377664665+377640585
2088+377689792+377632135+377476213+377425323+377599941+377872898+378013116
2078+377904269+377609850+377317898+377206995+377272654+377337154+377308550
2068+377321113+377508968+377743337+377747525+377462416+377150609+377093737
2058+377288359+377496554+377510800+377320291+377082519+376965634+376979543
2048+376971130+376836596+376722590+376889879+377308849+377584723+377440654
2038+377039182+376659548+376396724+376322203+376515180+376804776+376904611
2028+376874586+377057205+377546097+378073241+378451156+378826528+379348624
2018+379778438+379723734+379233346+378800803+378754774+378979122+379202124
2008+379264418+379132277+378868294+378597693+378438517+378442032+378513188
1998+378478638+378454297+378915594+379993550+380965352+380976046+380026828
1988+378733348+377555969+376686170+376173011+375862102+375556427+375296669
1978+375203714+375158471+374904845+374371607+373787067+373558045+373916815
1968+374529137+374693883+374163150+373411583+372906874+372611408+372365971
1958+372244673+372277278+372224369+371865412+371284836+370776276+370593881
1948+370866875+371713603+373154218+374583354+374757187+373134588+370771752
1938+369058292+368312222+368032160+367802465+367577294+367434945+367348010
1928+367308600+367648861+368724948+370139389+371090850+371583930+372026906
1918+371815457+370036114+367393179+365634550+365519796+366345136+366882039
1908+366467855+365394685+364346081+363643123+363209009+362995168+363140583
1898+363764570+364634443+365203951+365413567+366011754+367231013+367844007
1888+366753113+364712367+363119868+362361571+362129782+362200339+362431007
1878+362658084+362783159+362873160+363520068+365846672+370206282+374601190
1868+375659927+372634403+368351146+365484125+364463677+364415703+364511762
1858+364392932+364077685+363787192+363718915+364026085+364887134+366480156
1848+369159473+373222532+377408908+378487986+375212277+370647949+367930568
1838+367377026+367650955+368047565+369522394+373231768+378083412+380906610
1828+380521142+378969812+377452769+375185131+372261649+370205721+369714024
1818+370033085+370382881+371028855+372694342+375207865+377160256+377349980
1808+376257516+375438981+376135732+378700407+382354591+385288693+386058507
1798+385331880+385455271+388267477+393203962+396638322+395138031+390485272
1788+387141548+386897606+388528357+390454835+392343362+393995238+394748300
1778+394999683+396676910+401422774+408571070+414340560+414988254+411402420
1768+406767909+403181365+402222426+404647144+408672588+411168649+411754011
1758+412228583+412914229+413728015+416479833+422722772+430448766+435036426
1748+434764554+432277578+430475426+430574663+432616569+435576695+437840780
1738+439780458+444282641+452351738+458884423+458037097+452751676+448000952
1728+445104915+444372231+446019920+449400250+454287079+462236299+474581175
1718+488481906+496345836+494795814+489108510+484836882+484234021+487892393
1708+495445751+504840073+513078291+520207107+529819795+543105924+554555949
1698+559247333+559288314+556728388+553075026+552001258+555686104+563097823
1688+573034993+586901511+604782704+617981001+618060943+611936684+608905066
1678+612068003+620527802+630561779+638658508+645739762+653663070+659580181
1668+659789348+657812541+659618544+665793506+671716076+673875802+674835938
1658+679297552+690021549+707396799+725585835+730896159+725535357+724099827
1648+728722598+731592012+726464383+718189222+713434983+713713848+718411776
1638+726146556+732218019+728820638+716329450+704245454+697440672+694646414
1628+692997080+691337052+690013472+687608683+681872696+674923135+671339021
1618+671424872+669646987+661733849+651617238+644377743+640698955+638547979
1608+635841366+632232949+628686451+625823094+623329800+620698681+618054886
1598+615977944+614589902+613273725+611476733+609301489+607083695+604959116
1588+603008595+601380799+600104519+598942806+597809548+597614739+600073222
1578+605599369+610613590+609769368+605016363+603108580+605792608+608578564
1568+606928184+602690282+599947064+600877698+607745298+623281341+643596787
1558+650760302+639813154+626601022+618274635+614384099+613390349+613949686
1548+616118461+621729449+632108884+646295697+661859559+673862416+673656988
1538+662921624+654684453+654663588+659471447+662783650+663765099+667031684
1528+674546080+683665089+691753592+699457488+706864869+711118288+711847645
1518+712131819+712255584+710457358+708039108+708840929+715549316+728369623
1508+743328418+748979004+738758968+725288499+719036212+720399576+726264040
1498+732187508+733813733+731166125+729357429+732576154+740179616+746820773
1488+747288390+742685361+737879298+735939882+737012042+739772050+743536240
1478+748981023+756671083+765581075+772566158+773276819+767282981+760450454
1468+758216693+761175249+765508685+766854176+766347598+769111344+777815683
1458+788810319+792195286+784772649+775172038+769253506+767270118+767354099
1448+766887305+764207465+760154015+756680730+754978600+755761725+759619094
1438+765585263+769748120+768819692+765218827+762709043+761410067+759596585
1428+757474325+756965204+758341954+760065099+761980734+765647033+769982863
1418+770004699+764212550+757258053+752870623+751044728+750123404+749281126
1408+749177477+750285084+751400843+751236396+750893592+752403829+755851240
1398+759632032+762317331+762816805+760728945+758097116+757869253+760326090
1388+762825480+763043247+762108164+762944459+766628482+772097943+778236411
1378+785097056+792904600+800468951+805630457+807887924+809162746+811183152
1368+814046060+817446507+821343511+824717858+825341921+822305741+817558905
1358+813654796+811350441+809640308+807372820+804547378+801870305+799698016
1348+797998129+796795248+796304000+797010922+799396716+802909262+805601740
1338+805892720+804436102+803153652+803138172+804147216+805418822+806708600
1328+808578842+811440404+814680292+817437832+819866776+822676588+825805050
1318+828591007+830918396+833174741+835401622+837345002+839052068+840875571
1308+843069472+845686420+848652529+851671359+854237380+855962543+856833912
1298+857085257+856945862+856454838+855299893+853081612+850035187+847030491
1288+844528110+842022813+838829813+835044235+831336058+828099460+825236552
1278+822637327+820482986+819086119+818710111+819442084+820915529+822269920
1268+822799082+822609508+822342982+822407445+822844251+823812314+825645838
1258+828207745+830625397+832072219+832634137+833162327+834378295+836203443
1248+837914248+838991942+839752782+840958953+842919982+845217308+847248108
1238+848824604+850235680+851802827+853457695+854819863+855691306+856470842
1228+857988109+860680662+863959437+866814120+869022380+871232958+873897318
1218+876678713+878944257+880412990+881370135+882644208+885172838+889063261
1208+893231278+896376192+898380669+900373630+903103799+905841894+907410164
1198+907874490+908653128+911005494+914830782+919032376+922622323+925139361
1188+926499659+927182800+928249052+930457237+933557730+936834711+939842249
1178+942148923+943229908+943397496+944164767+946710970+950399480+953722901
1168+956264767+958557307+960602690+961975029+962905401+964059000+965592719
1158+967121802+968168163+968342780+967893112+968068328+969788929+972190952
1148+973565384+973540556+973379773+974155719+975726905+977829048+981054354
1138+985655064+990061338+992237741+992453938+993017650+995257843+998223727
1128+1000441783+1001452024+1001559038+1001563824+1002647202+1005387616
1120+1008864565+1011302932+1011719472+1010740865+1009784992+1009704301
1111+1010629513+1012946881+1017053651+1021636264+1023834204+1022647551
1103+1020511681+1019935106+1020850147+1022164529+1023752915+1025865677
1094+1028102131+1029588662+1029668081+1028697401+1028507677+1031056423
1085+1035914760+1040037683+1041111115+1040173937+1039663919+1040138191
1077+1040174161+1038919531+1037530815+1037876087+1040574623+1044507224
1068+1048425841+1052385363+1056256044+1057772190+1054715669+1048574808
1060+1043134063+1040865977+1042327157+1046740462+1052019077+1056076640
1051+1059224097+1063279117+1068442642+1072790287+1073741823+1070239148
1043+1063920005+1058084856+1055334646+1055587561+1056776382+1057799336
1034+1059225667+1060668675+1060119022+1057282662+1054949215+1055440912
1025+1057889972+1059832380+1059681767+1057435966+1054502239+1052658470
1017+1052403535+1052823366+1053058333+1053035375+1052665350+1051438539
1008+1049520137+1048403705+1049428752+1051642920+1052247912+1049942285
1000+1046446864+1043706375+1041554651+1039287088+1037199229+1035038306
991+1031990385+1028568850+1025730470+1023297638+1020812980+1018639420
983+1017043556+1015444850+1013561895+1011867691+1010456466+1008822014
974+1006375421+1002695736+998045370+993517124+989740670+985876047+980967306
964+975745152+971805596+969199866+966186719+961748138+956966603+953202637
954+950198614+946749558+942545945+938688127+936762246+937340691+938901332
944+938851751+936349520+933438751+932744318+934646343+936984650+937364921
934+935686796+933951163+933619351+934175137+934428650+934007250+933133563
924+932028124+930968527+930144047+929446922+928834377+928448348+928189002
914+927704783+926892194+925936620+924931913+923936330+923437156+924363116
904+926932202+929527762+929831680+927481108+924288931+921678639+919472697
894+917346250+915794059+915207537+915194974+915205518+915130063+914962474
884+914402277+913231927+911848595+911133148+911745320+913463155+915107104
874+915357028+914000693+912151914+911134868+911493676+912793101+914027989
864+914657510+915200209+916026558+916125944+914422767+911781590+910364830
854+911444170+914419327+917336677+918238557+916644563+913794143+911553652
844+911102861+911955534+912244345+910913736+909133682+908461759+908771958
834+908953755+908685584+908442315+908317578+907995040+907557710+907374268
824+907575209+908298209+909617227+910833494+911070032+910904463+912205982
814+915915057+920842717+925011258+927419038+928189076+927837223+927051182
804+926715632+927233353+927809778+927196186+925384872+923797833+923594573
794+924594269+925404316+924375081+921458105+918820517+918631017+920787453
784+923260593+924278611+923977012+923647519+923734267+923656568+923524277
774+924366182+925901397+926152667+924873508+924834471+927905575+932305418
764+934985258+935029081+933455278+931572173+930472867+930678519+931737294
754+932723604+933186733+933095274+932220764+930214343+927219892+924148190
744+922357442+922842932+925521650+929240447+932143364+932775278+931469422
734+929793989+928786964+928675314+929544962+931051237+932094157+931818657
724+930669845+929918652+930243134+931319333+932539040+933720607+935069539
714+936115450+935300468+931769076+927410064+925406559+926281144+927299835
704+925985677+922212812+917012569+911913656+909059423+909569067+911807465
694+912678385+910500337+905787303+900064029+895079160+891942921+890273470
684+889178875+888332783+887455806+886015490+883804089+880775238+876730537
674+872045996+867203738+861460871+854407585+849716762+852671653+860899402
664+868895847+874932087+878168460+877128905+871861208+864111845+856283810
654+851038921+850285186+853385006+856783807+856866667+853247480+848220883
644+844069916+842260398+843674240+847152312+849314730+847846146+843555186
634+839183910+836970191+836988138+837525602+837116316+835941404+834437747
624+831706083+827282907+823060448+820923905+819704198+817707050+816336282
614+817847791+821991653+826697283+830437842+832572516+832801276+831186866
604+828229806+824613013+820585513+816392369
##END=
