##TITLE=<SNM>
##JCAMP-DX=4.24
##DATA TYPE=INFRARED SPECTRUM
##DATE=3/5/2025
##SAMPLING PROCEDURE=Instrument type and / or accessory
##ORIGIN=Admin
##XUNITS=1/CM
##YUNITS=ABSORBANCE
##RESOLUTION=4
##FIRSTX=4497.3318
##LASTX=599.83466
##DELTAX=-1.4281778
##MAXY=1.7158383
##MINY=0.17695959
##XFACTOR=1
##YFACTOR=1.597999e-09
##NPOINTS=2730
##FIRSTY=0.19927831
##XYDATA=(X++(Y..Y))
4497+124704906+125895769+127210429+127806336+127226747+125829823+124410137
4487+123556807+123421345+123876315+124655009+125320955+125331595+124475812
4477+123335742+122886516+123398797+124229924+124833841+125244668+125439642
4467+125134979+124469201+124108719+124366739+124742131+124551680+123743501
4457+122959800+122830837+123295403+123704728+123564137+123043164+122664695
4447+122649402+122763642+122645943+122053617+120998189+119896985+119397068
4437+119788657+120653541+121226145+121073804+120351470+119493096+118853427
4427+118605021+118698475+118872897+118890382+118715475+118353995+117743402
4417+117029404+116678201+116980421+117635848+118078603+118036660+117593019
4407+116946543+116303313+115772624+115291311+114878507+114780736+115037459
4397+115252622+115143744+114923183+114883375+114986806+115001148+114767112
4387+114299031+113770729+113403767+113363838+113684231+114128478+114284502
4377+114039416+113738456+113606042+113318416+112540758+111649476+111412838
4367+112023394+112933942+113585695+113764696+113335565+112317688+111230005
4357+110738238+110960814+111497545+111945196+112105696+111998096+111926322
4347+112279297+113057282+113732497+113737738+113105520+112520709+112600633
4337+113151967+113376622+112861916+112068210+111722769+112041419+112673675
4327+113159576+113297864+113155156+112831097+112385312+111994748+111868415
4317+111931824+111929036+111829325+111786868+111855481+112066671+112529353
4307+113102564+113253459+112669534+111799410+111421519+111810013+112559846
4297+113060061+112964648+112456433+112198600+112698171+113641328+114255586
4287+114278357+114086078+113958131+113748032+113300149+112812867+112670243
4277+113025559+113615563+114022613+114117997+114154858+114398089+114797632
4267+115117662+115244695+115214324+115039912+114720739+114436638+114513503
4257+115039762+115690239+116105401+116306054+116598007+117206102+118044139
4247+118721638+118852299+118485504+118058341+117878342+117900190+117926365
4237+117720565+117121338+116359085+116028527+116507071+117581214+118721694
4227+119550229+120010151+120146603+119857559+119139655+118456075+118372477
4217+118860906+119451786+119953978+120503708+121023701+121184341+120861747
4207+120288294+119848094+119866697+120365570+120898394+120895102+120270866
4197+119498756+119095510+119264785+119950556+120935852+121867044+122383783
4187+122364928+122015646+121609454+121192417+120716903+120375529+120489451
4177+121104912+121991261+122942735+123812319+124424572+124735613+124890387
4167+124916367+124602454+123867121+123015218+122454233+122321828+122471595
4157+122628850+122527890+122123572+121724709+121737615+122265515+123064891
4147+123795991+124194891+124169900+123878516+123538614+123140190+122606592
4137+122190124+122317492+122986991+123664538+123865741+123663698+123559745
4127+123880428+124363056+124471998+124121019+123794816+123872996+124219098
4117+124589772+125046094+125691470+126310894+126553024+126353854+125986015
4107+125717608+125589568+125557070+125696505+126143969+126865762+127581709
4097+127934078+127748326+127166658+126512181+125964876+125394463+124649582
4087+123993016+123976222+124769453+125897671+126823605+127530142+128322431
4077+129253885+129912343+129727328+128538778+126902064+125660474+125176727
4067+125177622+125280932+125340584+125335446+125319593+125508115+126085176
4057+126876617+127424827+127459860+127161902+126865949+126651234+126424024
4047+126299574+126520825+126961035+127124556+126790464+126286892+126023874
4037+126080700+126324481+126712014+127376319+128389113+129414273+129853018
4027+129573402+129206058+129369364+129861271+130019645+129696435+129427263
4017+129650995+130113910+130220531+129753251+129008547+128383602+128107679
4007+128265810+128772627+129362352+129834471+130251601+130730276+131135321
3997+131173618+130766596+130217472+129975948+130249251+130844161+131398236
3987+131751668+131999384+132161301+131998806+131364564+130640897+130525846
3977+131299635+132493360+133332992+133378348+132762551+131983820+131498898
3967+131487811+131949290+132773937+133642326+134194714+134399162+134432368
3957+134294901+133951624+133682200+133897875+134705354+135741955+136380552
3947+136367627+136253080+136669586+137347897+137450489+136734972+135743559
3937+135142020+135463747+136945985+139006440+140294879+140025744+138989366
3927+138521882+138920082+139353139+139220223+139054128+139638593+140808363
3917+141578738+141273833+140186896+139063779+138329938+138067610+138631775
3907+140846091+145030980+149798030+152692587+152708468+150716989+147616659
3897+144230065+142069274+142399012+144723809+146658499+146493411+145819725
3887+146955982+149275268+150375866+150208838+150346315+150145364+148307055
3878+146418327+146767199+149206114+152257302+155004955+156451329+155638404
3868+153957499+153651111+154373389+153892850+151655623+149531003+149300091
3858+151815078+157622460+165725284+170343621+166132036+157578484+150672285
3848+147552057+148377095+152129663+156971396+161517633+165408984+167923253
3838+167579090+164602754+161335407+159090869+157391744+155910065+155227978
3828+155543094+156470277+158590346+162998090+168205443+170244628+168880248
3818+167560870+166505255+163380895+158821827+155877839+156309777+159832813
3808+164240762+167105032+169083549+172149852+175081783+174967013+172891833
3798+171655857+170891347+169275903+167587017+167235617+168238211+169988418
3788+172459755+175763824+179414257+183035148+187084014+191722922+195855396
3778+198657058+201056613+204588713+210219901+218089267+226880566+234382606
3768+240171646+245788846+252303344+260281830+270744503+283985732+298223158
3758+311300436+323682302+337794588+355493113+376101563+394828027+407445346
3748+416912644+427989380+440103752+447728825+450581905+454668145+463586505
3738+476950114+491936477+505041339+513937021+518238070+519017518+517936055
3728+516675405+516347057+516749929+516823932+516155673+515531801+515935979
3718+517656383+520964368+526755049+534913245+542066105+544275619+543055252
3708+542905121+545908481+551698789+558391373+563146730+564715363+565036437
3698+566459154+569645356+574204928+579541375+584978605+589154663+590376223
3688+589187076+588409567+589452015+591371040+592717852+593520501+595846911
3678+601504694+608455018+611493365+609581576+605774411+600436285+593052429
3668+586518256+583642871+583977970+585776853+588002144+590422624+593025946
3658+595950044+599603163+604537334+611029097+618602174+624748133+625098861
3648+619576513+614047116+612638946+614874196+617724926+618753461+618689679
3638+620240035+624133921+628164511+630719978+633225687+637136620+640134086
3628+638855905+635997193+636723565+641781384+648489261+653766849+655823173
3618+655579682+656413028+660925603+669120762+678674818+686366582+689691315
3608+688158826+683718538+679557027+678615139+681906004+686784188+689025145
3598+687958826+686219025+685210222+685057368+687471843+694202398+702921765
3588+707354518+704644258+699680508+697432837+697548690+697205385+695323622
3578+693129812+691932496+692111385+693746970+696836194+700497965+702853805
3568+702652760+700820905+698668795+695610679+690983148+686316228+684007535
3558+684955913+688474305+692860136+695681847+695774126+694820899+695302585
3548+697829182+701178533+703643809+703731090+700942949+696750778+693624329
3538+692405827+691454763+689238946+686952185+687040287+689831860+693088931
3528+694740929+694488634+692908476+690883857+689455358+688939207+688682735
3518+688038199+687257818+687320854+688708174+690462968+690839843+689332270
3508+687634170+687417460+687918915+686805151+683612607+680924130+680975827
3498+682815292+683923387+683650951+683382917+683962104+684711303+685278629
3488+686615743+688717872+689561662+687345621+682845654+678755310+677082426
3478+677829163+679629314+681265048+682761879+684863634+687727792+690848870
3468+693823733+696396879+698217321+699036047+698654472+697039625+694930037
3458+693547268+693399860+693768753+693408887+691623059+688925928+686697131
3448+685704217+685400226+685422158+686261547+687014177+684944798+679554565
3438+674478320+673189621+675117858+677042664+677185745+677016256+678744121
3428+682050502+684706529+685640882+685359122+683896904+680836625+677186417
3418+675079738+675721290+678248857+680445577+680747853+679909135+679633491
3408+680081086+680503391+681084518+682321595+683409026+682875941+680526815
3398+677717935+676106818+676438113+678004023+679362547+679614618+678702569
3388+676760083+673887271+670741949+668589541+668232659+669538517+672051387
3378+674742475+675716367+674316738+672423488+671501965+670558809+668927923
3368+668104423+669194466+671281674+673475111+676091153+678915848+680384928
3358+679320772+676468251+673675186+672006255+671355452+671505620+672217072
3348+672440795+671319943+669785067+669331504+669924418+670489357+670482568
3338+670081524+669784097+670124418+671077645+672034603+672560004+672733522
3328+673043705+674184922+676131958+677254526+675665490+671890253+668744260
3318+668148362+669173652+669728073+669325611+669163432+670403568+673020654
3308+675645050+676582462+675693689+674560081+673992829+673152918+671820354
3298+671183800+671688836+672357915+672643033+673061608+674138223+675914502
3288+677995295+679660571+680365980+680126069+679485710+679276087+679651768
3278+679312939+676986044+673508308+670969477+670341576+671025575+671933148
3268+672301369+671958810+671089954+669809983+668344633+667134262+666352314
3258+665881594+665837058+666673986+668659814+671262502+673243257+673802303
3248+673448852+673112634+673032589+673023190+672704577+671237959+668265110
3238+665049143+663172677+662704045+662947462+663826612+665208710+666124862
3228+665948360+665222735+664530977+663901212+663714938+664348508+664678907
3218+663170812+660266146+657679050+656068530+655075690+654863903+655947903
3208+657780877+658914858+658663310+657701131+657060847+657325450+658523511
3198+659874725+660016314+658615790+657145293+657012656+657773641+657940221
3188+656802062+654863530+652909630+651149241+649536035+648555206+648651290
3178+649006158+648247932+646302985+644123721+642071052+639960718+638118269
3168+637134456+636822707+636381080+635524608+634689172+634127367+633486187
3158+632372199+630781149+628957127+627354962+626532581+626619340+627153768
3148+627529673+627274693+626171596+624613482+623473608+623114077+622860627
3138+622018254+621123997+621067488+621318216+620607958+619100944+618176661
3128+618358906+619005270+619487218+619445144+618711536+617822614+617499488
3118+617315825+616060695+613514776+610736184+608622866+607397874+607195113
3108+607783439+608032973+607126930+605983326+605919581+606439051+605870159
3098+603819728+601649640+600696636+600907043+601161948+600573958+599301223
3088+598068435+597214425+596575521+596070597+595917184+596153290+596223040
3078+595441764+593825313+592049034+590756231+590287227+590636649+591126392
3068+590770032+589547390+588510089+588200354+587854811+586679017+585107550
3058+584028362+583373046+582428957+581192924+580388448+580359279+580814968
3048+581392664+581794977+581668270+580948090+580095534+579480129+578821083
3038+577613324+576002095+574760020+574179303+573555953+572303844+570970796
3028+570296308+569934316+568998470+567407346+565924577+565153670+564935654
3018+564613236+563884515+563309244+563466462+563773176+562947923+560684325
3008+558072051+556315877+555726879+555829640+555920277+555519643+554522029
2998+553138402+551821579+550948434+550348881+549526202+548409938+547337166
2988+546465401+545686623+544844176+543798744+542551633+541333355+540387700
2978+539819292+539602656+539484789+539185684+538866102+538827198+538734807
2968+537899036+536293664+534649947+533723165+533775347+534348716+534466657
2958+533543717+532034689+530815777+530155239+529592986+528577468+526988544
2948+525273586+524158777+523905475+523938113+523604244+522996635+522481901
2938+521923415+521091597+520293797+519806143+519220503+518085626+516742842
2928+515853397+515392561+514691255+513401288+511964173+511085731+511017995
2918+511259883+510938286+509865253+508970287+508990541+509114860+507901319
2908+505244883+502511609+501018582+501016382+501734361+502014779+501288109
2898+500019663+498934992+498055991+496931708+495562665+494519098+494206006
2888+494377621+494316412+493349123+491427525+489285822+487822187+487316928
2878+487319576+487187759+486685334+486073883+485575673+484969369+484038782
2868+483081191+482448590+481960227+481282755+480491184+479837323+479292712
2858+478650265+477941238+477499798+477486929+477485586+476829077+475322809
2848+473448097+471907066+471048915+470662379+470380469+470236456+470435039
2838+470589235+469814150+467800609+465328320+463478598+462641820+462427757
2828+462316269+462125146+461874232+461559871+461176432+460660206+459800041
2818+458500674+457072176+456009176+455494218+455196643+454623572+453690039
2808+452747405+452006002+451305404+450563255+449980524+449636548+449276681
2798+448641060+447746132+446750308+445695999+444497527+443170745+441951124
2788+441066714+440434263+439720275+438758693+437790023+437137020+436741085
2778+436208112+435236571+433874988+432456113+431317954+430505757+429829106
2768+429212246+428740854+428403815+428073416+427625784+426870692+425634995
2758+424102953+422784488+422001198+421574827+421076467+420296534+419381949
2748+418495226+417524767+416298619+414911821+413640354+412618980+411700143
2738+410618605+409331846+408131173+407294544+406781862+406413230+406091074
2728+405674363+404922106+403779061+402540642+401545974+400782341+399944071
2718+398853991+397655333+396561225+395636830+394884722+394308668+393825788
2708+393297141+392637238+391792552+390776699+389799562+389085462+388540889
2698+387900008+387108362+386248608+385289263+384240474+383319101+382677660
2688+382213915+381797279+381378442+380809662+379926073+378870048+377982467
2678+377322191+376628680+375807829+375106299+374701189+374421517+373979480
2668+373261650+372349676+371435464+370733747+370314500+369983019+369442176
2658+368635237+367830537+367254370+366773691+366143366+365419792+364844111
2648+364445938+364044446+363515538+362845079+362070889+361327248+360764659
2638+360298302+359633736+358682822+357785245+357322246+357190056+356912995
2628+356298746+355681662+355390800+355283415+355033732+354625339+354256484
2618+353922653+353402921+352623770+351814146+351242270+350899822+350529251
2608+349952824+349249802+348545176+347794075+346930889+346098960+345561585
2598+345423129+345507650+345484562+345131633+344517832+343894295+343399256
2588+342956585+342463298+341960425+341599515+341491533+341573890+341634502
2578+341512644+341208616+340757589+340167361+339569375+339216148+339196044
2568+339337409+339488659+339683474+339914247+339963184+339658968+339185525
2558+338908054+338906562+338884779+338589628+338141921+337841287+337779220
2548+337778325+337633752+337288843+336799548+336242441+335694175+335240389
2538+334956353+334871869+334945536+335073175+335155719+335186417+335241806
2528+335340352+335351915+335162246+334895592+334752809+334657472+334379478
2518+333979515+333753629+333766646+333789511+333631174+333267839+332773397
2508+332308458+332035649+331945123+331862318+331634641+331243332+330776006
2498+330357020+330076639+329908754+329679100+329211961+328569998+328043627
2488+327838815+327864589+327842918+327562649+327056569+326550451+326199090
2478+325955673+325744035+325560745+325358768+325091218+324888010+324898268
2468+324984877+324865220+324511919+324160371+323967532+323863130+323712962
2458+323506398+323354887+323331500+323370515+323378236+323367718+323368650
2448+323289911+323021615+322609903+322191066+321810424+321429708+321069543
2438+320822396+320709677+320616615+320423478+320143395+319855443+319565402
2428+319244290+318964095+318853241+318904304+318942723+318832204+318632204
2418+318505721+318550816+318773122+319120045+319450221+319556935+319355368
2408+319024595+318850481+318921425+319082522+319188266+319259694+319357680
2398+319451004+319468497+319381850+319224223+319100090+319105461+319146192
2388+318948616+318327616+317282706+315758945+313506947+310269234+305984168
2378+300834742+295272856+289925648+285239277+281192070+277445703+273726024
2368+270085010+266960203+264901528+264072546+264214210+265188548+267251997
2358+270755171+275853684+282627301+291259275+301426480+311389489+318607997
2348+321417660+320078084+316753873+313869238+311875017+309598588+306251420
2338+302053374+297676160+293652638+290129789+287116806+284822790+283482524
2328+282990132+282955519+283030733+283168648+283685023+284954439+286943344
2318+289196051+291287642+293104540+294739995+296334513+297997122+299708967
2308+301297778+302601006+303622920+304471467+305214194+305867999+306449667
2298+306961641+307391760+307783946+308231261+308754742+309264161+309665448
2288+309954184+310193236+310436504+310670839+310823058+310829660+310669701
2278+310335609+309873449+309464067+309301087+309344821+309359759+309231262
2268+309087659+309086372+309224511+309388088+309485067+309495287+309435925
2258+309314086+309109274+308785383+308348587+307922477+307696945+307737937
2248+307908247+308038479+308147412+308432586+308987174+309572236+309834676
2238+309753848+309652766+309774157+310090159+310503457+310991894+311559724
2228+312201743+312900643+313594601+314208813+314785128+315513812+316522280
2218+317680133+318772935+319822694+321038883+322517288+324203601+326067907
2208+328103455+330226844+332341169+334440649+336561763+338721817+340984296
2198+343437488+346007203+348470801+350748647+352950328+355093971+357071444
2188+358901434+360755931+362743773+364775517+366608715+368076154+369282161
2178+370417074+371456090+372240276+372710064+372906185+372905103+372795219
2168+372559001+372022372+371076120+369918565+368924234+368215878+367555676
2158+366766716+365996555+365441650+365074473+364677978+364056904+363349555
2148+362929375+362853135+363152203+364812220+369174962+376111708+384013880
2138+391638318+398843323+405775072+412460234+418999666+425574793+432340298
2128+439275105+446126026+452699960+458969007+464723806+469525638+473016988
2118+475038400+475702332+475398117+474513707+473467865+473117399+474599683
2108+478692264+485679291+495673892+508446266+522643818+535651291+544773605
2098+548284910+545541006+537493180+526712901+515358134+503764874+491489517
2088+478357091+464426342+450101822+435966859+422219027+409060342+397240114
2078+387379940+379427079+373086566+368011551+363711547+359915758+356697777
2068+354106987+352076884+350424738+348777590+346964794+345239615+343762777
2058+342461619+341428683+340772547+340357552+340130584+340225101+340712643
2048+341717978+343488364+346177028+350020672+355592964+363517291+374245948
2038+388107394+405022554+424274121+444853178+465667895+485260939+501704708
2028+512982302+517913713+517049072+512116131+504675356+495830998+486455159
2018+476971822+467370545+457610073+447800552+438173687+428934700+420004553
2008+411131325+402326766+393895538+386087436+378961320+372477912+366601367
1998+361393566+357002514+353453089+350437345+347465131+344384486+341543939
1988+339191605+337112043+335130766+333475561+332325317+331453813+330564778
1978+329664777+328948887+328450006+327931281+327246125+326676337+326564327
1968+326693047+326470630+325736948+324947317+324527100+324445115+324449517
1958+324392299+324210912+323861900+323416095+323018892+322706695+322429224
1948+322258728+322440451+323122212+323946719+324120945+323291366+322073088
1938+321253467+320947536+320810162+320625231+320452683+320420979+320539517
1928+320787745+321345784+322341906+323354439+323856155+324122623+324688719
1918+325126578+324586518+323351493+322549254+322692036+323350858+323845189
1908+323860706+323550336+323231500+323044517+322935714+322891291+323038848
1898+323469844+323994611+324263914+324342318+324787488+325712629+326263953
1888+325713487+324551680+323702892+323420385+323444779+323570143+323728218
1878+323866599+323929337+323973947+324450114+326110652+329081823+331931844
1868+332512859+330515617+327816883+326038328+325355486+325223781+325227100
1858+325234486+325237582+325237656+325259178+325482416+326187862+327541985
1848+329665971+332531323+335101747+335390035+333050532+330271753+328861345
1838+328778316+329126843+329525202+330585554+333005549+336131848+338088172
1828+338162995+337492909+336699025+335312340+333531212+332417745+332382162
1818+332836246+333240611+333827967+335103164+336916929+338350687+338702347
1808+338329985+338175752+338922340+340746437+343218800+345279004+346034021
1798+345923727+346496200+348920596+352715490+355416089+354781997+352019443
1788+350134063+350424179+352158272+354253686+356376105+358329296+359646120
1778+360542428+362328629+366195138+371626624+375881570+376562996+374663180
1768+372421477+370984027+371128414+373263776+376270194+378270644+379183103
1758+380179448+381354049+382527828+384816790+389265321+394684610+398195766
1748+398601212+397416839+396540002+396950110+398703264+400886481+402325535
1738+403572571+406769590+412325358+416541886+415854306+412563143+409803125
1728+408194060+407898163+409120208+411385857+414530321+419769230+428102882
1718+437348098+442061605+440183461+435657683+432294531+431484236+433530415
1708+438144406+443941764+449075339+453720998+459916975+467725525+473629335
1698+475700728+475570926+473718369+470844662+469742200+472014302+476935194
1688+483706219+492960425+504028395+511305351+510874168+507564393+506575768
1678+509468908+515621543+522712971+528600519+533951886+539936450+544750106
1668+546193748+546512958+549271446+554678314+559997790+563306521+566003540
1658+570656920+579024291+591720499+605330770+610846180+608992840+609435362
1648+614147936+618148388+617166067+614255919+613857149+616847603+622683678
1638+630729900+638449937+640619428+636377201+631761829+630868579+633429268
1628+637426288+641609134+646028385+650062183+652421156+654250176+658603556
1618+666041758+672217669+672163361+667544706+662617212+658802139+655606239
1608+652442715+649492992+647627641+647675608+649828315+653617054+658238244
1598+662840263+666591255+668776785+669244969+668640194+667731503+666655410
1588+665183048+663491588+662201396+661660628+661719188+662583269+665315760
1578+670436690+675635278+677155831+676275263+677747402+682899216+688800304
1568+692514220+695425375+700480658+708875519+721328870+739643770+763085792
1558+781310577+787914985+791438301+797505520+805849206+815188492+824369031
1548+832437893+839879303+848023362+857096627+865769071+870125957+864886937
1538+853910499+846539287+844802695+844819703+842692808+839482883+838758228
1528+841552934+846357564+851655145+857012703+861419421+863372426+863856872
1518+864967728+866323417+866554600+866191750+867198315+871212717+878691202
1508+887249734+889753205+882406014+873045244+868185560+868188618+871149457
1498+874253824+874975123+873590862+872926258+874854272+878756477+882090236
1488+882277331+879114925+874675011+871300222+870068591+870613761+872251957
1478+874854421+878510747+882856891+886468010+887121125+884634215+881951407
1468+881397434+882677779+883771849+883225112+882461665+884217579+889106207
1458+893854589+893221019+887634814+882396764+879695232+878976320+878992210
1448+878265988+876146627+873375047+870848748+869118795+869187127+872076649
1438+876926710+880048459+878615857+875191162+873583253+874169900+874935436
1428+874673593+874074637+873989296+874680232+876314848+878432493+879173038
1418+876987434+873168929+869945204+867938488+866756017+865889698+865060678
1408+864477984+864409577+864525728+864498499+864815247+865859038+866890669
1398+866927073+865908646+864076940+861495289+859054779+858186296+858832026
1388+858623298+855235454+850148839+847594119+849801357+855372716+861277310
1378+865610175+868596676+871392501+874500822+877543570+880244132+882895459
1368+885984160+889844514+894210054+897731132+898666008+896849669+894162012
1358+892497259+892308672+892938438+893589464+893997297+894415500+895256829
1348+896762537+898707485+900610060+902564706+905339121+909090039+912552705
1338+914350618+914665800+914653714+915030813+916009404+917692957+919941672
1328+922454692+925139887+927824783+929934296+931277230+932676709+935059106
1318+938388613+941882462+944694848+946222265+946351545+945450015+943990110
1308+942558479+941949825+942549527+943807193+944870529+945623980+946581310
1298+947835843+948673218+948366019+946922377+944748037+942140202+939540125
1288+937637101+936661718+936027850+935159591+934036874+932554888+930256415
1278+927181664+924306913+922655886+922270059+922199712+921336526+919478934
1268+917595083+916655134+916516305+916442004+916183369+915767330+914831783
1258+912954198+910064676+906175974+901434828+896528967+892377452+889396621
1248+887294344+885394156+883213848+880859724+878660766+876579973+874502463
1238+872900223+872529391+873575196+875459346+877335662+878605190+879135515
1228+879256887+879646444+880998926+883464948+886367152+888586475+889408632
1218+889206916+889286662+890694198+893010053+894843027+895816695+897231467
1208+900260116+904380224+908070866+910418276+911710034+913024097+915313320
1198+918458418+921473266+923836790+926069466+928871334+932286854+935701031
1188+938333335+939889621+940740275+941483804+942723641+944920734+947761468
1178+950125290+951394146+952202502+953412275+955178036+957317986+959637048
1168+961605868+962665324+963204900+964408482+966741643+969343436+971232509
1158+972479583+973834451+975784770+978314650+980957099+982791790+983076534
1148+982208499+981649976+982392610+983717937+984349493+984736364+986880790
1138+991838125+998363905+1003798151+1005803002+1004016354+1000505048+998271178
1128+999133917+1002856561+1007756678+1011812333+1013837326+1014208531
1120+1014338035+1015346316+1017091711+1018477017+1019164746+1020178249
1111+1022102160+1023963930+1024801603+1025148191+1025642857+1026071429
1103+1026764828+1028720369+1031952673+1035304486+1037783936+1038845705
1094+1038273381+1037473082+1039164989+1043829447+1048294055+1049503381
1085+1048176486+1047215948+1048042954+1049563433+1050007969+1049365074
1077+1049495548+1051654670+1054760976+1056791489+1057114653+1056822970
1068+1057073474+1058069745+1059592163+1061111001+1062332785+1063661545
1060+1065418204+1067625070+1070097060+1071861851+1071706088+1070011719
1051+1068626712+1068742191+1069555321+1069571286+1068937566+1069392397
1043+1071652974+1073741823+1072984568+1069957634+1068267144+1069453046
1034+1070761514+1068946070+1064686014+1061569860+1061741289+1064210296
1025+1066456176+1066637750+1065036704+1063875346+1064877510+1067017833
1017+1068138088+1068117871+1067701907+1066140398+1063079000+1060338975
1008+1059455945+1059523010+1058651991+1056205812+1053106443+1050848030
1000+1050286447+1050946500+1051639078+1051245195+1049014607+1045388793
991+1042359547+1041573944+1042240114+1042044366+1040009526+1037435335
983+1035758347+1034513959+1032264871+1028884114+1025685827+1023301490
974+1020645165+1016590928+1011778166+1007766077+1005207030+1003624484
965+1001959880+998986807+994282364+988759121+983423569+978509428+974448626
955+971790436+969695544+966680547+963144848+961028844+960883525+961045480
945+959859951+957650474+956044430+955874270+956412577+956608623+956300678
935+955734769+954867033+953725443+952712834+952065762+951483292+950727528
925+950195562+950546849+951838309+953268523+953861735+953389150+952707762
915+953001458+954339766+955233016+953991239+950558114+946737670+944339980
905+943391602+942614652+941404282+940500513+941000327+943327372+946533865
895+948439275+947728048+945746099+944568179+944152811+943117002+941282536
885+939799580+939313343+939217260+938462093+936728335+934619568+932783535
875+931569956+931150486+931456193+932288271+933133181+933105952+931837320
865+930113558+928939890+928185768+927022246+925516388+924825750+926043282
855+929374132+934044334+938306703+939899021+937966904+934240157+931260669
845+930407479+931876708+934813525+937389805+938451201+938570112+938279997
835+936826433+933641648+929812103+927426498+927825231+930496251+933753696
825+936367798+937811813+937606740+936073803+935220687+937255602+942283283
815+947849868+950910296+950916786+950360799+951381240+952970649+952643756
805+950005931+947173254+946177580+946974671+947463818+945346770+940793912
795+937037399+937217258+940565638+942948856+942001074+939874030+939741841
785+941930429+944284105+944759302+943219278+941357806+940920432+942102007
776+943935728+945490671+946187278+945782055+944431961+942545349+940910212
766+940676567+942218829+944268738+945202420+945008463+944983472+945901712
756+947381684+948540283+948683513+947779148+946793172+946990934+948188100
746+948664938+947495522+945791231+945365494+947093433+950432265+953812052
736+955609667+955290979+953597057+951674639+950363186+950270982+951898510
726+954961624+957964760+959386694+959151334+958132012+956556404+954025853
716+951004739+948814136+947784892+947152143+947248077+949114770+951454646
706+951457182+949164304+946902161+944623084+940711480+936419495+934269922
696+933178910+929559958+923278415+918509295+917887436+919034398+917970241
686+914202838+910549197+909306675+910153001+910674971+908716223+905210960
676+903576568+905115697+905850125+899418414+884396169+870079482+869470529
666+878897096+884170730+880309108+873603917+872541700+878439505+885039512
656+885830486+880937158+875702016+873719918+873696345+872226146+868205329
646+864187943+863017931+865192644+869473663+873977658+876909850+877297467
636+875551774+872877172+869452104+864102676+857219343+851911840+850430750
626+850847236+849923401+848606652+849837687+851618442+848442683+840242452
616+832796267+829455123+828802679+829537033+832599326+838230588+844308401
606+846800981+843597695+838586501+837855952+841912725
##END=
