##TITLE=<SNM>
##JCAMP-DX=4.24
##DATA TYPE=INFRARED SPECTRUM
##DATE=3/5/2025
##SAMPLING PROCEDURE=Instrument type and / or accessory
##ORIGIN=Admin
##XUNITS=1/CM
##YUNITS=ABSORBANCE
##RESOLUTION=4
##FIRSTX=4497.3318
##LASTX=599.83466
##DELTAX=-1.4281778
##MAXY=1.7174455
##MINY=0.1781698
##XFACTOR=1
##YFACTOR=1.5994958e-09
##NPOINTS=2730
##FIRSTY=0.1991044
##XYDATA=(X++(Y..Y))
4497+124479479+124153469+124438115+124685813+124964460+125517159+126077061
4487+126264390+126283404+126741312+127739008+128537021+128478982+127889874
4477+127548744+127663221+127929589+128189240+128385559+128171287+127124365
4467+125344102+123601980+122801731+123287215+124685282+126275830+127356393
4457+127532078+127042513+126585826+126506359+126508474+126355847+126318629
4447+126643772+127034716+126913633+125953240+124335078+122694502+121707362
4437+121537277+121754651+121851669+121705033+121520927+121504418+121662421
4427+121871699+122055591+122166928+122045799+121459105+120341501+118991915
4417+117969131+117663523+117958156+118426890+118794114+118976888+118847235
4407+118341693+117664045+117049747+116511636+116089157+116037834+116450997
4397+116994558+117268136+117167671+116810703+116415437+116228844+116264077
4387+116215438+115821755+115066159+113993897+112764368+111819598+111483303
4377+111539153+111656527+111880367+112267193+112557875+112620396+112706785
4367+113005927+113391691+113663769+113663918+113352693+113068774+113284210
4357+113902859+114356109+114443420+114473809+114641724+114755987+114467689
4347+113629849+112610428+112066243+112219307+112661220+112945325+112986149
4337+112891757+112775883+112712049+112703403+112733839+112845968+113116295
4327+113571697+113997837+113883537+112992018+111901580+111391231+111463925
4317+111591193+111636721+111859079+112244880+112500069+112652742+113106504
4307+113966144+114794714+115307205+115850468+116762036+117585230+117466319
4297+116240219+114675225+113628796+113330241+113554136+114084189+114763272
4287+115401187+115867917+116078956+115906067+115401801+114959833+114905669
4277+115096911+115207494+115204774+115275139+115453096+115623750+115846890
4267+116369946+117215546+118027366+118434548+118345923+117911482+117424741
4257+117173829+117239424+117539712+118033962+118685879+119316052+119675982
4247+119642155+119308413+118949601+118809309+118864209+118934974+118999461
4237+119159578+119352087+119391355+119293544+119261683+119324511+119294373
4227+119172229+119257407+119612436+119762222+119361329+118870227+119029263
4217+119873056+120784316+121301214+121388609+121095541+120463021+119751983
4207+119415493+119715892+120446121+121147311+121616520+122016500+122409083
4197+122491279+122008227+121230821+120775811+120944126+121370871+121508471
4187+121363381+121383047+121692540+121925276+121856383+121802396+122250820
4177+123268769+124375399+125022443+125158459+125218903+125580062+126132576
4167+126438724+126297938+126043075+126084393+126305279+126229250+125670056
4157+124895874+124234911+123817305+123636813+123619411+123679835+123834307
4147+124219129+124855908+125393543+125334116+124618942+123752585+123268108
4137+123341910+123897880+124690453+125314812+125537124+125590860+125801591
4127+126051339+125965546+125490021+124990591+124843117+125063667+125338308
4117+125428088+125481106+125763451+126198898+126482584+126561576+126658967
4107+126893157+127205146+127626730+128257853+128900622+129094212+128697324
4097+128107695+127750588+127633903+127467628+126974487+126147491+125410266
4087+125349599+126116403+127256030+128173952+128609082+128723354+128845479
4077+129046364+129031029+128618724+128097447+127783334+127513855+126982704
4067+126349586+126099923+126412172+126968524+127355797+127486177+127572435
4057+127740229+127860482+127851417+127845371+127908665+127914813+127781033
4047+127564228+127388311+127428519+127714656+127947187+127876189+127728257
4037+127870543+128290404+128726736+129063589+129395943+129818413+130199583
4027+130265989+130016232+129789989+129728083+129556917+129154906+128886163
4017+129084551+129543325+129805864+129699250+129318079+128808615+128503399
4007+128861550+129858100+130852469+131404536+131685381+131821415+131541251
3997+130806019+130123079+129867285+129817891+129708771+129766885+130320777
3987+131195472+131863683+132032436+131829092+131509119+131240767+131234861
3977+131790048+132860689+133743750+133721959+132979992+132334987+132173753
3967+132250974+132397406+132794013+133531984+134354182+134882380+134882091
3957+134343701+133490778+132766065+132748597+133841849+135688787+137086798
3947+137218669+136791448+136989239+137693131+137701628+136528229+135020213
3937+134326392+135089991+137205039+139693004+141107262+140769589+139521605
3927+138751848+138947757+139468689+139699982+140021613+141078932+142479058
3917+142847736+141349837+138793426+136785746+136222957+136984386+138830504
3907+142064163+146806769+151834469+155085185+155688155+154060640+150511369
3897+145861644+142266761+141684501+143901710+146305131+146747108+146673539
3887+148391551+151036474+152030471+151586808+151516303+151088952+149053063
3878+147294787+148059923+150858200+154285132+157902383+160510647+160110835
3868+157852076+156852060+157353065+156875705+154296050+151399804+150427915
3858+152671610+158701188+167268759+172458178+168871083+160811000+154087815
3848+150769445+151014712+153894766+157842704+161864509+165871018+169054518
3838+169351573+166392835+162678891+160114356+158524535+157423309+157090796
3828+157564020+158442292+160400922+164596101+169351815+170490958+168112319
3818+166235652+165339754+162915875+159197292+156970934+157975906+161991731
3808+166650352+169226140+170691349+173815747+177602003+178327751+176290343
3798+174567394+173343995+171385328+169355989+168816564+170081792+172506361
3788+175541603+178727563+181516822+184104162+187645329+192563666+197408405
3778+200658646+202939858+206206346+212034574+220634118+230133156+237963465
3768+244048483+250201007+257117605+264924343+274743857+287277728+300985734
3758+313639131+325614162+339677393+358208468+380502640+400864080+414113637
3748+423277647+433534145+444978603+453199370+457448620+462260232+470884053
3738+484216375+501097074+517141442+526973757+529612988+528496278+527095612
3728+526824325+527187544+526955534+525925241+524750585+523450608+521908709
3718+521098277+522677925+527910553+536196570+543498653+545324844+543397405
3708+542993456+546410438+552911814+560172905+564999795+566195878+565914828
3698+566108567+567161741+569811332+575326425+583454552+590950783+593551259
3688+591560656+589680394+590403142+592636114+594714326+596819183+601041193
3678+608219444+613956597+611625060+603296859+596401334+592835107+590200161
3668+586827077+583397910+581983605+584212962+589382091+594971005+599219771
3658+601290232+600481813+598734958+601070781+610894673+625421737+634247570
3648+630742979+622304214+616734006+614911839+615124844+616200451+617876540
3638+620184638+622837135+625417712+628318243+632611801+638373438+643577893
3628+646147216+646759772+646937152+647696232+650075133+654136383+657636801
3618+658448723+658097615+659376165+663133858+668778557+675261935+680523852
3608+682147771+680608965+678966488+679196486+681528880+684931962+687457536
3598+687944883+687550549+688505865+691325681+694606908+697114371+698210250
3588+697293018+694557793+691418097+689471765+689620898+691099336+691602483
3578+689887340+687776298+687686117+689252947+690674146+692295978+696020430
3568+700708099+701685626+697804662+692806355+689363846+687413117+686373731
3558+686508555+688326399+691686626+695398931+697558715+697431941+696439956
3548+696013872+695560659+693818760+691289460+689644896+689628276+690454806
3538+690295910+687769590+684141355+682631764+684678860+688223474+690149385
3528+689781136+689013559+688886933+687695508+684142473+680769054+681179636
3518+684900138+687624333+686763594+684294587+683030571+683048830+683077226
3508+683101001+683579852+683766920+682934130+681602217+680494115+680221636
3498+681481330+683631351+684659334+684281470+684459148+685738742+686068534
3488+684150895+681462325+679726538+678624101+677236812+676034804+675869125
3478+676404469+677246129+678926242+681323254+683081474+683415663+682582650
3468+680597487+677838338+676302066+677385647+679433265+679913457+679045042
3458+679190449+680895754+681770727+680461769+678751918+677802117+675974584
3448+672248939+668892065+668224730+669126311+669179525+668537157+669147477
3438+671184139+672793003+673309342+674001645+675087760+674824746+672438467
3428+669840749+669381425+671185108+673174519+673611186+673077705+673080761
3418+673627880+673557227+672837497+672884078+674180590+675139260+674313028
3408+672325481+670359547+668483794+666843702+666756652+668861807+671472344
3398+672444579+671890975+671652332+672605338+673512211+672551379+669746618
3388+667019815+665802677+665626043+665151664+663969629+662682285+661844352
3378+661881766+663445241+666437592+669327689+670582315+669960145+668311408
3368+666912120+666540145+666946702+667582139+668340772+669009225+669252266
3358+669537638+670497575+671658295+672070144+671701373+671292132+670999456
3348+669826439+667245341+665131914+666082982+669560221+671744898+669939202
3338+665452017+661529615+660087845+660634369+661480127+661968145+662918617
3328+664582334+665735228+665574543+665147267+665774803+666941410+666782141
3318+664425525+661188718+659179259+659140056+659901373+659915087+659214288
3308+659065080+659973816+661121865+661738669+661892125+661414318+659496455
3298+656550014+655157435+657439894+661978952+665011549+664782595+663004400
3288+662161474+662973545+664315371+664891780+664780210+664891929+665293568
3278+665176258+664333928+663652209+663883771+664631598+665008791+664904525
3268+664860850+664951776+664749131+664397278+664660292+665851568+667347371
3258+667875486+666232189+662567584+658741027+656446121+655708579+655671016
3248+655983741+657122101+659732639+663504566+666363883+665720322+661413722
3238+656313533+653419560+653327517+654419967+654701986+653703293+652911569
3228+653817621+655775655+656687446+655416051+652837114+651000191+651335870
3218+653137691+654226862+653506983+651963780+651079564+651313064+651922341
3208+651666482+649961774+647565732+645756458+644846530+643898965+642243595
3198+640883286+641297296+643047840+644040943+643198911+641486750+640318727
3188+640316640+641209128+641882202+641077435+638617670+635493029+632885771
3178+631537611+631558255+632365557+632986535+632558215+630744172+628044795
3168+625602098+624360291+624433180+625324029+626383686+626901665+626394791
3158+625229973+624287736+623783471+623204826+622278427+621083238+619659355
3148+618372607+617785764+617516377+616369707+614094104+611917700+610963426
3138+611056588+611125826+610365180+609108989+608570365+609525160+611156122
3128+611465717+609354376+606245834+604690147+605362401+606430816+605926774
3118+603757040+601130218+598885843+596861702+594785613+593304642+593329497
3108+594570187+595658463+595584977+594335755+592453815+590493993+588587757
3098+586524675+584618514+583893604+584714656+585906082+586056333+585173086
3088+584271095+583886710+583762358+583485743+582801042+581646993+580215137
3078+578851884+577952427+577791258+578183468+578636345+579080354+579800083
3068+580425197+580064289+578722278+577403034+576674473+576106076+575039003
3058+573311712+571430555+570189903+569810735+569721263+569524506+569501625
3048+569716866+569465180+568191922+566293922+564580605+563582024+563580534
3038+564601138+566016300+566694442+565911065+563919344+561588291+559611364
3028+558109673+557020689+556501518+556480165+556178023+554810970+552682748
3018+551080667+551076046+552430504+553608924+553196591+551312155+549174245
3008+547665026+546942614+546808648+546784426+546300842+545235111+544071932
2998+543433663+543476927+543602770+542905772+541166780+539119423+537555985
2988+536527890+535557482+534332816+532950186+531607317+530422562+529573748
2978+529154372+528799613+527997528+526898035+526310819+526671838+527327100
2968+527169061+525996901+524811923+524422172+524260145+523269986+521530808
2958+520110466+519630497+519638546+519211158+517898809+516163245+514920432
2948+514604055+514763473+514624514+513938211+513188222+512943058+513126922
2938+513153939+512676802+511827764+510758269+509422332+507975047+506888820
2928+506337676+505829982+504750463+502978976+500874082+499021284+497910872
2918+497453449+497021365+496311399+495744678+495661764+495616823+494892995
2908+493471796+492103550+491421383+491261220+490979238+490237336+489280454
2898+488557185+488135610+487546530+486385066+484916951+483680584+482754371
2888+481915880+481145172+480495910+479902135+479414192+479119727+478730498
2878+477899645+477028323+476971718+477730650+478129046+477215131+475451768
2868+473935357+472990661+472194428+471312485+470561155+470149120+469938128
2858+469526242+468668037+467598169+466750473+466248853+465876877+465394822
2848+464665590+463660339+462522910+461445403+460430165+459383885+458474702
2838+458067288+458155643+458154413+457517821+456422203+455559340+455313393
2828+455374582+455174806+454511905+453576563+452502670+451264291+450007504
2818+449006166+448211199+447319083+446324713+445498258+444880298+444326397
2808+443880637+443597575+443192024+442380437+441377422+440576083+439953241
2798+439260193+438558686+438060048+437592675+436725676+435396893+434003940
2788+432820676+431698600+430475798+429357971+428644390+428231088+427652479
2778+426605790+425227445+423875186+422827267+422145137+421643555+421048662
2768+420301730+419575293+418961693+418376787+417746269+417037980+416178434
2758+415153954+414090086+413079059+412100936+411202001+410511264+409987509
2748+409377561+408537132+407627129+406859254+406143810+405164085+403832097
2738+402516134+401669481+401324559+401120349+400754336+400183963+399430807
2728+398482608+397426081+396398024+395380065+394301217+393298649+392584285
2718+392050991+391265042+389951240+388375877+387150578+386669976+386768951
2708+386897365+386564405+385652688+384427725+383302370+382511875+381959426
2698+381408282+380793192+380206237+379592525+378709651+377516288+376356910
2688+375592054+375217097+374921551+374385312+373491557+372379915+371336878
2678+370570344+370039770+369499209+368728390+367716655+366600131+365521804
2668+364638670+364090991+363801892+363463529+362901503+362315442+361988967
2658+361882204+361680788+361193888+360532702+359879676+359240215+358505840
2648+357656914+356792300+355989247+355214030+354403263+353593056+352896244
2638+352386389+352088495+352004724+352040200+352002563+351749164+351227458
2628+350409872+349399963+348539299+348146343+348136356+348064659+347577983
2618+346721976+345794385+345063141+344675625+344602214+344541026+344120718
2608+343338160+342560894+342062703+341820036+341705447+341597417+341384337
2598+341052086+340661962+340186540+339541973+338791650+338146040+337756326
2588+337606746+337569481+337474791+337174662+336676508+336227581+336091416
2578+336169746+336037419+335464848+334739156+334345903+334442530+334727642
2568+334785029+334484713+334020396+333647079+333510466+333648159+333971542
2558+334281174+334444169+334504128+334500514+334291757+333734837+332951236
2548+332202477+331578742+331040417+330643548+330458604+330396111+330326985
2538+330209899+329994733+329654992+329361421+329321249+329457303+329518827
2528+329446011+329396040+329485922+329678543+329861997+329909397+329664829
2518+329021455+328147786+327497890+327374470+327585313+327735564+327718199
2508+327692412+327718571+327615535+327145218+326315967+325510045+325165943
2498+325309934+325580326+325675090+325542950+325210810+324707141+324130247
2488+323605225+323185476+322856839+322587863+322358462+322176238+322034185
2478+321825279+321369384+320605980+319745577+319156870+319055994+319301084
2468+319513679+319429908+319131083+318881447+318758734+318571703+318168239
2458+317663787+317288420+317137946+317134741+317129897+317013072+316782217
2448+316530457+316373126+316384082+316525613+316613669+316456413+316058911
2438+315588333+315150883+314750698+314454407+314397764+314574250+314755542
2428+314695584+314357519+313923684+313630001+313589420+313748018+313975780
2418+314152861+314181443+314016883+313720889+313417183+313197023+313131176
2408+313324095+313816548+314407640+314739705+314684367+314510788+314516900
2398+314659511+314734562+314727221+314753120+314809017+314775740+314553792
2388+314093200+313377049+312382045+310962393+308822601+305741392+301819623
2378+297442518+293031557+288840962+284846881+280784718+276494234+272285229
2368+268722654+266080218+264284360+263259676+263069943+263945867+266326910
2358+270519015+276269286+283189033+291429215+300936432+310175699+316811917
2348+319501642+318679882+316161761+313657055+311389799+308772498+305607053
2338+301947776+297810711+293432711+289325905+285994166+283730413+282541373
2328+282114618+281938971+281677858+281527141+282017767+283374014+285282821
2318+287268300+289017838+290447962+291722711+293098988+294596654+295974160
2308+297107043+298160142+299280708+300360917+301251878+301981892+302595492
2298+303027706+303315855+303684290+304256265+304882591+305339437+305564590
2288+305696097+305940683+306369413+306836041+307093856+306955623+306420689
2278+305746218+305291887+305209886+305358106+305491383+305450336+305234891
2268+304982684+304845699+304864052+304962374+305024122+304967834+304806161
2258+304645252+304587008+304610838+304601355+304529602+304502678+304560922
2248+304571170+304411845+304139925+303932156+303954850+304249502+304669139
2238+304994478+305159989+305318941+305669695+306235018+306851506+307380086
2228+307817256+308189866+308549637+309074230+309915666+310976143+312049123
2218+313093688+314221205+315539292+317092818+318833748+320619582+322332936
2208+324004367+325752601+327621460+329562426+331560370+333667723+335921377
2198+338312612+340782513+343219584+345587454+347997881+350478886+352812585
2188+354794654+356481550+358032616+359485416+360809466+362042665+363240724
2178+364348266+365256368+365946510+366431509+366639744+366521801+366177886
2168+365779340+365431624+365097435+364629018+363942417+363105602+362210468
2158+361278293+360281128+359206117+358169266+357338190+356674283+356043355
2148+355498099+355176766+355439631+357318924+361841324+368678157+376448283
2138+384269164+392010894+399503361+406556926+413297020+419914476+426512591
2128+433222240+440121864+447130226+453976636+460185299+465299536+469103139
2118+471521875+472628822+472761335+472334766+471765362+471759065+473313261
2108+477324651+484403966+494897951+508549631+523795902+537731129+547371306
2098+550894343+547856045+539463227+528360747+516750536+505120612+493087075
2088+480334070+466739368+452524097+438090605+423713942+409947971+397636365
2078+387048846+377931006+370320410+364325162+359612265+355833741+352856706
2068+350414381+348256534+346370496+344676222+343042428+341513795+340067218
2058+338624443+337412001+336678036+336317612+336209135+336426761+337045950
2048+338204620+340135338+343018131+347206007+353350090+361954683+373257945
2038+387552962+404963676+424994131+446622309+468405470+488424672+504711484
2028+515753483+520720712+519903312+514724457+506913266+497901370+488616659
2018+479328968+469962014+460575609+451277073+442000077+432662115+423310664
2008+414049095+404944372+396027576+387430212+379456956+372331620+365967564
1998+360210251+355185858+351153190+348014389+345188387+342169131+339076873
1988+336347946+334109384+332192714+330498961+329040647+327801821+326747753
1978+325880679+325229927+324786962+324439692+324081020+323805560+323777537
1968+323868388+323700101+323127157+322395428+321751831+321204003+320738717
1958+320462996+320383361+320292249+320005349+319557949+319124710+318853983
1948+318830804+319201289+320110062+321193793+321469775+320430799+318843809
1938+317735373+317282756+317132021+317085999+317105190+317106010+317060696
1928+317159224+317756725+318968124+320311850+321224685+321866270+322578212
1918+322824382+321858818+320216006+319234976+319489941+320419694+321057590
1908+320886024+320147662+319421113+319023313+318935481+319096240+319541702
1898+320316769+321270819+322018459+322439475+322987713+323857097+324265741
1888+323493618+322112590+321142852+320791185+320676857+320571212+320509017
1878+320552692+320649431+320744754+321213170+322883782+326021912+329211132
1868+330087299+328060400+325006413+322854715+322090790+322167294+322368151
1858+322352500+322251773+322321868+322585925+322985365+323647968+324833505
1848+326882912+329922514+332858931+333404858+330990966+327975623+326465399
1838+326500316+327031784+327558520+328788551+331493033+334799861+336567919
1828+336245915+335353427+334622481+333436757+331813584+330709097+330551542
1818+330870453+331217498+331848277+333284307+335323019+336842299+336961359
1808+336132966+335641184+336489067+338853136+341925942+344259193+344970463
1798+344766626+345335731+347848263+351764442+354433895+353471722+350277024
1788+348132853+348357298+350049225+351986726+353807402+355356270+356317250
1778+357148625+359291454+363879514+370214057+375171298+375886854+373323941
1768+370151788+367974452+367802773+370001201+373245350+375465615+376501721
1758+377515021+378651742+379914753+382560580+387496133+393194419+396621649
1748+396835064+395626795+394868422+395373693+397111605+399150316+400328140
1738+401370916+404688700+410714021+415324626+414546689+410890394+407776560
1728+405849643+405237347+406134046+408115296+411171183+416608990+425286063
1718+434730787+439296377+436981721+431954757+428243236+427343556+429474124
1708+434158253+439871483+444758182+449207730+455650862+464420724+471559065
1698+474121941+473331595+470010458+465703560+463863916+466020719+471020703
1688+477857722+487374480+499032799+506669480+505867545+502035398+500898304
1678+503907611+510071892+516824767+522129092+526942566+532517432+536843783
1668+537563661+537222317+539821079+545519440+550861923+553387646+555061351
1658+559286603+567971986+581407084+595781101+601608994+599549489+599768232
1648+604522307+608694382+607570369+604035332+602768297+604967545+610397973
1638+618673407+627391919+630927141+627361287+622427262+620901386+623232476
1628+627659479+632685734+638112958+643336343+646880509+649375825+653700238
1618+660845585+667141372+667741631+663798584+659375196+655950054+652948386
1608+649787897+646935214+645512971+646299926+649263360+653792654+659097053
1598+664271547+668275410+670460982+671154402+671091648+670436611+669065197
1588+667382698+666005248+665010729+664172871+663692902+664416209+667364737
1578+672598556+677712309+679329073+678941670+681269220+687648853+694943109
1568+699852950+703865980+710177866+719737515+732867937+751349040+774621185
1558+792419898+798556938+801924992+808430877+817592391+827225377+835615363
1548+842492777+849348876+857566699+866644293+874533815+877199206+870433809
1538+859130399+851895914+849831602+849206898+847129244+844994800+845334877
1528+847966879+851317865+855459756+861587853+868286024+871778243+871684336
1518+870832243+869627328+867347328+865783181+867536781+873125137+881277151
1508+889162127+890755116+883288175+874395712+870130177+870419574+873099275
1498+875671355+875815421+873330763+871153241+872075913+875829954+879100001
1488+878678911+875097629+871282102+869382723+869797180+871837270+874904673
1478+878761564+882983648+886906199+889388323+888413703+883798402+879157538
1468+877762946+879548146+881771355+881978993+881438879+883570045+889674143
1458+896123014+895628512+888147261+881374561+878533877+878212953+878246566
1448+877045452+874159454+870633995+867917477+866622530+867034230+869808956
1438+874681383+878485880+877707496+874041772+871476698+870837385+870279906
1428+868959322+868337747+869499510+871639768+873770486+875869454+877258159
1418+876069491+872266634+868282074+866070939+865770362+865944835+865090655
1408+863326249+861633838+860058437+858238506+856870968+856940281+858372287
1398+860289180+861665662+861262831+858294031+854040868+851062081+850354723
1388+850286529+848545227+845603555+844452078+846629153+850800185+854999240
1378+858970682+863651942+868964315+873394560+876269080+878808219+881797738
1368+884297674+885653809+886874450+888811094+890649433+891318632+891143413
1358+891072834+891474100+892097612+892459675+892252782+891743151+891594092
1348+892295711+894079942+897063722+900959070+904914713+908118727+910241545
1338+911194104+911171894+910971708+911541112+913195215+915593270+918322011
1328+921282911+924585676+928136923+931523683+934505153+937219957+939648121
1318+941520446+942922715+944147231+944960644+944849297+943967094+943140638
1308+943112317+944110414+945919687+948096687+950067093+951181455+950898616
1298+949350345+947551208+946326095+945209124+943208386+940393712+937712148
1288+935680703+934375099+933985684+934251679+934126171+932920287+931088283
1278+929223113+927062434+924245227+921436441+919733298+919300506+919566501
1268+920354052+921622764+922612513+922508023+921387848+919672631+917503754
1258+915025878+912377033+909571154+906815210+904365581+902043248+899484285
1248+896524354+892982126+888811168+884616809+881280803+879171698+878169428
1238+878073286+878622939+879411683+879949411+879865790+879338718+879129813
1228+879771137+881053787+882576942+884098010+885125695+885337730+885754647
1218+887974130+891746504+894785958+895586254+895120371+895329575+897136537
1208+899975060+902628974+904738451+907160206+910382554+913723404+916720078
1198+919755433+922767683+925090761+926916878+929215213+931964598+934047543
1188+935194400+936629238+939330105+942707921+945598540+947723594+949450736
1178+950936999+952186110+953270586+954230299+955293087+956956134+959413886
1168+962314119+965121861+967337468+968576965+968863977+968730048+968982330
1158+970352774+972730259+975088366+976782640+978409316+980800216+983719529
1148+986201801+987693132+988527488+989618373+991581773+993967679+995840973
1138+997047826+998237015+1000002242+1002414233+1005126130+1007943189+1011042415
1128+1014207898+1016335187+1016562054+1015710334+1015503887+1016367533
1120+1017269039+1017961267+1019856175+1023756591+1028171259+1030898807
1111+1031365361+1030756904+1030325006+1030198456+1029768422+1028758550
1103+1027880595+1028421901+1030956270+1034760468+1038192989+1039549944
1094+1038783187+1038244266+1039993021+1043297277+1046403658+1048974472
1085+1050857454+1051170775+1050792018+1052033228+1054495602+1054885539
1077+1052076157+1049084850+1048791949+1050535562+1051898107+1052153966
1068+1052644741+1054579373+1057540422+1060158710+1061072886+1059811329
1060+1058111167+1058597321+1061553153+1064612134+1066244772+1067457215
1051+1068963601+1069928755+1069840065+1069008318+1067711956+1066318184
1043+1065429049+1065165365+1064888563+1064137009+1063120132+1062413594
1034+1062964067+1065104623+1067376127+1068353206+1068736063+1069431943
1025+1068986034+1065538384+1060701358+1058456163+1060687943+1065541216
1017+1069951263+1072685296+1073741823+1072577974+1069346980+1066092285
1008+1064425885+1063682977+1062635095+1061054627+1058911611+1056226545
1000+1054091429+1053926049+1055331895+1055763494+1053214369+1048911793
991+1045637870+1043921460+1042065383+1039394625+1037092713+1035919399
983+1034933898+1032741470+1029395179+1026588629+1025635549+1025786620
974+1025261263+1023048413+1019095976+1013939965+1008514828+1003523453+999135391
964+995611497+993388661+992142084+990541120+987513964+983410679+979452801
954+976145638+972860014+969369807+966697410+965696184+965641554+964870474
944+962686915+960125194+958554414+958133622+958327025+959047649+960101792
934+960462961+959520239+958164477+957548120+957850113+958747445+959668404
924+959500415+957636735+955232047+954104941+954807827+956623360+958612696
914+959846007+959573155+957879552+955589415+953314707+951045215+948854948
904+947139582+946012178+945157028+944222208+942938515+941282772+939823116
894+939218683+939529918+940392222+941223894+941230304+940084267+938641305
884+938181683+938915871+939875659+940093806+939579703+939263401+939909197
874+941218528+942098197+941612117+939687696+937151762+935142378+934287751
864+934314358+934382701+933927849+933350098+933632862+935092965+936846341
854+937824538+937922544+937822004+938239219+938986823+938700556+936827709
844+935337869+936775986+940588308+943505683+943724203+942145598+940017637
834+937800242+936269261+936409302+937741438+938492023+937633892+935774536
824+934140183+933752034+935474928+939406274+944039387+947179530+948098849
814+948096687+948795474+950655054+952876177+953911239+952619050+949565809
804+946449292+944307245+943473263+944484998+947212099+949877714+950833179
794+950787419+951564834+953356294+954999069+956108139+957048401+957482460
784+956805435+955735716+955631599+956284028+956108065+954325697+951868839
774+950085502+948809486+946867327+944327517+942908629+944022022+947103510
764+949969161+950923658+950549819+950532156+951211639+951356450+950137299
754+948325716+947302280+948184110+951476591+956474525+961310060+964081060
744+963612494+959955118+955361654+953364418+955355692+958917148+960727316
734+960112300+958183855+955582782+952931403+951339308+950889673+950413580
724+949665604+949733723+951056693+952700511+953538816+953222738+952060826
714+950676146+949690496+949142557+948580755+947614632+946098333+944174583
704+942130096+940121382+938178329+936455286+935045639+933308361+930245356
694+926189249+923046050+921923863+921533180+920459511+919566799+919649750
684+918650312+913829534+905886947+898992093+896464879+897610097+899478919
674+900014635+897703184+890477121+878344498+868264411+869712962+879735587
664+889304999+896162141+901826070+905303085+903197334+895078113+884641329
654+875583635+869672940+868294297+872400936+879483007+884225157+883961621
644+880460608+876452050+872705537+868331263+861988671+853860060+847415362
634+846156786+848961771+851259434+850524575+847859482+844685802+841427604
624+838926699+838081463+838406634+838750140+839422617+841366490+843166820
614+842194883+838552190+834287996+829985420+826487537+827026383+832732793
604+839512798+842187803+839755912+835523990
##END=
