##TITLE=<SNM>
##JCAMP-DX=4.24
##DATA TYPE=INFRARED SPECTRUM
##DATE=2/5/2025
##SAMPLING PROCEDURE=Instrument type and / or accessory
##ORIGIN=Admin
##XUNITS=1/CM
##YUNITS=ABSORBANCE
##RESOLUTION=4
##FIRSTX=4497.3318
##LASTX=599.83466
##DELTAX=-1.4281778
##MAXY=1.8446051
##MINY=0.38256606
##XFACTOR=1
##YFACTOR=1.7179224e-09
##NPOINTS=2730
##FIRSTY=0.40693778
##XYDATA=(X++(Y..Y))
4497+236877863+237465592+238609286+239157167+238585017+237409576+236416895
4487+235902114+235702544+235586504+235333693+234792751+234186651+234036002
4477+234500873+235058157+235072677+234605255+234436287+235097779+236065219
4467+236278598+235399511+234158131+233606746+234434743+236490467+238452565
4457+238781481+237565134+236411170+236217030+236370455+236278962+236273411
4447+236665178+237016802+236694080+235620211+234360477+233561520+233307928
4437+233210017+233086083+233157175+233616790+234350658+235049639+235477524
4427+235647204+235710402+235794453+235982747+236064941+235447929+233980766
4417+232607958+232360664+233116321+234086172+234866393+235365249+235406676
4407+235021084+234632387+234531561+234501099+234221190+233709567+233096544
4397+232362139+231638420+231352509+231687480+232238500+232465688+232206598
4387+231630717+230960985+230331361+229754873+229108786+228242155+227296695
4377+226840202+227232525+227909752+228002910+227694482+228069803+229515836
4367+231176515+231965930+231349213+229519601+227482456+226445659+226642888
4357+227281134+227818883+228449236+229211312+229628650+229422886+228860121
4347+228299507+227862860+227538507+227323410+227279815+227543937+228113381
4337+228592287+228502841+227996578+227792445+228123408+228259832+227566021
4327+226557831+226179127+226400833+226398178+226033196+226185580+227265885
4317+228379342+228620252+228239708+227822093+227390668+226960753+226858296
4307+227026814+227008893+226718941+226436586+226337010+226614645+227435582
4297+228339823+228491201+227811944+227112582+226927723+226918823+226623198
4287+226174564+225936655+225906886+225818950+225485246+224887247+224276601
4277+224154108+224689897+225322592+225474421+225367627+225494909+225655828
4267+225272613+224455232+223949038+224065790+224365613+224528996+224919948
4257+225897987+227001902+227326238+226635497+225698902+225375659+225628539
4247+225736894+225448486+225495897+226652967+228528811+229753641+229402763
4237+227864578+226270099+225460855+225480527+225745898+225794715+225876267
4227+226488856+227482803+228099451+227896533+227294422+227134665+227803392
4217+228815797+229418914+229464677+229272758+228956645+228518923+228235701
4207+228417351+229047218+229787678+230144298+229810768+229023989+228321677
4197+227995658+228081843+228506883+228942263+228981244+228572666+227966271
4187+227435374+227187438+227106666+226634682+225490918+224312355+224003112
4177+224712102+225843497+226811440+227475430+227950363+228309447+228561217
4167+228731434+228853720+228928107+228942922+228960687+229096868+229310524
4157+229366471+229184995+229012088+228952603+228637062+227792584+226821120
4147+226290604+226141325+225960942+225831163+226173454+226838849+227184870
4137+227090619+227060000+227290606+227449356+227355053+227198801+227147798
4127+227190508+227241459+227198159+227053807+226936830+226918528+226945747
4117+227039287+227329465+227749613+227834861+227050806+225410650+223661966
4107+222691126+222792160+223629091+224726015+225761199+226479228+226630432
4097+226168388+225407076+224811749+224637229+224806995+225061159+225238888
4087+225513714+226212486+227264775+228085763+228225657+227907462+227699322
4077+227804936+227873633+227480305+226614125+225562357+224539352+223777208
4067+223735139+224660961+226032971+226963719+227108991+226781150+226347436
4057+225930271+225529483+225104755+224661655+224367608+224391444+224662817
4047+224989061+225213057+225091622+224465155+223742252+223592643+224000267
4037+224250371+223913562+223285794+222937709+223233889+224090510+225032587
4027+225650346+225892262+225860775+225682613+225560640+225602448+225762985
4017+226146322+226926977+227772339+227888431+226957578+225672516+225062998
4007+225482557+226425640+227231501+227711188+228001678+228113850+227955914
3997+227672658+227583559+227720243+227713911+227318189+226778305+226511772
3987+226670054+227081078+227437924+227570479+227621360+227866000+228397210
3977+229118934+229830440+230132935+229619212+228427083+227317477+226975915
3967+227425191+228237713+229076033+229779802+230131357+229944676+229380575
3957+228850111+228624589+228795587+229485825+230656252+231707950+231849370
3947+231103810+230349871+230119005+230051001+229676599+229121415+228836458
3937+229180051+230346245+232206945+234107406+235117191+234884678+234139187
3927+233864206+234207763+234541901+234466420+234368595+234754239+235413476
3917+235492790+234412416+232674661+231405715+231234977+231992403+233436285
3907+235848752+239475310+243484303+246195031+246768101+245616236+243221794
3897+240216395+237980859+237639574+238699010+239257004+238419726+237916117
3887+239301259+241281555+241741378+241494847+242417390+243304648+241834102
3878+239160238+238249387+240061287+243540007+247220066+249505025+249302281
3868+247820823+246982192+246698484+245638390+243634587+241892062+241583859
3858+243578051+248405239+254771254+257815010+254350897+248385844+243809315
3848+241533741+241547897+243461924+246492669+250052958+253829645+256856054
3838+257672202+256304946+254281922+252367340+250289896+248166411+246870697
3828+246897655+248006029+250221285+253681304+256864068+257301305+255734443
3818+254884206+254640052+253102890+250562587+249050667+249840707+252848414
3808+256371874+258381800+259535261+261857415+264801178+265873902+265075569
3798+264204827+263356272+262046108+261114682+261550080+263244812+265822743
3788+269409158+273933955+278595974+283042845+288288152+295257110+303111678
3778+310281941+316830456+324366447+334310672+346626770+359159993+368980216
3768+375499586+380031722+383107259+385019551+386828034+388920189+390196508
3758+390002419+389884697+392393444+399011212+408467302+416448822+420767925
3748+424921738+432219230+441127092+446771123+449135918+453391944+462590939
3738+476218675+491082934+503240160+511670990+518540163+525594091+533352621
3728+542509391+553190797+563452037+570736484+574358480+575500804+576173590
3718+577790100+580128526+582218738+583354470+582689421+579717867+575413717
3708+571267191+568223365+566635062+566231412+566635409+568077019+570490318
3698+572725593+574028176+575152944+577395783+581041580+584680056+586012652
3688+584630164+582948599+582630924+583307283+584217631+585458768+587919462
3678+591564114+593217160+589203275+582223734+577775771+577115857+577363238
3668+575485503+571633335+567746264+565211391+564091515+563857076+564477436
3658+566055469+567983479+569728364+571896676+575355984+579487730+581294755
3648+577726434+569821557+561608651+556152845+554125640+554308938+555130950
3638+555804048+556135323+556470727+558185497+562711109+569112028+573366806
3628+572700265+569692593+567442468+566350418+566321412+567742239+569954858
3618+571134584+570841959+570396327+570691206+571179272+571152938+571225556
3608+572812610+576294192+580608126+584885108+589061994+592850842+595615262
3598+597291901+598277122+598499105+597794851+597056386+597440884+598826286
3588+599994146+600385445+600819975+601862305+602788683+602683346+601587862
3578+599869658+597570369+595505693+595519085+598462675+603198648+607795005
3568+610225028+608914221+604914215+601702566+601220295+601794024+600667799
3558+597901228+595849597+595590906+596115436+596374197+596441091+596473844
3548+595943623+594327702+591835504+589429908+588117228+588078160+588680201
3538+589285365+589822456+590510959+591237488+591416033+590711917+589489654
3528+588086210+586272107+584056643+582137134+580928298+579736360+577576305
3518+574878223+573358756+573812126+575051771+575616341+575404835+574772297
3508+574054719+574241000+575793914+577034982+575840233+572754564+569879291
3498+567961169+566739497+566349065+566596515+566189152+564437710+562727694
3488+562691367+563793027+564233941+563502589+562360439+561104556+559533878
3478+557934924+556834512+556291697+555942692+555123664+553066586+550023628
3468+547801884+548074662+550429950+552772678+553388077+552214076+550433142
3458+549120844+548275377+547243039+545852953+544518519+543449577+542558728
3448+542001133+542022124+542512756+542954954+542448257+540293268+537065000
3438+534442693+533332671+532676297+530756198+527491256+524734157+524171391
3428+525426441+526571749+526293697+525021611+523914330+523269197+522326339
3418+520787408+519771169+520323942+521585793+521631105+519975839+518108270
3408+517578466+518499708+519867589+520714061+520758229+520173883+519163195
3398+517978230+516914597+515903666+514493213+512658189+511248846+510836348
3388+510596496+509538726+508303210+508318788+509699749+511141810+511498482
3378+510799467+509950392+509613912+509439705+508664115+507266118+505919298
3368+505058045+504671395+504862708+505874402+507289399+507846822+506829542
3358+505246616+504757094+505857852+507697803+509088306+509395884+508922807
3348+508367362+507824512+507013186+506326904+506515822+507403791+507848556
3338+507053884+505421552+503944831+502957736+502005441+500957733+500316833
3328+500216319+500182421+500087632+500261215+500492705+499942847+498404193
3318+496914843+496533363+497019832+497414011+497431914+497421540+497348262
3308+496859780+496074233+495425388+495080234+495055947+495340140+495546476
3298+495135366+494256973+493672037+493631200+493614650+493402520+493518335
3288+494293161+495393537+496471847+497399265+497820368+497399300+496638317
3278+496659274+497930943+499710489+500864367+500873977+499857287+498142518
3268+496345797+495331328+495373934+495696396+495352665+494213256+492836875
3258+491933293+492064096+493133697+493978574+493214434+490834755+488296239
3248+486913821+486784232+487173068+487393559+487206306+486694682+485936024
3238+484897511+483763549+483067690+483098951+483376413+483135139+482238982
3228+481168443+480160601+478950273+477445934+476067922+475165311+474586378
3218+474150425+474047656+474363874+474616979+474150772+472849889+471246979
3208+469958100+469162214+468647294+468164225+467580468+466835203+466029498
3198+465503996+465512531+465772784+465652702+464945533+464144060+463699122
3188+463318127+462405802+461075358+460117373+459818365+459483550+458471232
3178+457018832+455549362+453929382+452082907+450590469+449917822+449558165
3168+448654167+447168147+445786492+444853904+444091985+443429053+443353798
3158+444008264+444580675+444244022+443186425+442058223+440940672+439503642
3148+437823291+436448923+435702235+435287586+434686100+433728982+432627461
3138+431617883+430790944+430137345+429537524+428808219+427945335+427209646
3128+426880800+426955118+427050080+426586788+425208568+423200272+421434327
3118+420670638+420820940+421064296+420810705+420317262+420130633+420185556
3108+419818822+418651066+417159773+416191865+415992364+415936261+415326483
3098+414245848+413355208+413038401+413052695+412902636+412338066+411555885
3088+411006443+410869325+410813846+410544850+410316864+410457902+410689115
3078+410451622+409682487+408792575+408066427+407447246+406759506+405913381
3068+405022532+404397175+404185115+403996856+403281186+402138897+401264563
3058+400945987+400694893+400072694+399279202+398702558+398400740+398162310
3048+397704742+396881863+395950836+395348344+395061237+394651792+393962456
3038+393262122+392713166+392250185+391873701+391557692+391065047+390275371
3028+389444164+388810724+388205872+387296427+386062610+384860992+384043871
3018+383637063+383437771+383283514+383041025+382457997+381352451+379944080
3008+378761995+378189133+378140386+378120019+377618978+376579041+375447334
2998+374707933+374440949+374369302+374203352+373861252+373410970+372890603
2988+372246962+371445420+370580142+369837965+369361800+369154284+369078544
2978+368919984+368500928+367829218+367102376+366494576+366024517+365665035
2968+365399300+365127389+364716556+364167287+363579055+363016325+362509974
2958+362061323+361616003+361168497+360790417+360432114+359877467+359024541
2948+358057743+357251969+356714566+356365804+356093026+355798077+355301962
2938+354462949+353511834+352980399+353094235+353469193+353566653+353219036
2928+352531678+351509124+350091386+348514220+347285192+346641620+346297507
2918+345925985+345573753+345371303+345199871+344865751+344317523+343630651
2908+343010533+342693553+342625723+342453285+342006750+341505778+341163053
2898+340943672+340814881+340845101+340923826+340723006+340083355+339223247
2888+338490750+338068433+337882706+337636956+337050389+336220883+335597435
2878+335463474+335640943+335786006+335715296+335374375+334823892+334337735
2868+334165332+334143682+333858413+333187987+332404764+331787839+331375965
2858+331038098+330629243+330126189+329639372+329267607+328989486+328684128
2848+328228642+327643012+327147730+326934698+326914227+326848514+326673439
2838+326542289+326571815+326622991+326383556+325718160+324853819+324102586
2828+323527053+323023582+322585236+322300279+322164064+321987740+321511749
2818+320707362+319956545+319680714+319762492+319668223+319192822+318668534
2808+318354052+318074404+317605213+317029992+316554347+316237540+316006015
2798+315746907+315368515+314877778+314348529+313770566+313072175+312333398
2788+311786801+311513711+311331870+311082997+310833986+310679416+310537129
2778+310250090+309727954+308955869+308005933+307021336+306107415+305317149
2768+304735995+304426960+304317252+304259692+304151025+303952981+303684366
2758+303358712+302896113+302240606+301538051+300958354+300421923+299772106
2748+299096267+298604419+298303364+297989159+297481872+296782093+296064203
2738+295527355+295202395+294942454+294634980+294345964+294193719+294143445
2728+294010213+293650314+293098790+292515207+292019752+291580295+291067873
2718+290442933+289835375+289377408+289009459+288546340+287931080+287331260
2708+286933733+286694124+286375651+285838908+285206872+284690547+284322980
2698+283957581+283516338+283126965+282951803+282958812+282940319+282725135
2688+282348339+282030387+281933569+281928399+281743661+281379928+281141013
2678+281162681+281138550+280667208+279749817+278820491+278321097+278309873
2668+278493743+278601751+278622135+278635284+278567437+278252260+277662797
2658+276955766+276337470+275972939+275930992+276085267+276148343+275941296
2648+275562557+275193897+274853723+274449621+273978452+273569077+273339981
2638+273265853+273234957+273232545+273335800+273498107+273536758+273378285
2628+273081289+272621778+271940405+271188166+270651388+270435372+270397727
2618+270355034+270258528+270185268+270177374+270132183+269946821+269693941
2608+269490814+269301046+269042302+268747822+268489061+268296360+268211651
2598+268257987+268372500+268489165+268602516+268686931+268678725+268552398
2588+268316050+268003389+267755488+267774068+268082877+268432836+268543811
2578+268384783+268117469+267819016+267439514+267039784+266844221+266978025
2568+267320871+267653864+267825972+267819311+267762115+267799812+267899840
2558+267885250+267676624+267397254+267227921+267212621+267229674+267158270
2548+267023026+266902197+266756874+266481789+266087437+265701654+265407018
2538+265169699+264914980+264618747+264340244+264170565+264109847+264026109
2528+263812591+263549875+263409079+263422489+263456803+263405956+263304107
2518+263216240+263118675+262960810+262768092+262596469+262460705+262387497
2508+262427831+262527702+262497309+262212023+261791978+261501332+261466359
2498+261552890+261562587+261466532+261362618+261300825+261250915+261159700
2488+260996925+260817704+260737851+260759779+260716809+260475100+260103266
2478+259795167+259673541+259666706+259572091+259289112+258959832+258802608
2468+258848354+258930896+258909280+258786284+258591536+258275666+257811436
2458+257314541+256966716+256860113+256952803+257116706+257211009+257163042
2448+257002609+256803993+256613704+256449298+256328105+256250196+256168991
2438+256028993+255831331+255626227+255445410+255259701+255011661+254721570
2428+254532339+254543650+254640677+254644753+254569706+254540041+254552671
2418+254530951+254507566+254546217+254573245+254473269+254291811+254203614
2408+254309106+254539729+254731614+254763829+254679935+254686215+254960259
2398+255466800+256052847+256758350+257976571+260282331+264171623+270054447
2388+278445984+289992668+305255322+324513349+347673056+374173999+402995223
2378+432932194+462977519+492400333+520379108+545575769+566535589+583125408
2368+596737878+607886602+615020539+617180906+615752758+612114698+605506611
2358+594117307+577345509+556171962+531976413+507570400+488155513+478375642
2348+479966408+491759328+509172200+524866660+533921528+537039186+537365500
2338+537311027+537946515+539415118+541320297+542898227+543272039+541986838
2328+539416402+536228138+532283124+526704460+519272521+510872709+502251018
2318+493271439+483651828+473704411+464026858+454710592+445144585+434670001
2308+423199717+411126698+398985988+387335529+376614812+366898331+357876770
2298+349166952+340655211+332552082+325110325+318327058+311972736+305869749
2288+300079788+294834758+290309874+286473771+283171844+280289943+277754463
2278+275461523+273357658+271528202+270052903+268824291+267641027+266430318
2268+265266431+264236035+263388053+262740370+262225572+261683658+260998729
2258+260217276+259483860+258896790+258457368+258104859+257739061+257259236
2248+256674109+256135839+255767109+255502051+255196954+254832856+254500783
2238+254244850+254028869+253832768+253678233+253541948+253340851+253066165
2228+252840590+252752602+252728818+252655992+252526680+252405020+252345725
2218+252362726+252396242+252342914+252182169+252014259+251941259+251977047
2208+252072114+252158680+252181128+252139007+252096609+252114755+252169383
2198+252166486+252071038+252000675+252116594+252410398+252685119+252777427
2188+252711661+252612015+252560283+252562972+252581187+252584345+252601901
2178+252668326+252715946+252631115+252424033+252243563+252215945+252317517
2168+252397456+252327353+252153579+252040610+252027426+251951424+251697868
2158+251398096+251251576+251246285+251200070+251021248+250789064+250616904
2148+250549108+250576310+250693928+250948005+251407429+252074612+252874020
2138+253738985+254669318+255733906+257051339+258693854+260575475+262519202
2128+264467873+266557096+268962034+271748694+274897110+278361743+281999491
2118+285501214+288547346+291023688+292977632+294394261+295135328+295096434
2108+294315189+292883121+290853939+288335841+285576781+282836578+280229763
2098+277734947+275259386+272712907+270137179+267724019+265641336+263924467
2088+262543541+261447085+260542219+259744199+259038869+258449422+257979295
2078+257615232+257352620+257182628+257063586+256956030+256894358+256945794
2068+257076944+257161082+257154333+257162018+257280643+257463334+257602516
2058+257666131+257689637+257705545+257747128+257848682+258001795+258179298
2048+258383379+258599048+258781478+258943213+259135965+259329689+259440524
2038+259459121+259451731+259482437+259578353+259726799+259916568+260175502
2028+260493507+260765244+260924775+261076014+261402709+261980446+262673980
2018+263194312+263344146+263220143+263067881+263012923+263053482+263176253
2008+263349350+263512924+263656391+263822809+264027913+264234526+264374541
1998+264404570+264428146+264681807+265230625+265764887+265908927+265667809
1988+265361636+265240166+265337383+265574529+265865210+266157539+266423032
1978+266619097+266712082+266730488+266737098+266790338+266981599+267384902
1968+267881139+268198397+268255437+268264909+268387020+268540376+268666530
1958+268912124+269376058+269883449+270189275+270304153+270476417+270891413
1948+271546105+272430553+273559258+274641454+275073781+274656512+273953853
1938+273579573+273583025+273698492+273788510+273901827+274114633+274417181
1928+274774044+275294376+276103499+276995024+277634225+278110355+278648157
1918+278929574+278532238+277827896+277556888+277877702+278387557+278699211
1908+278735642+278669495+278705405+278871823+279058417+279237239+279537461
1898+280077241+280723606+281132964+281259655+281582257+282393774+283207181
1888+283394139+283038438+282602920+282330072+282306635+282562013+282983897
1878+283453920+283966897+284536584+285326278+286799425+289150220+291461045
1868+292161345+290959917+289261351+288346718+288352825+288779687+289218987
1858+289569085+289910769+290317785+290753599+291209015+291853698+292957544
1848+294763910+297230467+299483541+300063203+298777621+297150389+296366750
1838+296393605+296698928+297083842+297977467+299879697+302368529+304143738
1828+304655952+304577366+304230998+303307778+302086279+301425325+301656988
1818+302357357+303051203+303776796+304847889+306179825+307155470+307360488
1808+307150301+307218513+308008535+309593299+311621233+313330034+314122416
1798+314310363+314935477+316804296+319628358+321762946+321672043+320107645
1788+319054212+319367238+320545992+321896108+323255419+324558593+325574867
1778+326490696+328110364+331104401+335035571+338022600+338459385+337031654
1768+335273411+334057532+334093928+335757556+338166344+339840554+340678249
1758+341541272+342510429+343509216+345432819+349041700+353330167+356056110
1748+356432489+355821323+355729449+356728757+358615929+360629255+362026107
1738+363363005+366251844+370950901+374604470+374333808+371696929+369185476
1728+367562477+367067507+367690817+368942814+370787761+374180626+379712174
1718+385737511+388661914+387256769+384084361+381612461+380812758+381958447
1708+384861026+388522610+391681105+394558703+398562040+403516770+406864184
1698+407555601+406920391+405139179+402575439+401213075+402173835+404932080
1688+409033016+414995936+422156554+426334515+424967987+421755054+420392517
1678+421833085+425380971+429220613+432007135+434502975+437547287+439752342
1668+439649122+438974497+440195788+443250127+446053649+447392976+448612844
1658+451798471+458204283+467981101+478156156+482009191+480541595+481118273
1648+485293702+489521451+490430619+489783057+490795618+494293681+499935665
1638+507506872+516127801+522834285+525688325+527510200+531806092+539474344
1628+549139996+559048693+568998538+579507264+589960614+599551983+609211425
1618+620347866+631931397+640769521+646499181+651682105+657830612+664518639
1608+670424970+674792127+678134579+681364478+684595418+687301410+689300720
1598+691000743+692947870+695537701+699000270+703399763+708430026+713287434
1588+717192374+720101962+722642386+725395357+728365246+731251657+734348324
1578+738534438+743639436+747790091+750750820+755016180+762211250+771256438
1568+779836911+787606336+795712587+804649663+815058603+828896665+846526143
1558+860870139+866306134+867691189+868378929+868121347+866930103+865470174
1548+864334304+864106075+864855226+865795481+866002338+864298567+859473010
1538+853507626+849703651+848324286+847180158+844183901+840137263+837416629
1528+836798836+837365904+838275974+839399076+840122622+839614467+838464302
1518+837425095+835900215+833708969+832192694+832801120+836164944+842060450
1508+848214439+849220339+843160861+836358616+833031499+832795638+834189783
1498+835557699+835255568+833478867+832514324+833619523+835381028+835250572
1488+832716392+829679402+827547416+826376850+825936977+826315161+827727418
1478+830048010+832772114+835357990+836992855+836337590+833301433+830115112
1468+828778839+829330918+830322037+830644777+831202824+833435428+837011105
1458+839227679+836936786+831294074+826109068+822827195+821338399+821313071
1448+821914488+821770847+820149375+817636569+815535878+815215012+817251654
1438+820333887+821500567+819549416+816900047+815574182+815229098+814873952
1428+814364271+814214871+814664112+815492439+816553922+817814627+818641705
1418+818136535+816586327+814866944+813056241+810975743+808981708+807633430
1408+807161637+807278076+807260728+806819328+806655634+807286195+808193906
1398+808846464+809460995+810074972+810173577+809696163+809127916+808540586
1388+807433652+805648416+804263777+804937777+808228185+812955137+817333119
1378+820689935+823669261+826849337+829930391+832539999+834958295+837368055
1368+839363478+840842628+842486445+844697190+846732791+847497694+846839515
1358+845501022+844240941+843333299+842728274+842473607+842744442+843527804
1348+844522254+845353703+845948736+846798088+848454812+850482780+851546691
1338+851153241+850448708+850672843+852035693+854328390+857271979+860028142
1328+861680355+862546639+864021070+866870703+870355339+873162990+874859058
1318+876284638+878580111+882149889+886644172+891419559+895769091+899284536
1308+902414303+906040150+910090465+913313841+914927888+915736022+917018725
1298+918992013+920909370+922094092+922276870+921429807+919811319+917866898
1288+916121701+915316481+915952524+917238072+917319954+915157297+911527772
1278+908066383+906005038+905691180+906718244+908339786+909747532+910407931
1268+910575998+911035508+912105942+913549217+915374839+917692309+920002839
1258+921752408+923184095+924851504+926988556+929675674+932605177+934610315
1248+934694348+933511916+932582486+932341558+931998833+930998901+929810155
1238+929183063+929032345+928387420+926678931+924706268+923619527+923396294
1228+923141627+922448197+921429044+920006031+918400519+917533194+918074240
1218+919701264+921520224+922746789+923053777+922865726+923173617+924425232
1208+925880581+926685523+927133862+928047609+929407614+930463684+930904945
1198+931376391+932942212+935964560+939336573+941573340+942773328+944269063
1188+946608530+949253041+951782988+954070827+955692646+956505846+957469625
1178+959621041+962395245+964245432+965026018+966169937+968286102+970318233
1168+971417812+972093408+973096324+974394987+975637165+976941587+978836184
1158+981477643+984052625+985100992+984055123+982586659+983224714+986355314
1148+989651273+991172822+991717684+992866669+994757797+996990470+999369629
1138+1000729703+999462683+996017531+992922668+992110857+993720324+997101011
1128+1001389409+1005264441+1007425987+1007870995+1008167089+1009932410
1120+1013437724+1017747286+1021620791+1024343091+1025977470+1026503319
1111+1025451899+1023348363+1022289310+1023693933+1026442116+1028513246
1103+1029866034+1032244984+1036294467+1040290032+1042237714+1042063402
1094+1041151667+1040826012+1041714085+1043608752+1045459563+1046225993
1085+1046207951+1046938228+1048846287+1050130170+1049449647+1048534650
1077+1049660111+1052496630+1055472902+1057917497+1059333223+1059025958
1068+1057458888+1055861564+1055079522+1055505516+1056838389+1057848661
1060+1057936441+1058638753+1061700585+1065959700+1067986072+1066330875
1051+1063292081+1062002300+1063315604+1065012575+1063214848+1056899731
1043+1050679196+1050115736+1055655749+1063130745+1068796426+1071962832
1034+1073562515+1073741823+1071339696+1066159825+1060960455+1059609957
1025+1063107499+1068573194+1072053665+1071962416+1069708162+1067070034
1017+1064221858+1060968990+1058492822+1058691837+1061673592+1065400473
1008+1068091408+1069275852+1068737443+1065707392+1060208043+1054531120
1000+1051480876+1051542704+1052663100+1052721666+1051888551+1051981467
991+1053701128+1055318853+1054379222+1050293101+1044914979+1040759535
983+1039287255+1040395577+1042480723+1043238826+1041289131+1037358378
974+1033869857+1033048261+1034559747+1035381066+1033431302+1030258096
965+1028411379+1027733562+1026237689+1023348849+1020118465+1017524747
957+1015932489+1015180007+1014490324+1012648603+1009192141+1005397325
948+1002911859+1001606257+999683417+995979505+991249638+987186139+984968038
938+984509152+984649461+984424633+983937851+983494647+982832513+982007656
928+982029792+983706291+986330471+987904896+986908087+983613792+979539398
918+976202706+974628142+975235388+977485478+980037907+981356208+980186058
908+976811478+973573460+972511492+973276672+974231361+974333575+973452788
898+972349324+972324204+973442865+973817580+971917153+968694194+966332869
888+965573101+965322458+964642352+964069178+964906872+967431406+970068424
878+970663248+968436543+964614734+961247440+959749484+960051338+960751568
868+960777867+960584750+961137107+962274435+962888758+962541453+962030176
858+962110254+962487536+962492949+961698068+959747750+956527912+953121828
848+951749749+953475448+956799719+959230713+959677803+958909847+958314328
838+958377822+958125861+956407171+953445679+950810396+949867157+950805608
828+953419726+957659966+962956900+967831518+970570125+970496431+968127681
818+964536877+961328558+960321548+962312878+966246546+970169944+973117905
808+975226367+976198057+974972671+970958023+964987852+959096232+955153058
798+953591956+953687855+954817550+956714853+958803747+960423207+961583434
788+962325021+962491491+962838310+964475188+966887585+968219347+967713969
778+966517589+965858439+965563386+964706400+963098320+961606055+961042526
768+961689672+964204144+969583654+976902520+981848749+980149558+972786282
758+964980080+960735191+960496068+962721802+965542083+967085073+966710012
748+966567412+969858584+976799889+983701503+986307850+983581456+978496235
738+974865531+973601009+973226364+973294645+974421911+975415459+974462643
728+973088830+974384647+977658263+979129017+977726336+975982665+975386661
718+974439814+971500873+967362084+963902222+962126700+962417381+964583577
708+966893067+967034140+964604186+961233908+959190189+959735051+961213993
698+960111916+955693479+951129250+949262201+949995462+951598476+952942590
688+954280737+956221063+957806035+956896173+953590083+950772369+949195238
678+945004128+936368280+928314906+926450771+928758456+927194718+917595300
668+906462814+904369965+910207182+916169373+918940038+917776967+913240425
658+908849536+907600696+908433187+909479195+911937599+917065773+921990283
648+922164317+916990830+909920872+904396750+902097738+902588961+902753558
638+899116886+892238449+886419690+884939013+888328513+894737585+899307782
628+897098355+888608022+879784262+874400033+871160350+868647405+867989295
618+869843021+872995895+875712158+875884249+873087284+870160210+871069517
608+877468666+886688582+892750697+891242541+883415591+875213302+872436877
##END=
