##TITLE=<SNM>
##JCAMP-DX=4.24
##DATA TYPE=INFRARED SPECTRUM
##DATE=2/5/2025
##SAMPLING PROCEDURE=Instrument type and / or accessory
##ORIGIN=Admin
##XUNITS=1/CM
##YUNITS=ABSORBANCE
##RESOLUTION=4
##FIRSTX=4497.3318
##LASTX=599.83466
##DELTAX=-1.4281778
##MAXY=1.7718806
##MINY=0.29061112
##XFACTOR=1
##YFACTOR=1.6501924e-09
##NPOINTS=2730
##FIRSTY=0.30070275
##XYDATA=(X++(Y..Y))
4497+182222840+182654345+183867158+185059961+185884974+185895376+184658345
4487+182760628+181633690+182090425+183527217+184620852+184612942+183838244
4477+183061397+182604247+182396016+182549869+183288736+184386597+185235269
4467+185513644+185471293+185520127+185827778+186308117+186656655+186507697
4457+185981847+185825719+186454782+187187563+187070950+186115472+185147895
4447+184728616+184662860+184535357+184388656+184630135+185372975+186189825
4437+186615244+186603180+186421281+186340210+186364139+186108826+185203122
4427+183936779+183166741+183482663+184633043+185779179+186314348+186356969
4417+186306600+186181626+185837873+185578840+185814450+186146680+185578082
4407+183908190+182241351+181633455+181876035+182178774+182408405+182926002
4397+183697991+184272748+184365232+184015502+183451112+183081336+183286298
4387+183960673+184518362+184458873+183731185+182589275+181367180+180392540
4377+179937196+180113461+180672740+181071575+181090159+181120283+181435771
4367+181639956+181341823+180748158+180058486+179039998+177765185+176972283
4357+177082755+177600732+177941089+178112640+178223528+178127539+177954128
4347+178182676+178832183+179351585+179513962+179591547+179533015+178915150
4337+177901267+177314536+177509601+177888047+177750575+177132492+176607184
4327+176662556+177317606+178110220+178581312+178785859+178989213+179014497
4317+178472231+177472127+176548580+176107412+176265202+176883789+177557948
4307+177860867+177730546+177505502+177647037+178397625+179507262+180355247
4297+180474027+179914441+179222403+179142343+179964358+181010713+181263263
4287+180601187+179849876+179583348+179517375+179183466+178703072+178640170
4277+179246784+180056121+180332311+179881319+179252400+179130117+179634982
4267+180267042+180619283+180961771+181670929+182364177+182385325+181866265
4257+181446715+181326653+181363116+181553937+181807859+181866265+181820971
4247+182064924+182568723+182815295+182545588+182125804+182062540+182383067
4237+182629260+182468942+182120133+181973324+181998734+181866735+181570299
4227+181548501+182107780+182963874+183497382+183373870+182827486+182365333
4217+182223562+182174764+181876324+181309550+180842268+180928595+181704809
4207+182805922+183704890+184212807+184428966+184437960+184431675+184763002
4197+185405212+185727329+185243359+184205782+183202048+182638398+182740527
4187+183457144+184233413+184457483+184159115+183812563+183675597+183737073
4177+183999194+184478847+185174985+186114533+187099954+187549700+187064033
4167+186038411+185338625+185422207+185974840+186414924+186546905+186539374
4157+186443332+186101982+185547741+185171192+185359557+186078666+186864326
4147+187161303+186696116+185705675+184877249+184821444+185452475+186140865
4137+186550517+186914118+187419289+187801852+187744368+187388208+187202498
4127+187423840+187762879+187705665+187047779+186064760+185233896+184890938
4117+185104876+185758590+186642298+187468322+187930493+187833782+187179779
4107+186222477+185433313+185232686+185688807+186523283+187353985+187898960
4097+188038238+187790276+187327057+186985743+187031110+187389508+187853648
4087+188412422+189050352+189451390+189259377+188484029+187496495+186750423
4077+186513567+186725229+187067645+187174108+186811646+185996674+184998106
4067+184240113+184151530+184853482+185919396+186755515+187252325+187665735
4057+187983300+187986443+187834649+187948228+188338015+188613970+188666362
4047+188822598+189240306+189613243+189671486+189581078+189634138+189853295
4037+190008881+189850297+189376983+189008092+189295443+190279979+191356566
4027+191944235+192093229+192257575+192642016+193063426+193345232+193469376
4017+193332320+192728577+191748213+190919931+190697722+190956160+191259548
4007+191528243+192067259+192925322+193648512+193837636+193645099+193486136
3997+193526897+193751960+194286714+195196048+196038362+196158406+195582169
3987+195149201+195500791+196306136+196748261+196559535+196268355+196481931
3977+197225747+198007127+198301124+197968984+197347200+196924399+196911847
3967+197224735+197827503+198812165+200031877+200949609+201131816+200770112
3957+200457278+200552797+201010724+201775688+202987128+204487094+205432476
3947+205194663+204517109+204628918+205345337+205280989+204014141+202619031
3937+202142864+202987977+205251208+208290926+210262074+209745182+207847555
3927+207042029+208298041+210270616+211226798+211222879+211578894+212727143
3917+213374663+211987500+208869150+205919190+204541942+204705510+206062062
3907+209160239+214710916+221758433+227447611+229501962+227928637+223835485
3897+218722400+214824801+214139879+216468903+218625906+217777524+216052297
3887+217390825+221562375+224610544+225095200+225064895+224485804+221723126
3878+218582291+218551427+222182805+227422869+232400216+235414667+234849934
3868+232310873+231307826+232312824+232500304+230114987+226936227+225880318
3858+228888737+236706835+247552767+253813830+248506059+237191401+227783417
3848+223300894+223963602+228327381+234046629+239370816+243681626+246250395
3838+246015219+243538718+240868922+238840360+236861229+234889322+233954469
3828+234508114+235976565+238652700+243763112+249848163+252102744+249886342
3818+247708100+246585767+243450531+238040126+233814162+233607105+237900902
3808+244231441+248662006+250950973+254169538+258265001+259519009+257461100
3798+255146488+253429027+251490748+249914822+250142142+252585919+256671792
3788+261682567+266928916+271811178+276628640+282581619+289815262+296362953
3778+300839679+305056216+311829440+322349986+336113333+351111581+364399627
3768+374603402+382602677+389413177+395928938+403114000+410338541+415220242
3758+416873808+417917020+421986459+431247507+444772716+457303439+464873429
3748+470980459+480250465+491477190+498254567+500040584+503554139+512894976
3738+527502443+543446307+555324669+559749744+558056483+555111851+555664990
3728+561719791+571082914+578263569+579718656+576783343+572383588+568227209
3718+565245879+564529009+567163264+572571592+576767486+575292786+569115720
3708+562521795+558276850+557436739+559488092+562159080+563815029+565458408
3698+568054014+570700441+573122455+577373107+585355442+595276218+601523574
3688+600787741+596530840+593202580+592234641+593617705+597571560+604827526
3678+614722115+621988989+620981896+616418952+615561179+616358921+612334596
3668+603913766+596168270+590603073+586622091+584631601+585293243+587625428
3658+589199421+588819838+589156041+594016106+603242624+611515109+612049032
3648+605019430+597018060+591905012+589107857+586339093+582638329+579709626
3638+579525451+581811221+584823289+587716558+591581234+597818187+604688573
3628+607252249+604606978+600901193+599361767+601050802+605516041+610444373
3618+613535796+615362520+616897684+617122783+615654801+614794933+616158673
3608+618200959+619337000+620572153+623234978+626904606+630407795+633318113
3598+635763569+637644761+638954538+640291621+642471885+645859780+649603598
3588+651406266+649636540+645899584+643260887+643212703+645153926+647323065
3578+648463007+648831935+649189738+649957211+651797805+655510344+660575209
3568+664266004+663530532+658710271+652945548+649053132+648532574+650637636
3558+652337724+651356854+649028354+648795092+652406929+658210517+662663801
3548+663281089+660600420+657291484+655290735+654494510+653884013+652801575
3538+651131972+649380450+648686661+649648242+650862446+649885694+646600380
3528+644251003+645640893+649549924+652002532+650488823+646178645+642111771
3518+639963003+638771338+636953356+634926456+634543080+636646843+639924355
3508+641682667+640458061+638144443+638373081+642250615+646410896+646619451
3498+642677335+638180851+636307822+637215441+639335674+641481408+642844281
3488+642715911+641293368+639623621+638505207+638122410+637987755+636847380
3478+633803563+630130395+628278026+628735737+629670879+629542003+628582661
3468+627741214+627422998+627338694+626887558+625993376+625583633+626125935
3458+626392500+624893600+622009071+619600674+618792891+618949867+618488328
3448+616850295+615543263+615991293+617112236+616989212+615938342+615407525
3438+614972570+613382359+611536998+611382477+612636052+613160800+612067598
3428+610262257+608504523+607039431+606450389+607013641+607680702+607222414
3418+605884680+604607122+603485638+602160402+600895848+600394721+600867494
3408+601756980+602288375+602034272+601119429+599944054+598534659+596641078
3398+594858059+594716217+596817306+599538176+600499288+599110879+596863793
3388+595483402+595509119+596218910+596372961+595207085+593029783+590970953
3378+590027468+590355219+591447157+592461654+592497341+591294840+589702353
3368+588782092+588488077+587912400+586555884+584615202+582576925+581195234
3358+581158500+582425511+584374572+586249371+586918852+585176576+581251472
3348+577192797+575024489+575002817+575854305+576278460+576034796+575803268
3338+576207774+576981713+577228881+576576738+575578494+574746908+573889062
3328+572977362+572999756+574849271+577685616+579541524+579593970+578783225
3318+578293332+578617615+579830663+581505900+582563525+582322136+581228753
3308+579839657+578208125+576689287+576141963+576812022+577841328+578436800
3298+578798142+579454439+580272698+580789355+581028469+581257107+581451612
3288+581507381+581501277+581379698+580916425+579959756+578275127+575777803
3278+573340077+572491731+573938619+576793637+579157896+579497277+577946870
3268+576304828+576338997+578134224+580230040+581099914+580405655+579151791
3258+578686857+579216699+579430564+578084162+575785172+574399616+574816005
3248+576182526+577268540+577644295+577433536+576818487+575925497+574877192
3238+573888087+573241181+573176671+573706224+574484822+575098787+575457962
3228+575508350+574665169+572421406+569453621+567129275+566195722+566410527
3218+566809904+566238488+564330965+561931309+560044120+558841403+558192077
3208+558303868+559048586+559466854+558844112+557527220+555983025+554205641
3198+552688392+552412184+553268188+554058056+554345570+554613362+554620622
3188+553571016+551655691+549714540+547942104+546332569+545436256+545433583
3178+545462912+544806760+543767484+542714809+541422117+539850724+538528305
3168+537846977+537662983+537564809+537180494+536347319+535085762+533416232
3158+531488517+529956062+529654678+530624712+531794813+531864597+530474454
3148+528471863+526929149+526044178+525322540+524523606+523809047+523204402
3138+522600406+522077030+521653814+521026413+519988438+518831412+517911946
3128+517156681+516448479+516072111+516157390+516070016+515155932+513802378
3118+512902958+512607968+512458576+512344365+512351625+512113560+511376643
3108+510681265+510411630+509867196+508448121+507026878+506892079+507887758
3098+508656821+508406511+507509078+506433647+504986253+503071506+501540459
3088+501368962+502310498+503204535+503356058+502872630+502026162+500994906
3078+499949273+499036056+498345264+497782807+497042784+496158896+495886011
3068+496721281+497799602+497700634+496147265+494115273+492605176+492000024
3058+492200309+492666615+492579242+491558459+490102325+488921532+488084131
3048+487210284+486242092+485480036+484938492+484222453+483196650+482356431
3038+482241317+482722325+483136113+482984013+482271513+481199080+479810345
3028+478155805+476554325+475345394+474507740+473811603+473222163+472880434
3018+472890367+473307225+473986856+474373916+473898471+472569767+470835330
3008+469142575+467876647+467282043+467229416+467353885+467405212+467265211
2998+466853301+466219037+465454922+464398634+462789497+460878831+459471819
2988+459074971+459273160+459270957+458812597+458205459+457747098+457485627
2978+457275518+456850929+456039462+454942178+453828857+453007348+452681547
2968+452693575+452628451+452343646+452025394+451681317+451094623+450223305
2958+449167125+447948659+446703068+445761930+445268677+445018692+444791318
2948+444492101+443947920+443009853+441938142+441227629+440956188+440713283
2938+440243328+439753760+439476612+439270838+438763282+437734156+436380386
2928+435255001+434819179+434985980+435178463+434910129+434268568+433690218
2918+433343757+433019004+432516721+431771642+430744358+429572812+428613434
2908+427992498+427395979+426532788+425487480+424529005+423861727+423498254
2898+423212979+422823716+422452766+422146470+421508774+420242775+418761537
2888+417729992+417283804+417113607+416980831+416806805+416501304+415970126
2878+415208251+414332453+413587735+413200603+413105427+412967955+412605204
2868+412211570+412020063+411910548+411545087+410830601+410047632+409425577
2858+408755373+407708043+406483148+405709281+405674714+406025835+406186207
2848+405800773+404946214+404120659+403779833+403781097+403572216+402906058
2838+401980091+400930232+399679800+398320142+397240015+396780535+396910241
2828+397173555+396922703+395864392+394457562+393483482+393190587+393140380
2818+392840261+392207116+391410133+390560992+389706867+389002422+388660006
2808+388626595+388510362+388031377+387353841+386771409+386289282+385725958
2798+385033179+384308869+383595972+382844246+382069368+381437344+381109195
2788+381024494+380920397+380626056+380272841+380074760+379954228+379618711
2778+378972166+378135848+377104266+375776502+374348794+373260937+372664382
2768+372252039+371699803+371035054+370449118+369991083+369617026+369314233
2758+368988830+368457580+367761623+367244351+367075022+366926605+366394344
2748+365553511+364809153+364324859+363897453+363344062+362708317+362032804
2738+361224587+360254662+359278885+358485043+357950326+357640562+357428322
2728+357128853+356633939+356055444+355661558+355568838+355514008+355090720
2718+354267766+353500112+353183016+353132412+352798773+351956495+350998237
2708+350461496+350368596+350190345+349481891+348397574+347470270+347043586
2698+347020759+347008875+346656238+345973031+345255583+344652455+344071684
2688+343539531+343256424+343240603+343254329+343076042+342620751+341897271
2678+341014828+340164495+339528389+339215411+339217253+339370510+339414251
2668+339168853+338722881+338373783+338258670+338146626+337742590+337017195
2658+336096249+335085472+334157626+333568728+333443104+333635839+333817738
2648+333691933+333220100+332655800+332288136+332155830+332040102+331703176
2638+331096688+330350308+329615198+328986460+328556093+328396696+328410674
2628+328314487+327919481+327364356+326935108+326739699+326682558+326627078
2618+326452186+326103196+325694862+325413380+325264638+325052435+324617263
2608+324014604+323460490+323111031+322886221+322574218+322103252+321603895
2598+321227671+321024822+320951933+320878682+320630069+320144330+319595742
2588+319258238+319194740+319149590+318820141+318179231+317463228+316928691
2578+316699041+316757086+316977091+317187309+317270673+317219022+317058722
2568+316744588+316233421+315679198+315373047+315397139+315510121+315463310
2558+315240993+314921838+314526434+314092635+313724430+313490662+313358645
2548+313251983+313147380+313117147+313240497+313457938+313586777+313484775
2538+313131162+312600056+312048687+311665384+311514042+311447726+311249536
2528+310873023+310512728+310392738+310489503+310539746+310359580+310080627
2518+309983826+310140477+310322810+310278058+310002789+309706028+309562199
2508+309543525+309500470+309386585+309312178+309334283+309331466+309163834
2498+308847858+308541345+308418465+308498073+308569410+308421716+308104440
2488+307803128+307597354+307497302+307507740+307523561+307385764+307112228
2478+306885179+306808425+306815793+306797444+306749441+306780612+306934013
2468+307063647+307013513+306828146+306619301+306346994+305933892+305483803
2458+305188198+305074529+304985024+304795576+304570621+304475373+304573655
2448+304766535+304914807+304950132+304875256+304739373+304597639+304432283
2438+304172220+303836703+303568874+303493059+303613916+303832585+303998122
2428+304012101+303932420+303902224+303978437+304099655+304194759+304247710
2418+304260316+304214119+304122086+304091456+304218453+304404470+304441638
2408+304319191+304259702+304382979+304524641+304492675+304350435+304301637
2398+304400280+304540317+304674899+304861892+305092264+305242811+305227785
2388+305057480+304705565+304032075+302871907+301126037+298747854+295705808
2378+292022670+287868386+283567780+279428756+275535618+271780548+268146624
2368+264896617+262400629+260781938+259879846+259682686+260559350+262834844
2358+266462501+271325926+277524501+285154252+293705059+301653152+307080696
2348+308849627+307361744+304542556+302413672+301273514+300163733+298533140
2338+296572195+294617084+292701271+290658948+288627462+287137429+286531176
2328+286611109+286939113+287185884+287268309+287383369+287813628+288632862
2318+289680661+290733319+291631276+292359957+293042946+293811811+294720567
2308+295735642+296679760+297289481+297502010+297566881+297727018+297947656
2298+298100696+298224894+298433124+298715997+299006021+299321365+299695404
2288+300046795+300244623+300247332+300112750+299935293+299782651+299622640
2278+299364618+299038565+298802034+298712601+298663948+298564275+298400924
2268+298172990+297926363+297771048+297756510+297830014+297935159+298029088
2258+298028871+297853925+297525578+297194865+297051758+297147024+297314223
2248+297347941+297237866+297159305+297264504+297529822+297794923+297931655
2238+297949408+297930860+297937163+298001601+298123560+298248588+298340152
2228+298451419+298625950+298774583+298762898+298592937+298407515+298318588
2218+298292167+298226880+298124589+298094465+298142522+298118322+297999145
2208+298003804+298230619+298456024+298507730+298534097+298698045+298904867
2198+298976439+298850001+298570307+298272879+298133908+298205461+298357381
2188+298439012+298436339+298436321+298476595+298487105+298414162+298335709
2178+298363034+298481380+298588259+298656399+298766962+298979202+299237314
2168+299445436+299582204+299681588+299756374+299814382+299873348+299908240
2158+299889385+299892184+300012409+300171192+300188565+300052863+299929027
2148+299894893+299849870+299707197+299545163+299529740+299737375+300067420
2138+300337758+300467952+300513463+300544635+300608639+300776560+301061347
2128+301311079+301363507+301305697+301420450+301838699+302357055+302658782
2118+302648000+302492034+302387251+302394114+302492703+302692210+303024079
2108+303448487+303836992+304096368+304262700+304408624+304518898+304548119
2098+304543206+304610462+304792830+305044152+305286516+305446707+305486800
2088+305464262+305520247+305750981+306124207+306521850+306799864+306853755
2078+306728058+306601205+306596799+306702413+306868275+307057579+307264112
2068+307564954+307982391+308273480+308148903+307710517+307365934+307353075
2058+307580377+307839429+308014610+308162990+308428507+308827667+309201723
2048+309431843+309574805+309754429+310008965+310234497+310267330+310088645
2038+309889625+309844584+309923831+310004884+310048950+310107067+310233486
2028+310417083+310587099+310713229+310860598+311118819+311543227+312116159
2018+312632492+312763715+312457600+312106515+312110019+312443188+312766207
2008+312803953+312565309+312292929+312215489+312344545+312538075+312667239
1998+312701300+312822518+313406178+314559665+315740746+316227714+315900143
1988+315169259+314412187+313860277+313693006+313904379+314273632+314598096
1978+314827854+315009320+315211410+315443300+315684580+316089844+316881338
1968+317805861+318135129+317611139+316883180+316613546+316746069+316929991
1958+317084873+317254311+317372242+317415550+317501551+317749441+318195521
1948+318869300+319923096+321507708+323233513+324047328+323337646+321833112
1938+320696566+320345011+320513294+320841225+321134591+321360484+321557156
1928+321876419+322750916+324474770+326444420+327695863+328322614+329046094
1918+329577092+329038256+327776844+327099670+327626838+328882869+329989797
1908+330432770+330365840+330244441+330295587+330541816+331096219+332144199
1898+333717036+335506412+336987505+338106569+339540128+341558901+343165908
1888+343354778+342631623+342177019+342431556+343144019+343946601+344579095
1878+345039009+345579759+346481345+348155174+351289146+355999314+360491788
1868+361776931+359175329+355263409+352543803+351486215+351344264+351379012
1858+351268593+351043748+350879547+350867880+351120791+351928611+353577733
1848+356281807+360035631+363591266+364308605+361415588+357631315+355518884
1838+355225122+355559158+355930361+357225365+360566159+365108189+367996980
1828+367921959+366579602+365252127+363426631+361042399+359278524+358876077
1818+359338121+359830507+360306710+361417431+363273917+364795428+364878576
1808+363852845+363043472+363537086+365683578+368844893+371395385+371959287
1798+371075869+370891911+373155901+377401243+380287144+378617325+374028158
1788+370667968+370242549+371650933+373358425+374933501+376212648+376699002
1778+376744982+378047282+382181954+388654516+393925878+394372824+390796204
1768+386195949+382469323+381034897+382635763+385691283+387337479+387225761
1758+387089336+387346148+387851970+389978632+394991087+401244944+404849882
1748+404288003+401825209+400049848+399984002+401396684+403072499+403629249
1738+403910587+406899285+413453189+418735134+417323210+411808509+406622824
1728+402945176+401084175+401201456+402634943+405242902+410603227+419965411
1718+430617903+435602473+432033149+424826993+418949541+416366649+417644026
1708+422456739+428805699+433887974+437842588+443807920+452437305+458915466
1698+459708332+456653246+450952744+444211414+440230650+440815827+444751008
1688+450960835+460509000+472684592+479602729+475572443+467597080+462931484
1678+463292790+467404164+472263507+475709518+479083687+483768463+486917750
1668+485187177+481599251+481219018+484467490+487479377+487431915+486456463
1658+488442475+495823415+509219460+524152727+529019728+524674731+523443406
1648+527688893+530573530+526166768+518782795+514721880+515536924+520894142
1638+530173214+540129750+543520028+538218650+531807672+530092992+533089889
1628+537909645+542278409+546116753+549090859+549861872+549638833+551933777
1618+557728046+563043943+563379749+560761713+559568603+560980093+563740044
1608+566279954+568001966+569218698+570421271+571846089+573539458+575615734
1598+578267976+581390100+584371321+586626426+588208690+589495892+590586602
1588+591480712+592531510+594199126+596457734+598937792+601921578+606700338
1578+613914982+620762793+622363912+620013018+619721314+623386392+627561626
1568+628566985+627641234+627876735+631064020+639158543+654371631+673217144
1558+680908786+673792894+665012239+660457603+659748715+661492219+664184734
1548+667584476+673627754+684124533+698238279+713077960+724228075+725720184
1538+719404418+714883373+716236710+720652646+723320528+723991273+726466131
1528+732420121+740222218+748224563+756886817+765983664+772644375+775622309
1518+777143170+778223802+778239623+778070221+780081156+786201947+796919563
1508+809117947+813138949+803791936+791959446+786406746+787546038+792977157
1498+798964595+801478389+800323205+799919530+803643339+810370943+815343558
1488+814916911+810644298+806169125+803467796+802811355+803884258+806614121
1478+811173237+817454833+824761222+831088980+832730842+828435763+822815881
1468+820883110+823453468+827328329+828893329+829326839+832974073+841710445
1458+851714261+854078881+846594783+837263662+831201457+828684050+828470293
1448+828698354+827687144+825403793+823153890+822027602+822661288+825512586
1438+829834467+832599005+831475968+828819716+828044441+829538501+831444760
1428+832408076+832894682+833568677+834241806+835187351+837475830+840485333
1418+840876366+837160504+832109870+828618746+827406565+827542159+827767546
1408+827827866+828207413+828731367+828862627+829210461+830746420+833081204
1398+835196236+836939595+838114790+837734231+836025258+834879755+835141406
1388+835322728+833742197+831478713+831345431+834538495+840038748+846272450
1378+852340001+857848995+862122619+864215401+864353523+864430242+865857047
1368+868002780+869654612+870962944+872548531+873697069+873157945+871251252
1358+869570308+869071855+869310318+869299554+868743959+868071336+867504399
1348+866672271+865224011+863662840+863283076+864885713+867585669+869310173
1338+868829491+866928794+865193598+864436454+864612213+865522649+866936524
1328+868164380+868386445+867810406+867845081+869565829+872381224+874628671
1318+875450181+875672028+876524745+878018661+879200645+879726911+880322816
1308+881578702+883109243+884260237+885169084+886592854+888784749+890982279
1298+892195616+892234697+891662198+891024972+890498129+889916094+888704852
1288+886238447+882795867+879586116+877292869+875259107+872593753+869477841
1278+866808587+865044640+863977227+863292901+862871311+862657192+862646429
1268+863032694+864017537+865368562+866493044+867070817+867323656+867570860
1258+867802460+867863647+867966950+868774589+870656648+872963765+874538372
1248+874974555+874881727+875059798+875966333+877842829+880809422+884640434
1238+888651828+892081333+894642011+896458693+897561142+898050710+898665252
1228+900377621+903328031+906628443+909266707+910996268+912291525+913638722
1218+915155754+916943974+919389863+922682040+926229728+928905195+930008222
1208+930078800+930540122+932243171+934629607+936687859+938368947+940665806
1198+944368593+948839070+952375056+954161180+955273237+956983944+959050286
1188+960664409+962016373+963781765+965749356+966913787+966829194+966175137
1178+965867540+966635231+969328252+973984385+978634594+980572784+979187011
1168+976432153+974664955+975073181+977492341+980888326+984400039+987932702
1158+991331215+993827528+995017748+995437027+995650133+995784210+996144469
1148+997302615+999241960+1000779436+1000650127+999394169+999013827+1000385369
1138+1002242361+1003141672+1003078173+1002638523+1002140936+1002387274
1130+1004911543+1010146243+1016005238+1019637086+1020264415+1019183926
1121+1018091519+1018427289+1020815531+1024307017+1027258439+1028953975
1113+1029682945+1030295754+1031901713+1034437685+1035872148+1034782413
1104+1033277228+1034893229+1039599568+1042955605+1041738006+1038496975
1095+1037655527+1039726276+1042249751+1044161501+1046089504+1048239500
1087+1050050042+1050744987+1049973540+1048234516+1046526843+1045569957
1078+1045811237+1047674803+1050735451+1053434902+1054589219+1054719828
1070+1055069035+1055594289+1054859612+1052195992+1049516336+1049495314
1061+1051924949+1053795450+1053385923+1052448036+1054123562+1059762516
1053+1067216417+1071731972+1070243474+1065459766+1063175838+1065884824
1044+1070589863+1073220470+1073560068+1073300439+1072552036+1070449791
1035+1067281866+1064964853+1065213646+1067259544+1068453810+1067881094
1027+1067532104+1068922501+1070455931+1069206691+1064757164+1060307419
1018+1059790761+1064098844+1070138366+1073741823+1073084731+1069384618
1010+1065459838+1063542454+1063207190+1061702655+1057661498+1053112280
1001+1050662923+1050675782+1051941275+1053429845+1054840324+1056531670
993+1058756434+1060449009+1059257777+1054276710+1048213855+1044513019
984+1043176297+1041515869+1038784127+1037517044+1039350630+1042296562
975+1043195223+1040787115+1035861673+1030028251+1025060982+1021992459
967+1020432444+1019798469+1020166530+1021323737+1021649465+1019019509
958+1013329266+1007099753+1002869473+1000856227+999827390+999187708+998595777
948+996371735+990943577+983661028+977821537+975258692+975419570+977015488
938+978950932+979899799+978607938+975186452+971277999+968550376+967685523
928+968697383+971298154+974644655+977325829+977827678+975431923+971479693
918+968838323+969144474+971104480+972032181+970708968+968039786+965335568
908+962872485+960393727+958422091+958187817+959868906+961659871+961703720
898+960326399+959014961+957920820+956185190+953987878+952027005+949995988
888+947780832+946552903+946996165+948311576+949544490+949897887+948551557
878+946393976+945810279+947104380+947927117+947133204+946228763+946487020
868+947130386+946564750+944386220+941940764+940688201+940576446+940852546
858+941600009+943128094+944673950+945048946+944147612+942884936+942192157
848+942674285+944587985+947220252+948618884+947289169+944510399+943315411
838+944831216+947091377+947820203+946959034+945851745+945277440+945042950
828+944922599+944941237+944681246+943528374+941943220+940980265+940419180
818+939472841+939203748+941461020+945524210+948574168+949491105+949779558
808+951041801+953331725+955257128+954846157+951666385+948110534+946805886
798+947551254+948357087+948146292+947113916+946167432+946600942+948858503
788+951343185+951957005+950857229+949970126+950154193+950468002+949888929
778+948712145+948402309+949824708+951302369+949905399+945379948+940970585
768+939952946+942796586+947434298+951548345+954582771+957305844+959639689
758+960019959+957457330+953352530+950286030+949706668+951504640+955038242
748+959382950+962896541+964312871+964458217+965124700+966471897+966860980
738+965148395+962638140+961927374+963371589+964040455+961616671+957078144
728+951816499+946042457+941411319+941098522+946389713+955347933+964464791
718+970466821+971318381+967018317+959822167+953548950+951317756+952665603
708+953848094+951904342+947469118+942915421+939297010+936191573+933640430
698+932816465+933885900+934326996+931995462+928374233+926146724+925892874
688+926352896+926195486+924647535+921314543+916983994+913059287+909162537
678+904293586+899826504+898134652+899404480+900796249+898558771+891565397
668+884315717+884095603+890056022+895705017+898180741+897328097+892929931
658+886047229+880304250+878056514+877700662+876145704+873262837+872737221
648+876829163+881874162+882866445+880995222+880257367+879765559+876006498
638+870149453+866800641+866495645+864982442+860790448+858101039+859070206
628+859533262+855920125+851403703+850855838+854751071+860460385+864753442
618+864340159+858926955+853948994+854730049+859089205+859380547+851904179
608+840687676+832089427+828512915+828075359+829495229+832454670+834767711
##END=
