##TITLE=<SNM>
##JCAMP-DX=4.24
##DATA TYPE=INFRARED SPECTRUM
##DATE=2/5/2025
##SAMPLING PROCEDURE=Instrument type and / or accessory
##ORIGIN=Admin
##XUNITS=1/CM
##YUNITS=ABSORBANCE
##RESOLUTION=4
##FIRSTX=4497.3318
##LASTX=599.83466
##DELTAX=-1.4281778
##MAXY=1.7879689
##MINY=0.25292331
##XFACTOR=1
##YFACTOR=1.6651758e-09
##NPOINTS=2730
##FIRSTY=0.27113709
##XYDATA=(X++(Y..Y))
4497+162827908+163899283+165241910+165727717+164794350+163002605+161561703
4487+161119655+161264910+161504521+162127601+163491669+165010640+165541280
4477+164597800+162864133+161561971+161411901+162127261+162751773+162565192
4467+161787693+161245133+161382067+161959168+162607788+163177230+163601971
4457+163904437+164190241+164330288+164010318+163265768+162555563+162231674
4447+162193427+162072674+161653910+161076415+160607395+160385843+160513899
4437+161052146+161651888+161686788+161103225+160615163+160717482+161014006
4427+160892483+160458632+160371293+160929477+161651172+161776221+161016745
4417+159802012+158932556+158970517+159802245+160755854+161148237+160752812
4407+159941791+159486982+159909593+160829806+161397727+161420081+161376232
4397+161367516+160963768+160183728+159679683+159684140+159622895+159067717
4387+158383357+158075217+157979126+157492173+156384217+155064176+154101206
4377+153789666+154194380+155214317+156477569+157552917+158291829+158617848
4367+158262334+157234916+156143890+155448039+154806775+153739893+152554494
4357+152078191+152670362+153854419+154858517+155289576+155274703+155121680
4347+155000461+154953677+154993911+155093760+155216984+155388495+155629859
4337+155824028+155729136+155188008+154284762+153258704+152370384+151889857
4327+152021939+152646505+153246068+153370222+153213620+153413445+154101206
4317+154583469+154344271+153817908+153575971+153411118+152976873+152618370
4307+152774650+153263106+153723768+154044400+154106539+153923234+153995916
4297+154698371+155557213+155903349+155839133+155836323+155824440+155393399
4287+154585259+153853685+153354544+152856979+152367789+152248449+152570029
4277+152902993+152930519+152797684+152736959+152781684+152943029+153349962
4267+154056695+154822346+155242989+155164025+154859608+154761978+155093384
4257+155747463+156465328+157064354+157429282+157432700+157150297+156969891
4247+157082573+157120963+156730621+156121196+155669699+155417703+155282703
4237+155336216+155663363+156203095+156716876+156863008+156536434+156149904
4227+156296770+157124221+158215014+159033050+159349816+159248696+158849477
4217+158192194+157463484+157092095+157368592+158117097+158867911+159148864
4207+158706995+157814112+157208839+157387295+158089141+158681348+158839186
4197+158654771+158229439+157496325+156564963+155908629+155860789+156182048
4187+156489042+156749592+156978321+156885469+156256125+155399931+154950581
4177+155327250+156440236+157817942+158987018+159741752+160121194+160266897
4167+160293385+160242610+160152479+160077024+160027716+160008083+160071941
4157+160227040+160337574+160268150+160068522+159882014+159758665+159677375
4147+159639289+159621392+159554348+159423894+159327516+159439876+159885736
4137+160521738+160959795+160961549+160615037+160124380+159804518+160102921
4127+161053381+161922085+161922228+161029649+159790790+158763587+158284581
4117+158310979+158493336+158660945+159013828+159675567+160373566+160745026
4107+160731854+160513989+160228131+159973308+159948359+160250575+160636335
4097+160787157+160656577+160316670+159770924+159129285+158656381+158572425
4087+159008101+159952350+161000655+161450757+160955357+159944887+159266719
4077+159415840+160025050+160223926+159714762+159199120+159399249+160079225
4067+160502284+160419258+160034696+159455214+158774934+158318353+158312823
4057+158618904+159017748+159404922+159639325+159647200+159696113+160147969
4047+160961173+161723871+162063152+161801993+160959169+159909933+159301637
4037+159469532+160104138+160711612+161155145+161534266+161843318+162040816
4027+162225679+162465880+162605658+162494676+162286279+162285116+162546883
4017+162765607+162589336+161994641+161284687+160761617+160512557+160496038
4007+160671772+161022884+161541461+162179879+162813555+163314682+163591877
3997+163510784+162965110+162130679+161484261+161437334+161980753+162714439
3987+163235020+163474774+163625202+163791683+163846754+163703897+163671198
3977+164253222+165423390+166397492+166472177+165825849+165162893+164905260
3967+165049030+165528447+166386592+167559642+168609414+168921974+168358779
3957+167472123+166930244+166986245+167611634+168803762+170352531+171599032
3947+172123569+172392943+172897166+173127488+172309093+170650219+168986405
3937+167995050+168359459+170525599+173655837+175706844+175487619+174062234
3927+173265531+173702424+174571271+174992541+175156892+175776017+176799928
3917+177177259+176045964+173967807+172348969+171867153+172216940+173433605
3907+176545964+182197516+189007532+194114234+195737761+193909147+189235044
3897+183332498+179144362+178874684+181829778+184407291+183942746+182587984
3887+183534953+186077619+187441258+187781202+188822222+189151176+186702722
3878+183747467+183798886+187112465+191868271+196690493+199833904+199219361
3868+196265036+194573087+194759972+194445103+192323437+189812629+189014530
3858+191649582+198988752+209762363+216130062+210978473+200339058+191781486
3848+187627248+187866877+191439162+196576469+201807737+206487908+209759911
3838+210209637+207990180+205156985+202732674+200161086+197487232+195995304
3828+196298468+197854916+200946925+206516866+212538411+214133016+211345334
3818+208705843+206607247+202369482+196888098+193815848+195077633+200000475
3808+205671643+209243088+211884225+216326289+221016357+221644252+218773061
3798+215999411+213594913+210635040+208351654+208391798+210706540+214435607
3788+219118642+224323833+229319124+234254905+240580492+248871947+257288040
3778+264043165+270400215+278983469+291101193+306183979+321597043+333819502
3768+341779086+346577451+348827942+349894413+352262025+356270363+359438132
3758+360744606+363077103+369996454+382686715+398655172+412112409+420669909
3748+428929310+440209972+451307471+456566731+458436580+464242175+476940347
3738+494716585+512320721+524335177+530090946+533130318+536926465+543193026
3728+552204727+562550893+571187894+575629635+575641412+572532597+568341168
3718+565241159+565190044+569665254+577673805+583179118+579454919+568649899
3708+557953730+551373070+549750993+551971344+555112732+556564176+556720277
3698+557710791+560810049+565813303+571697719+577396324+581340017+581106742
3688+576562734+571487031+569257551+570510155+574020015+578393496+584088163
3678+592390267+600679020+602817688+599197759+595308403+591275510+583757813
3668+573883135+565960456+561945746+561225877+562353055+564427114+567184424
3658+569689523+570702981+571294705+574288153+580552280+587209041+588979559
3648+583719441+575420486+568613424+564781303+563524333+564008171+565437601
3638+567027714+568223296+569351620+572007738+578038984+586879657+593323151
3628+592385005+587572716+584495472+584714286+588069333+593516515+598012772
3618+599047815+598271640+598191245+598997953+600553953+603415748+606137871
3608+605303136+601033818+597885414+599024942+603544394+608781890+613398991
3598+617658215+621674822+624868649+627083703+629154218+632010787+635486463
3588+637431839+635715549+631624919+628244457+626893275+626598755+626070496
3578+625466208+625723286+626644787+627024785+627283080+630007352+636452564
3568+643040670+643607803+637391247+629887511+625443156+624005135+623470074
3558+623128019+624089325+626523085+628165351+627195097+625559990+626529815
3548+629742470+631231462+628710434+624560527+622047302+621381090+620635412
3538+618936089+617563287+617893100+619473441+620886119+621695869+622347191
3528+622592529+621285231+617687137+612674003+608597833+607189093+607515542
3518+606931442+604601558+602517942+602274967+603250519+604352498+605187877
3508+605149433+603712773+601808060+600830790+600557031+599725769+597948377
3498+595764679+593934885+593389694+594943976+598275900+601485907+602343765
3488+600321108+596835732+593331706+590240610+587925760+587077674+587507963
3478+587886565+587354367+586394208+585795110+585420768+584312775+582069479
3468+579830263+579181984+579977201+580189572+578542545+576439600+576256617
3458+578355983+580812222+581503456+579585749+575629850+571598961+569921617
3448+571175616+573271259+573934572+573191222+572490073+572498628+572611059
3438+571772315+569652225+567433018+566744398+567726715+568958879+569071705
3428+567651295+565125470+562571439+560948431+560041319+558953300+557584113
3418+556505294+555922447+555692179+555724931+555609994+554459334+552035954
3408+549502827+548236657+548260891+548530604+548498067+548531499+548818323
3398+548957278+548719601+548213606+547447310+546417279+545402818+544778342
3388+544656926+544791622+544687280+543948082+542604130+540993328+539510098
3378+538480246+537825631+537052391+536091336+535575390+535739330+535835726
3368+535223312+534367852+534263367+535326580+536993938+538060194+537605958
3358+535860925+533967094+532850833+532570702+532766142+533366528+534345409
3348+535005787+534561860+533503909+533154838+533865937+534806876+535384926
3338+535832289+536545215+537387645+537527388+536237200+534042370+532273462
3328+531380776+530616879+529300596+527575215+526052468+525321109+525664524
3318+526764892+527829609+528224390+527894469+527311479+527079994+527380026
3308+527788659+527673114+526627369+524900734+523753726+524508567+526742878
3298+528511464+528824382+528585273+528624504+528488734+527741267+526924358
3288+526713026+527194752+528074696+528858530+528995016+528399319+527626115
3278+527358979+527951633+529123627+529876964+529238850+527388008+525604890
3268+524929513+525201518+525549873+525567055+525558464+525655110+525446319
3258+524719899+523917129+523647272+524012200+524471089+524399643+523779534
3248+523058877+522473632+521943260+521369684+520722586+520114682+519804807
3238+519756412+519477249+518538458+516807171+514331172+511721087+510269822
3228+510791209+512564341+513970862+513979095+512684289+510772846+508969790
3218+507842934+507583529+507915240+508372089+508507751+508008772+507010884
3208+506015072+505123316+503916924+502320977+500909444+500190398+500107390
3198+500164053+499681611+498300110+496383979+494494585+492710894+491062221
3188+490103064+490281930+491036807+491193517+490242628+488747586+487506509
3178+486734701+486088676+485232858+484238550+483305702+482208304+480549967
3168+478723644+477767350+477833069+477645540+476083348+473600871+471454757
3158+470218977+469694762+469664874+469955778+470120720+469832823+469294218
3148+468690754+467783176+466489194+465134325+463890384+462714381+461769219
3138+461174023+460653066+459987032+459302814+458644440+457842529+456906065
3128+456033961+455314771+454715710+454184264+453612120+452908430+452232516
3118+451860179+451766110+451722870+451749752+451847221+451413460+449803481
3108+447488631+445823027+445593475+446278194+446691409+446184877+445177790
3098+444436085+444026808+443379924+442309910+441306152+440638650+439921752
3088+438971793+438466729+439050828+440183627+440653684+439975086+438537710
3078+436792355+435160935+434313923+434635109+435550776+435920859+435110894
3068+433526330+432136059+431525436+431409854+431065114+430190218+429234461
3058+428787276+428800592+428651757+427911198+426745684+425555184+424552142
3048+423733121+422999292+422269364+421604368+421182992+421061289+421056743
3038+420952759+420681399+420253579+419620119+418671377+417413727+416118563
3028+415092040+414260348+413235972+411854758+410445659+409515531+409282972
3018+409463987+409530207+409325998+409146558+409000730+408362008+406980686
3008+405349338+404112592+403513315+403398700+403302949+402668164+401397913
2998+400022426+399073112+398573739+398294182+398097632+397806656+397172623
2988+396274889+395489515+394872484+394132534+393281978+392651882+392264260
2978+391877211+391496461+391242891+391000489+390617162+390129780+389608178
2968+389066280+388513537+387918234+387241533+386513431+385736397+384801472
2958+383654965+382456769+381453477+380804624+380557819+380615377+380678698
2948+380447321+379969102+379553667+379262906+378825995+378143495+377453121
2938+376895617+376311768+375532550+374623148+373872137+373604034+373816082
2928+373983029+373488273+372298132+370955254+369895620+369063033+368232092
2918+367408239+366755020+366314028+365957583+365550703+365090812+364673086
2908+364331604+364029281+363775066+363524145+363027957+362143396+361221823
2898+360755953+360677419+360448870+359836599+359142216+358636077+358220929
2888+357799266+357526188+357432656+357179014+356491754+355560373+354749728
2878+354168205+353731580+353466126+353517277+353851099+354079255+353733764
2868+352750087+351545019+350539865+349739994+348904436+348015722+347341778
2858+347034909+346947426+346918683+346958773+347040493+346944491+346433556
2848+345496806+344418273+343594634+343209661+343131807+343142009+343090142
2838+342825977+342259560+341547780+340939268+340401129+339700517+338872655
2828+338238872+337886401+337495128+336801782+335930429+335153897+334590988
2818+334202399+333884971+333559954+333241273+332951800+332610855+332135571
2808+331553333+330902655+330185077+329505011+329061692+328894745+328753857
2798+328311791+327497280+326576280+325888626+325564647+325486829+325393441
2788+325035242+324390792+323674896+323001918+322198360+321120650+319975539
2778+319118826+318660867+318438331+318258927+317981517+317431423+316502941
2768+315382528+314460132+313977546+313857204+313802867+313483936+312769078
2758+311874565+311169443+310783003+310482040+309934988+309077631+308223674
2748+307748928+307671145+307652138+307368142+306733214+305842854+304872529
2738+303994983+303286890+302714710+302211507+301728492+301232734+300701038
2728+300142066+299648062+299362276+299311358+299300172+299049966+298451602
2718+297671276+296980096+296457832+295965778+295471219+295190875+295238589
2708+295337937+295119195+294565324+293960714+293507319+293146633+292693310
2698+292041701+291288632+290691324+290413216+290312508+290119645+289768355
2688+289357986+288908564+288404645+287942301+287582438+287200525+286698968
2678+286225868+285979188+285906776+285779883+285500290+285148731+284750782
2668+284226854+283621850+283154978+282955100+282902822+282758783+282356521
2658+281729844+281101412+280655123+280348433+280044785+279732726+279494762
2648+279333113+279102630+278620957+277881902+277138712+276701479+276679626
2638+276933662+277187268+277209962+277000580+276751896+276574479+276362967
2628+275967453+275358565+274614033+273887667+273383587+273192979+273152495
2618+273022363+272798878+272665185+272655717+272590392+272341564+271968224
2608+271591269+271292400+271102634+270971912+270799506+270559645+270334961
2598+270185070+270052057+269834245+269500244+269096980+268697867+268370542
2588+268134797+267948897+267818872+267860144+268095262+268268777+268081803
2578+267577025+267096032+266886274+266902543+266965274+266974007+266927277
2568+266823956+266640257+266404208+266219238+266198298+266391214+266741359
2558+267100828+267333316+267371330+267157617+266680669+266120373+265754550
2548+265666352+265717986+265762801+265676607+265313021+264676894+264029777
2538+263629430+263457168+263311930+263092973+262895440+262833121+262847869
2528+262789272+262646541+262555532+262575416+262594030+262489885+262283653
2518+262061815+261832996+261585690+261429231+261472453+261578549+261482297
2508+261158228+260854134+260756396+260804987+260841158+260813775+260798151
2498+260858035+260947862+260950869+260772951+260426243+260057449+259840246
2488+259816854+259897840+259958583+259851360+259459747+258879101+258406950
2478+258216182+258163921+258039069+257856659+257754375+257705873+257526040
2468+257138776+256689408+256380481+256277249+256271557+256212943+256074059
2458+255932849+255798189+255592351+255315299+255061639+254873788+254714555
2448+254557147+254403337+254263433+254172084+254159198+254179601+254135019
2438+253985092+253796096+253667753+253631010+253614258+253498408+253236587
2428+252953039+252859453+253008556+253205213+253251943+253197589+253224990
2418+253377601+253546266+253659091+253712980+253664568+253490480+253339801
2408+253423615+253731236+254004636+254018596+253808552+253627001+253701902
2398+254020905+254386889+254737678+255348159+256663385+259056966+262881695
2388+268673885+277130462+288848071+304134654+323019314+345307380+370591400
2378+398284087+427653726+457726303+487215568+514828470+539656070+561088031
2368+578503493+591253818+598995196+602110669+601469727+597551127+590056625
2358+578262952+561723854+540266049+514192181+486838506+464836834+453614160
2348+455013451+467972316+488301798+508872071+523744598+531445743+533436901
2338+532179322+529975042+528232658+527361950+526708838+524973255+521463574
2328+516581270+510771415+503701439+494879272+484653519+474010578+463460667
2318+452802119+442012025+431619934+421944956+412509230+402567616+391912111
2308+380874496+369883307+359308483+349453636+340419886+332081772+324303453
2298+317071792+310390906+304196866+298429087+293081898+288132246+283508434
2288+279221827+275459166+272420044+270073193+268156077+266424575+264855188
2278+263567559+262577671+261728511+260885365+260073145+259371602+258792550
2268+258295915+257828059+257323960+256740666+256104378+255504134+255027401
2258+254679691+254373323+254022820+253628111+253233616+252848858+252457782
2248+252081596+251780222+251577552+251409119+251168667+250799713+250333038
2238+249857683+249486956+249323356+249383133+249551601+249690306+249786684
2228+249912270+250070644+250205733+250313118+250434999+250606009+250856376
2218+251173679+251457066+251621883+251725724+251902354+252225348+252684506
2208+253222251+253751853+254189588+254512779+254792301+255152987+255669041
2198+256282689+256848104+257271163+257587643+257901008+258286411+258769176
2188+259327414+259880014+260343843+260715500+261025394+261246821+261346634
2178+261375610+261419423+261500874+261574826+261579390+261483388+261326750
2168+261201648+261137986+261030584+260760852+260368702+259992356+259686346
2158+259435353+259272254+259237390+259300567+259432149+259690462+260185451
2148+260959710+261943334+263140581+264832887+267361254+270730422+274680558
2138+279046611+283820815+289037443+294752961+300956505+307505237+314307359
2128+321421398+328885797+336660142+344709464+352926770+361064254+368871065
2118+376185627+382891390+388906063+394183542+398656819+402239127+404937411
2108+406919155+408386384+409425829+410096123+410527737+410752278+410617045
2098+410048051+409207660+408272485+407185790+405659536+403331764+399875882
2088+395022644+388686533+381082320+372466081+362874003+352439137+341717877
2078+331396265+321914794+313459703+306042983+299601439+294151322+289759782
2068+286390274+283859474+281831877+279912738+277965680+276207063+274857509
2058+273919703+273295746+272866531+272517245+272226824+272040780+271995446
2048+272179306+272731190+273736309+275259127+277412292+280314338+284106637
2038+288986865+295063302+302198299+310005038+317933445+325476520+332385992
2028+338616436+344194877+349274411+354056669+358521069+362366505+365153095
2018+366455417+366131116+364441959+361715863+358065186+353560052+348400946
2008+342789430+336809228+330535329+324171191+317999415+312206168+306808884
1998+301827822+297515837+294216182+291822762+289594840+286868797+283794685
1988+280977723+278719823+276958360+275573996+274473485+273593129+272928760
1978+272444939+272020180+271561112+271084665+270730977+270756588+271289232
1968+271968815+272129068+271529255+270604675+269884447+269539761+269547439
1958+269887812+270435741+270935472+271217911+271316293+271367731+271503250
1948+271871363+272727718+274224747+275841902+276450844+275594059+274170732
1938+273254063+273041120+273207655+273509137+273838055+274163555+274537146
1928+275107107+276182204+277934503+279882724+281342991+282467038+283748742
1918+284675953+284310130+283076677+282457964+283248635+284989748+286629151
1908+287453791+287582062+287619790+287945505+288512333+289200077+290081900
1898+291275460+292580896+293529423+294130060+295072698+296504598+297290437
1888+296486235+294792962+293435891+292726688+292353617+292078588+291811845
1878+291560261+291408706+291468501+292151054+294251225+297924023+301400754
1868+301897515+298952246+295030818+292348302+291223557+290936143+290841036
1858+290681964+290465119+290280937+290194528+290361564+291083492+292645560
1848+295339745+299226077+302950097+303681098+300643301+296715483+294553924
1838+294325535+294840891+295451568+296877615+300027218+304029382+306438659
1828+306458811+305709232+304938355+303334354+301014958+299387851+299170487
1818+299803536+300529330+301333603+302734147+304775632+306520342+306981666
1808+306390622+305928117+306623610+308805304+311897546+314508490+315459093
1798+315148860+315408085+317866938+322220195+325402282+324322030+320414705
1788+317585376+317468936+319064847+321012299+322953344+324686529+325733455
1778+326510740+328605989+333277426+339775185+344754135+345206403+342214422
1768+338524407+335739571+335096947+337210416+340503287+342359785+342685947
1758+343157830+343979572+344933181+347478013+352937759+359649500+363764900
1748+363872213+362194511+361159146+361738771+363804275+366260944+367758885
1738+369031498+372826678+379743201+384948804+383527571+378375982+373713351
1728+370529439+369117763+369674122+371578764+374701109+380466542+389833650
1718+400029943+404714016+401657354+395517471+390729808+388989930+390732028
1708+395613938+401880929+407175553+411758362+418348580+427170675+433642018
1698+434876868+432679317+427784520+421609809+417989415+418718161+422623482
1688+428748367+438112289+449921604+456728237+453334782+446274543+442297274
1678+443138882+447691695+452993192+456871344+460717246+465917694+469664337
1668+468834148+466535083+467656499+472590920+477655062+479971845+481351198
1658+485576202+495159080+510646741+527123234+532590425+528521021+527783219
1648+532861571+537273138+535052857+529608217+526699960+528130464+534082317
1638+544319059+555871153+561636121+559051987+555176912+555833604+561360573
1628+569297785+577669080+586444249+595218988+602140665+607494136+614614368
1618+625168180+635438927+640116950+640896561+642616645+646333649+650285682
1608+653136309+655154420+657010954+658795038+660331924+661758347+663520812
1598+666061026+669548800+673620746+677592395+681264655+684965552+688615692
1588+691699128+694225740+696691644+699205299+701694470+704998474+710815559
1578+719741638+728520172+731746644+730917278+732794358+739884020+748931372
1568+755701817+760944969+768068636+778817387+794332932+816842926+844519614
1558+862225801+862462763+858587760+857951758+859315826+860008957+858921654
1548+857537039+858939122+864481447+872213411+878632995+879137415+869508970
1538+855461585+846605019+843957277+842623706+838497782+833257565+830568946
1528+830887663+832655568+835494526+840143126+844973993+845855834+842286447
1518+838154223+835305458+832991968+831207740+831349988+834830317+841940025
1508+849964505+851384700+842752138+832561356+827282123+827147392+830185082
1498+832988603+832147497+828586271+827130568+830438867+836404215+839786466
1488+837478560+831885336+826779135+823790125+822753937+822855523+823852551
1478+826449966+831155623+837094196+841635411+841348910+836016772+830084141
1468+827322357+827776951+828965052+829119829+829956568+834470938+843091329
1458+851280179+851163416+843058112+835288133+831482787+830772833+831311402
1448+831143094+829307823+826896399+825608573+826013341+828059801+831839876
1438+836341001+838089291+834869835+830172339+828107194+828460059+828253022
1428+826129101+823812676+822951023+823525888+825441340+828916514+832135541
1418+831237736+825831217+819895650+816238638+814691587+813779320+812806417
1408+812468085+813280269+814145143+813649815+812341944+811963378+813230514
1398+815512934+817672292+818300777+816292688+812648276+810181727+810608974
1388+812855528+814211077+813766935+813549160+815409487+819020825+823239744
1378+827961509+833694620+839714590+843939523+845489152+845857480+846419101
1368+847003988+847531031+848779339+850606807+851263570+849817961+847839296
1358+847383914+848800243+850860019+852144552+852164167+851405604+850560417
1348+849878311+849344181+849436030+851175729+854885933+859222760+862111114
1338+862779189+862274339+862008240+862608519+863933142+865513482+866926661
1328+868049043+869270219+871343239+874649462+878708522+882679383+886170164
1318+889353539+892507921+895662159+898623034+901257890+903549688+905412378
1308+906897218+908532683+910939311+914126481+917492982+920364800+922338740
1298+923388172+923729726+923503217+922767848+921615828+919949222+917529421
1288+914697265+912457870+911381305+911089506+911033738+910775801+909384528
1278+905960540+901299555+897836765+897360551+899338429+901634881+902685315
1268+902845461+903508810+905286739+907521194+909346872+910512709+911150715
1258+911523984+912099278+913140405+914333804+915331334+916229139+916992786
1248+917079194+916391862+915797168+915900543+916009144+914998729+912798780
1238+910400886+908710225+907954454+907893245+908080308+908069212+907651845
1228+906900512+906142449+905960612+906715739+907851723+908363159+908238521
1218+908327293+908679585+908547717+908004209+908099280+909349521+911172121
1208+912958067+914943103+917606881+920697190+923526841+925980289+928488717
1198+931244488+934094112+936897490+939483450+941500774+942742281+943484307
1188+944184382+944961559+945906255+947604504+950324337+952939863+954199411
1178+955146184+958273934+963923070+969052251+970460133+968606391+966667100
1168+966594437+967993512+970099321+972574818+974612044+975574137+976143775
1158+977007647+977722111+978441372+980621133+984476090+987983552+989488866
1148+989316192+988453895+987441260+986682410+987110803+989724182+994060722
1138+998249717+1001290486+1003804498+1005843800+1006304980+1005578346
1130+1006456177+1010673880+1016149984+1019304795+1019165696+1017684507
1121+1017193689+1018709742+1021497871+1023759530+1024289078+1023328274
1113+1022020547+1021861546+1023838851+1026983497+1029080786+1029720081
1104+1030527039+1032070869+1033154163+1032974831+1031923753+1030778820
1095+1030512435+1031997418+1034854775+1037326907+1038110456+1037852948
1087+1037701321+1037248803+1036004074+1035909003+1039237706+1044793919
1078+1049230399+1051366561+1052513856+1053287024+1052654243+1050079738
1070+1046909249+1045923531+1049471011+1057238413+1065719849+1070393434
1061+1069350588+1064945249+1061221444+1059852865+1059164531+1057242207
1053+1055481604+1057473155+1063756862+1069874123+1071508800+1069383304
1044+1066523299+1063878421+1061565146+1061301052+1064549287+1069495270
1035+1071865173+1069357460+1063941921+1059203190+1057389968+1059175842
1027+1064076151+1070037061+1073741823+1072746298+1067024784+1058766708
1018+1051647622+1048797926+1050660616+1055124729+1059711333+1063523909
1010+1066838007+1069433131+1070781378+1070804788+1069264609+1065626138
1001+1059854512+1053536371+1049534726+1049477454+1052214683+1055132389
993+1056276248+1055387893+1053678834+1052888485+1053972996+1056276463
984+1058367023+1059780202+1060800783+1060696692+1058033559+1053089938
975+1048224564+1045052500+1042881545+1040274395+1036513649+1031102047
967+1024166088+1018111181+1016348072+1019125892+1022317501+1021851452
958+1017896269+1012908549+1008308702+1004647180+1002472860+1001553076
950+1000422676+997793548+993856406+989789543+986594284+984164890+981420502
940+977877962+974569663+972935845+973322142+975177244+978123657+981582438
930+983623100+982263112+978204053+974194748+971791843+970401930+969320140
920+969108950+970317240+971732352+971154552+968451972+966343085+967029916
910+969645228+972106192+973802150+975068284+975694908+975269236+973688681
900+970751574+966735397+963469192+962957398+964713706+966078419+965320929
890+963073015+960801691+959415573+959216626+959932379+960855742+961214191
880+960486984+958855528+957371260+956801264+956596016+956032821+955452659
870+955045314+953962807+952249739+951534917+952363639+953111392+952684074
860+952125245+952373661+952623151+952154454+951812685+952087804+951773812
850+950410173+949884204+951353581+952878654+952238214+950018936+948265348
840+947825859+947856571+947137096+945678243+944614206+944275516+943851132
830+943438776+944526867+947938541+952761032+957361811+960532371+962053293
820+962151514+960485265+957255930+954892971+956040123+959802300+962530581
810+962818872+962969783+964768114+966211933+964549909+960981310+959506993
800+962134117+967183190+971888274+975207884+977332879+977541204+974812137
790+970687000+968397922+969074301+970946369+971685389+970348381+967658759
780+965569059+965669714+966924751+966318530+963025265+960148723+960822452
770+964262978+967249553+968207995+967598696+965849475+963357441+961119549
760+959718111+958843644+958451190+959237816+961681456+965138447+967751038
750+968003320+966695020+965947982+966740265+968442165+969899657+970601594
740+971134865+972299842+973921777+975393086+976878285+978452254+978626932
730+975503048+969402181+963070438+959132794+958173207+959558896+962967349
720+968096387+973427808+976555057+975961866+971973966+966832830+963444494
710+963170950+965319784+968475167+971173237+972211787+971534693+969548510
700+966226538+962653643+960594153+959504917+957150764+952835915+947670295
690+942735194+938754238+936610774+936229917+935520464+932634687+929011465
680+928308312+931499562+934596385+934181523+932275808+931658204+930192836
670+923891590+914409045+909071681+908669849+907919590+905466572+904392727
660+906943609+910372465+910282333+906661474+902746882+899495855+895185730
650+890221921+887861039+888959224+890526822+890932305+891961263+894177319
640+895110848+894099859+894396885+897758590+900806661+899272781+893980734
630+888328305+883099328+878599419+876611089+877223897+877387765+874913700
620+871507251+869556005+868520031+867396432+867218461+868660777+869923689
610+868713109+866019191+865400800+868154065+871469452+872412359+870979922
600+867184670
##END=
