##TITLE=<SNM>
##JCAMP-DX=4.24
##DATA TYPE=INFRARED SPECTRUM
##DATE=3/5/2025
##SAMPLING PROCEDURE=Instrument type and / or accessory
##ORIGIN=Admin
##XUNITS=1/CM
##YUNITS=ABSORBANCE
##RESOLUTION=4
##FIRSTX=4497.3318
##LASTX=599.83466
##DELTAX=-1.4281778
##MAXY=1.7093868
##MINY=0.1839475
##XFACTOR=1
##YFACTOR=1.5919905e-09
##NPOINTS=2730
##FIRSTY=0.20303842
##XYDATA=(X++(Y..Y))
4497+127537456+127786369+128700540+129455066+129747353+129810262+129883701
4487+129984313+129979389+129861134+129941444+130394022+130703991+130214131
4477+129129288+128358242+128496855+129396041+130480294+131167755+131157150
4467+130522134+129640508+129044411+129057515+129415351+129510562+129162488
4457+128863555+129088937+129589018+129655465+129108144+128624967+128835054
4447+129486984+129824836+129384987+128195554+126672342+125499776+125145675
4437+125400007+125709657+125817841+125747453+125468841+125035179+124814487
4427+125160819+125912368+126479908+126417616+125767072+124892578+124069406
4417+123332824+122794563+122872261+123799854+124954317+125191745+124090953
4407+122470648+121472264+121538824+122359806+123273003+123529226+122721067
4397+121261363+120104606+119879281+120425161+121070230+121274551+121118313
4387+121074058+121239956+121174716+120638365+119958449+119395178+118737304
4377+117931036+117513268+117896769+118731698+119474186+120092307+120750836
4367+121303642+121488813+121210004+120412469+119062595+117414753+116052374
4357+115545601+116113739+117500931+119054021+120091568+120407789+120317876
4347+120139838+119933354+119877840+120377228+121384495+122128696+122024200
4337+121407277+120925832+120687983+120431180+120097334+119832275+119694607
4327+119638690+119583278+119350100+118823951+118308407+118344059+118998825
4317+119764592+120359407+121072991+122034065+122761129+122828484+122422153
4307+121930908+121603371+121785874+122748305+124028100+124624777+124111479
4297+123010519+122000191+121317055+121005280+121228471+122026184+122995889
4287+123523039+123352246+122805608+122435089+122515333+122884990+123234814
4277+123399299+123311848+122990254+122743429+123019804+123852205+124740599
4267+125224758+125381465+125687792+126411953+127145381+127222845+126652966
4257+126110671+125964411+125951147+125833266+125806234+126200219+127006309
4247+127723338+127810574+127429544+127369864+128010786+128846211+129275221
4237+129290787+129126386+128794459+128263537+127695370+127330337+127349768
4227+127847884+128731887+129678818+130323045+130488793+130300861+130113697
4217+130176737+130397673+130565274+130651752+130715831+130662170+130287233
4207+129643250+129310846+129935378+131290671+132293304+132271102+131671795
4197+131224299+131038838+130869711+130710084+130757792+131054610+131353009
4187+131303598+130757661+129924146+129260881+129147138+129600362+130386974
4177+131368360+132552860+133793885+134716105+135133181+135326064+135671583
4167+136158709+136464307+136337234+135767458+134972937+134313903+134025612
4157+134022814+134138017+134418895+134925069+135395909+135434080+135024090
4147+134686696+134947412+135699176+136316895+136395295+136091279+135751162
4137+135573826+135676506+136118779+136729581+137174297+137320426+137346625
4127+137438026+137566419+137591083+137440395+137226779+137190265+137375866
4117+137504071+137474681+137720542+138604751+139749405+140457280+140566306
4107+140459891+140438504+140502676+140680303+141123053+141696517+141856528
4097+141240101+140112230+138971657+138068653+137521809+137410686+137571614
4087+137762119+138057112+138672677+139481725+140081145+140302876+140423134
4077+140845845+141635349+142434747+142907178+143085010+143115534+142922416
4067+142414576+141830713+141542207+141581220+141618276+141418401+141165913
4057+141256472+141800189+142424217+142657030+142482764+142350394+142604670
4047+143152628+143776571+144426787+144983066+145101443+144640310+143962022
4037+143497425+143280692+143226067+143569245+144581856+145960652+146940728
4027+147072078+146633773+146243888+146201000+146308126+146344041+146477310
4017+146944097+147465809+147442381+146736940+145895300+145590714+146077063
4007+147048996+147930622+148440943+148816675+149346484+149853463+149856814
3997+149196666+148351666+148014226+148327246+148775856+148957694+149137080
3987+149754742+150658187+151137563+150691518+149620509+148817405+149016934
3977+150201087+151609985+152322784+151974355+150984152+150084227+149698385
3967+149811951+150270633+150983534+151815027+152466433+152635813+152296248
3957+151716222+151216179+151022163+151346724+152334811+153654003+154458829
3947+154372146+154112984+154379961+154751294+154458314+153643519+152998937
3937+152844730+153298816+154517957+156222063+157532343+157783886+157260002
3927+156796510+156848336+157085493+157020721+156892778+157347875+158336655
3917+158887234+158155650+156387820+154603658+153691789+153960695+155408971
3907+158219092+162500150+167372503+170954007+171882396+170152110+166539138
3897+162479614+159895352+160063365+162457524+164602967+164492518+163575174
3887+164399180+166537303+167649599+167764616+168313940+168267888+166241543
3878+164255877+164886222+167714876+170880549+173534862+174935917+174073928
3868+172172914+171540922+171979385+171331462+169014729+166835665+166686634
3858+169650429+176261960+184951803+189217117+184227426+175607185+169325259
3848+166687177+167119144+169589588+172986043+176681890+180529614+183668817
3838+184350980+182399534+179875831+178083282+176529227+174749520+173348129
3828+172839745+173276281+175521690+180621212+186659531+188982535+187133451
3818+185085334+183875225+181511618+177977213+175613943+176140709+179446840
3808+183327492+185496691+187123323+190506431+194122043+194342324+191876054
3798+189848155+188408706+186351791+184192289+183268318+183825935+185262165
3788+187172389+189500466+192200288+195456922+199627550+204084278+207017615
3778+207714174+207846413+209505019+213714061+220352792+227891664+234167542
3768+238709990+242729377+247121951+252530356+259904266+269223275+278498461
3758+285801309+292176741+300605869+313051763+328357687+341789403+350508769
3748+357874741+367135643+377117234+384536896+389974616+397136651+407953311
3738+422247728+438223365+452523773+462309289+467730311+470870319+473540413
3728+476884957+481298161+485841544+488905473+489949534+490021944+490772697
3718+493490116+499177938+508773332+522133239+536247755+546189696+550506940
3708+552274536+555002250+560705985+568825219+576259070+580886957+584086495
3698+587711280+591618590+595162766+599081944+604713269+611395057+615790027
3688+616247884+615455685+615901037+617580161+619349441+620561160+622214450
3678+625645406+629269892+629428564+627205545+626854429+628801813+629688849
3668+628316586+627683620+630282653+635403067+640668300+644772658+647607714
3658+648685996+648132104+649147710+655758848+668708333+683563606+691453706
3648+688866280+681419698+674088433+668417272+665401903+666488871+671685288
3638+678070586+682014550+682791287+683139033+686156424+692319775+698570587
3628+700426280+698064694+695395498+694547025+695189127+696188484+697353777
3618+700082503+705597612+712978823+719479512+722695561+722323779+719107056
3608+714065491+709501365+708300355+711620937+717416924+721814590+723547628
3598+725152021+727885090+728981492+726195632+721999021+720421585+722572083
3588+726190915+728272298+728089214+726475162+724104066+722403676+723188725
3578+726147334+729014739+730587008+731684160+733484964+735872833+736666119
3568+733326742+727298325+723418983+723540290+725384450+726530723+726643419
3558+726604406+727054364+727884940+728678899+729374166+730027275+730504864
3548+731042058+731513357+731006340+729750516+729227924+729844267+730651331
3538+731194440+731522342+731036966+729542723+728240398+728177948+728988381
3528+729985567+731153930+732532033+733822002+734742061+735186328+735337587
3518+736018401+738095067+740777217+741697200+739611924+735870812+732595232
3508+730784543+730442114+731209117+732475423+733933425+735998558+738471566
3498+739619637+738535290+737219262+737931752+739927920+741159932+741501912
3488+742173666+743459666+744552849+744718859+743372580+740187831+736046257
3478+732283130+729818808+729192656+730350236+732528214+734445009+735332270
3468+735847075+736816854+737951371+739025309+740810239+743279578+744727246
3458+744009814+741980099+740269750+740259866+742441514+745284358+745974758
3448+743282199+738777679+735072359+733752962+734451000+735326205+734961985
3438+733623119+732556744+732865177+734545050+736327509+737354048+738037633
3428+738609871+738447605+737783488+738272159+739924551+739813652+736398271
3418+732252953+730283816+730474762+731609653+733231344+734479080+733996175
3408+732436261+732297133+734611694+737725531+739460815+739465233+739219250
3398+739851842+740410676+739229583+736579557+734536888+734452273+735743440
3388+737055873+737617628+737300358+736043112+734322205+734016767+736625234
3378+740378926+741386521+738016891+732440304+728068323+727000300+729229347
3368+733071698+736778066+739662693+741340768+741233464+739455948+736956357
3358+734801291+734027325+735475816+738879142+742309350+743522791+741970215
3348+739061926+736794764+736281832+737222707+738627393+739875204+740804323
3338+741336950+741971338+743692320+746213627+747325754+745357516+741941835
3328+740145074+740335346+740132644+738312445+736182690+734599788+733076341
3318+732386989+734519291+739237371+743283996+744083347+742403475+740436884
3308+739314273+739181510+739961167+741238182+742307553+742959913+743729985
3298+744695422+744824366+743749155+743203050+744863978+747485025+748396922
3288+747557360+747318716+748510067+749492201+748776118+746814544+744963569
3278+743740469+742560574+740897026+739344450+738870680+739475566+740406483
3268+740841240+740027661+737990533+736273445+736680646+739296002+742467348
3258+744571719+745599980+746845994+748676751+749221508+746467323+741433695
3248+737641514+737484864+740214414+743130566+744059236+742849389+740955807
3238+739773367+739374403+738720994+737454612+736928576+738671423+742448927
3228+746453020+748814382+748843960+747298722+745079934+742352556+739474817
3218+737785735+738680034+741485288+743390177+742625870+740297007+738233521
3208+736995070+736637065+737412305+738720021+739196786+738614514+738109593
3198+738074100+737639193+736444622+735080297+733957087+732924782+731871211
3188+731179164+731388156+732251905+732570896+731819020+730987096+731033821
3178+731526461+730958491+728418689+725220087+724037647+725857546+728708253
3168+729970890+728925407+726405523+723441672+720830733+718685552+716634047
3158+715008164+715024937+717322500+720693103+722730081+721867306+718596969
3148+714809730+712099425+710531049+708991353+706814648+704907363+704586724
3138+705483869+705974037+705457286+704882652+705301984+706777058+708246815
3128+708348877+707065273+705820233+705382855+705304754+705596489+706843252
3118+708503057+709000114+707812657+705930457+704301953+703270172+702753196
3108+701930557+699882272+697052382+694868413+694068538+694473717+695758220
3098+697372572+698426442+698695264+699065848+700124136+700802405+699231035
3088+695175274+690876451+688816559+689310022+690951930+692656214+693971043
3078+694265998+693068956+690769970+688410032+686739145+685522334+684003231
3068+682158321+680846187+680377734+679895877+678529979+676667173+675828734
3058+677012373+678987949+679253701+677197777+674839261+673898985+673843124
3048+673533568+673216822+673663635+674417159+674266799+673057177+671678250
3038+670347096+668431425+665994209+664126012+663628654+664113057+664517862
3028+664301757+663840043+663386416+662271293+660046888+657716752+656584182
3018+656549363+656684298+656773705+657018415+656817660+655390884+653375996
3008+652230921+652120771+651812263+650570218+648925164+647730968+647479144
2998+648113308+648823551+648502838+646707499+644025124+641692442+640670995
2988+640714875+640706713+640072325+639255826+638795834+638597325+638127899
2978+637098065+635854597+634901142+634274840+633862772+633804290+633933684
2968+633482528+632050585+630287220+629107850+628771711+628934352+629039634
2958+628465674+626805345+624367531+622117292+620796884+620225844+619628746
2948+618660240+617933935+618124693+618647847+618168349+616678785+615704401
2938+615992467+616497274+616192398+615529592+615273612+614919876+613364680
2928+610772911+608565579+607420092+606564431+605408873+604394352+603618027
2918+602278599+600308302+599051992+599321600+599941649+599178316+596802877
2908+594014022+591961019+590901158+590470220+590384070+590646414+590933731
2898+590337419+588488204+586390348+585275674+585192969+585243962+584650009
2888+583301596+581668711+580333551+579503125+579021118+578661466+578158942
2878+577210392+575715849+574001044+572754506+572516348+573028757+573357745
2868+572873641+571774431+570578175+569657368+569203853+569014180+568364254
2858+566681610+564338557+562255453+560778544+559510403+558193776+557107220
2848+556403867+555649594+554381864+552796753+551569647+551107521+551139495
2838+551035111+550357778+549083684+547597190+546510223+546080895+545809640
2828+544998532+543619643+542214395+541196280+540689076+540651748+540685032
2818+540109425+538743452+537243068+536218776+535404711+534091566+532137556
2808+530226789+529141656+528941986+529008181+528793573+528187227+527227107
2798+525999401+524796219+523910868+523365138+523012936+522597910+521744458
2788+520302556+518522718+516648680+514746824+513051226+511939174+511433692
2778+511085534+510403559+509243171+507780901+506271532+504926002+503903731
2768+503231378+502738551+502177732+501385382+500339038+499206468+498319619
2758+497876325+497615703+496956791+495599766+493841531+492093929+490381933
2748+488694160+487385546+486632733+485898079+484564567+482786826+481248253
2738+480357211+479932562+479482155+478683740+477615867+476537736+475586452
2728+474706380+473712713+472481825+471226002+470391307+470077145+469744226
2718+468756326+467123253+465462812+464311710+463688590+463193816+462345943
2708+460964432+459350118+457980438+457030877+456296859+455477814+454472092
2698+453481571+452760920+452199914+451349719+449930880+448121090+446386030
2688+445152446+444489191+444101085+443759779+443492155+443230859+442754394
2678+442114763+441634778+441396470+441111138+440497116+439537371+438380128
2668+437133665+435828083+434555037+433508692+432792983+432282409+431731887
2658+430985252+430078559+429118402+428124699+427158776+426462236+426105841
2648+425613426+424421401+422723108+421412247+421106360+421535688+421938059
2638+421781446+420997521+419749260+418220834+416634000+415319283+414583918
2628+414372230+414168517+413493244+412433982+411454843+410807275+410396030
2618+410134472+410100963+410224404+410089544+409373011+408336812+407516495
2608+407039505+406585054+405872191+404925437+404013915+403434750+403201310
2598+402992992+402571227+402058818+401639412+401209372+400552594+399759870
2588+399209610+399043113+398923566+398511160+397906012+397400942+397089664
2578+396913956+396794896+396610727+396302705+395973455+395715641+395443038
2568+394979976+394249366+393396138+392729962+392444405+392455674+392599333
2558+392802147+392963103+392908290+392603788+392222309+391900359+391586235
2548+391193673+390767752+390428206+390251151+390254895+390396981+390564526
2538+390676435+390776738+390917776+391012275+390892279+390459356+389802503
2528+389244530+389112515+389361306+389644580+389766186+389727285+389420949
2518+388748184+387965793+387498425+387440880+387515723+387444549+387174230
2508+386823751+386572938+386552570+386700535+386750443+386506519+386072174
2498+385634796+385171322+384636599+384248980+384241267+384491481+384700959
2488+384771197+384749257+384594629+384249691+383798086+383356402+382899031
2478+382348771+381805586+381516547+381529651+381533732+381228706+380716522
2468+380322950+380211415+380376564+380764745+381175690+381323580+381193400
2458+381046259+380972614+380784888+380397343+379955548+379576127+379257847
2448+378999060+378765469+378452581+378070203+377830959+377889853+378095025
2438+378109028+377748291+377187884+376798654+376692661+376547242+376066396
2428+375402093+374841237+374390305+374011072+373895045+374139717+374494651
2418+374708660+374822591+374973214+375182430+375381388+375451252+375283294
2408+374912223+374543773+374400152+374514607+374670509+374647108+374541527
2398+374649879+375001406+375293066+375310177+375107287+374765233+374280231
2388+373712224+373172297+372606274+371744173+370294521+368121035+365277592
2378+361975992+358508643+355100712+351799337+348556930+345414900+342546072
2368+340161161+338465713+337594440+337443930+337747234+338454369+339913456
2358+342631062+346876046+352521823+359278641+366719269+373809943+379014036
2348+381209836+380506856+378394586+376514782+374936372+372648918+369291382
2338+365348317+361352573+357546726+354004684+350817165+348240858+346671547
2328+346306691+346748787+347116451+346814382+346178084+346071528+346845832
2318+347995212+348857613+349360287+349936081+350913499+352214737+353568692
2308+354788011+355808447+356591923+357093886+357352935+357529728+357756617
2298+358016191+358238848+358417850+358583112+358772822+359010830+359216977
2288+359248202+359119332+359038274+359141197+359325554+359402044+359319002
2278+359183992+359100912+359033968+358842985+358438517+357902709+357437887
2268+357171237+357062623+357038249+357091040+357187711+357258773+357343313
2258+357547887+357827005+357998369+357978675+357845425+357702441+357618612
2248+357637893+357730895+357784210+357729884+357660358+357757927+358100693
2238+358553122+358892856+359066729+359219785+359439372+359661917+359884014
2228+360201171+360564828+360781570+360796172+360720543+360627429+360542477
2218+360532106+360621775+360752929+360913398+361169153+361539737+361967306
2208+362402175+362830080+363248925+363681848+364180778+364778962+365464868
2198+366186868+366819684+367196484+367314907+367422885+367746744+368251964
2188+368779198+369249524+369651146+370014430+370442784+370991622+371538962
2178+371926245+372179005+372487813+373031633+373861461+374885791+375963548
2168+377045386+378176945+379377993+380641005+382039813+383678913+385546624
2158+387593299+389939722+392813566+396229846+399843886+403187944+406049470
2148+408560668+410901287+413052946+414947126+416676907+418432334+420375936
2138+422620035+425173727+427931095+430794381+433712779+436628782+439538869
2128+442505004+445482146+448296161+450825068+452971035+454471381+454986897
2118+454382760+452802329+450524272+447864923+445154506+442616089+440200065
2108+437662397+434837412+431694708+428209201+424438698+420656776+417156929
2098+413995506+411050862+408200492+405380449+402610951+400000462+397656847
2088+395600100+393761219+392023501+390303904+388656979+387282657+386368327
2078+385876922+385505252+384933089+384133289+383344309+382746949+382324697
2068+382043520+381939024+381959466+381937264+381780876+381489964+380996988
2058+380260462+379484024+378971915+378804857+378849336+378990823+379179747
2048+379333177+379366424+379341227+379447782+379737795+379983441+379987971
2038+379944915+380237586+380937645+381751111+382452181+383141083+383984239
2028+384855026+385408619+385458077+385086632+384444156+383658396+382884954
2018+382188077+381410666+380384015+379213069+378162231+377323193+376546082
2008+375673685+374737602+373890327+373203447+372643751+372245873+372111724
1998+372166312+372169532+372060244+371961364+371780490+371231315+370338251
1988+369480119+368914133+368589526+368347586+368080974+367787180+367545278
1978+367360996+367126582+366819385+366557564+366437119+366525665+366890783
1968+367342651+367383872+366791529+365966868+365387479+365100724+364969758
1958+364980428+365071708+365028838+364736729+364308636+363906115+363614942
1948+363540323+363907164+364847215+365934557+366242130+365339481+363897242
1938+362829182+362369827+362228377+362157652+362153309+362277686+362436657
1928+362502066+362683839+363330508+364258429+364934976+365361196+365844102
1918+366038005+365349290+364127163+363333615+363361284+363802855+363992153
1908+363597382+362876020+362319507+362065474+361883439+361681149+361718440
1898+362239422+363023984+363517972+363583155+363753396+364326121+364707563
1888+364261986+363294677+362513186+362166263+362096849+362095801+362046342
1878+361990593+362034436+362225494+362829556+364468881+367288212+369912517
1868+370221138+367963711+365117647+363353721+362819709+362921847+363194150
1858+363415834+363480606+363403254+363334551+363520667+364166887+365372803
1848+367328536+370105747+372658728+372918152+370505422+367639814+366170244
1838+366074547+366418623+366755886+367690471+369955611+372936872+374839252
1828+375012863+374494464+373755804+372340784+370554244+369469785+369476637
1818+370026523+370566974+371216414+372437455+374176933+375600938+375982493
1808+375609624+375399210+376082982+377937851+380592969+382896672+383753569
1798+383517208+383891986+386271244+390230221+393169699+392743104+390219776
1788+388653347+389250445+391153912+393263225+395339553+397290194+398715397
1778+399886119+402139989+406618301+412662892+417350571+418202488+416298198
1768+414055934+412833321+413534316+416478511+420274436+422771144+423828234
1758+424753871+425827098+427044732+429578806+434347168+439962468+443507918
1748+444020251+443227789+442957133+443969482+446217886+448865291+450860524
1738+452796301+456765762+463083704+467954840+467805528+464982266+462639849
1728+461461452+461685346+463536470+466603020+470793566+477127458+486130584
1718+495388116+500109528+499093885+496112287+494377489+494950027+498010324
1708+503266721+509465379+514986292+520210865+527295136+536259249+543153847
1698+545646512+545737492+544510872+542734928+542830326+546123801+551747862
1688+558901848+568527943+580495368+589389730+590592500+588435114+588310737
1678+591948364+598724726+606338928+612747214+618674092+625264638+630643053
1668+632546669+633304387+636646535+642775441+648719093+652449572+655620244
1658+660951147+669912264+682705699+696248913+702977464+703455277+705781444
1648+711712067+716982167+717566012+715657454+715134936+717261772+722279824
1638+730105900+738287061+741257876+737537505+732800630+731077776+731942872
1628+733143209+733476278+733442282+732913925+730758485+727787071+726352582
1618+726420125+724579858+718816743+712080030+707232931+704203260+701673941
1608+698783473+695727070+693090222+690896519+688674510+686345872+684538028
1598+683846356+684116001+684546864+684288676+682947039+680800211+678614744
1588+677040154+676109462+675403263+674584293+673859149+674211237+676880658
1578+681919826+686662018+687502928+685842374+686220222+689826250+693862766
1568+695686334+696685018+699361926+704546887+713055875+726772663+744528063
1558+756140255+756683440+755136330+757188135+762925865+770723113+778731224
1548+786106818+794095610+804525811+817247285+829901067+838354044+837761514
1538+830736885+825703857+825811835+828574332+829921734+829482335+830492475
1528+834794368+841231259+847835882+854420063+861387857+867264416+870279710
1518+870701513+869242164+866670687+864914511+866154685+871462225+880412260
1508+890126602+894039865+889209239+882964942+880963606+883170489+887447747
1498+890933741+891364679+889558483+888917729+891542071+896386625+899958731
1488+899639814+896839203+894751381+894983211+896886153+898703507+899789950
1478+901526507+905413637+910801375+914568470+913531149+908831564+905343998
1468+905926494+909500024+912506332+912642315+912296142+915489128+923255375
1458+931668665+933131159+926687604+919681696+916156614+915561088+915879032
1448+915255201+913191266+910666440+908924566+908808651+910785725+914599621
1438+918804020+921051188+920363634+918778635+918485103+919536278+920651101
1428+921153700+921708266+922907330+924504384+926416836+928981798+931272771
1418+930709070+926445291+920714525+916055675+913801618+913929139+915423308
1408+917026802+917536740+916162155+913656574+912102126+912674215+914627327
1398+916344490+916535660+914484979+910518476+906529958+904488711+904471189
1388+904539780+902725946+899645955+897672176+897782100+899210973+901401756
1378+904711032+909092673+913048244+914823289+914853391+915416943+917441416
1368+919643057+921152277+922995015+925865789+928366653+928927959+928146205
1358+927762516+928669321+930430963+931951415+932619799+932936395+933907447
1348+935820573+937758784+938730959+939295410+941020211+944024123+946408173
1338+946885312+946361073+945924669+945421695+944680377+944398900+945334310
1328+947471328+950035392+952038000+953190638+954283596+956017308+957670972
1318+957973490+957148005+956540574+956467565+956136592+955481986+955471128
1308+956541322+957966676+958880070+959099919+958941397+958701629+958315769
1298+957455540+955995367+954218375+952664152+951672433+950721598+948651597
1288+945225134+941763176+939443748+937862344+935981042+933647836+931380075
1278+929211906+926547578+923079630+919509920+917037885+916016737+915586847
1268+914831376+913593749+911942256+909680711+906804096+903865554+901398761
1258+899168516+896540654+893626224+891373515+890419835+890532979+891063209
1248+891315257+890951263+890493218+890613776+890988029+890995292+891092937
1238+892118952+893801220+895160079+895816483+896203616+897026480+898720280
1228+901070859+903395004+905092624+905927842+906126201+906319768+907027165
1218+908334731+910173875+912197674+913526207+913665934+913486595+914424849
1208+917065590+920938642+925034165+928256579+930056036+930813004+931259143
1198+931884621+933078518+935118043+937798171+940600654+943392504+946436328
1188+949622724+952219136+953657444+954322309+955183212+956638293+957997227
1178+958348118+958003741+958622705+961259328+964844314+967553870+969150925
1168+970731056+972724828+974478458+975332472+975097646+973960733+972713596
1158+972656912+974775660+978987921+983977968+988009467+990282319+991174522
1148+991423650+991683187+992547235+994100259+995744189+997111884+998725562
1138+1001279891+1004318698+1006380536+1006816192+1006506036+1006414981
1130+1006708214+1007657626+1009778995+1012787325+1015832347+1018135301
1121+1018784516+1017868951+1017580960+1019490716+1021781465+1021864957
1113+1020643653+1021403093+1025345260+1030174163+1032826211+1033026442
1104+1033170363+1034639671+1036051845+1035681036+1034135799+1033670191
1095+1035986175+1041078958+1047018715+1050935198+1051149057+1048685035
1087+1046422591+1046560146+1049345632+1053584850+1057743497+1060369262
1078+1060426620+1058853153+1058482194+1060355783+1061940932+1061249484
1070+1060102687+1060607981+1061256298+1059239762+1055147160+1052510238
1061+1053647301+1057579284+1061167490+1062245097+1061924308+1063130860
1053+1066870625+1070739259+1071811175+1070364706+1069045234+1068885962
1044+1068599319+1067498050+1066473533+1066106168+1065950940+1065715815
1035+1065778341+1066334404+1066309169+1064085963+1060494612+1059072479
1027+1061673084+1065992574+1069126928+1071233845+1073208673+1073741823
1018+1071222688+1067054157+1064795382+1065902642+1067823930+1067100284
1010+1063801416+1061043412+1060738798+1061652941+1061089164+1057729344
1001+1053064280+1049935467+1049679000+1051110419+1052317270+1052569094
993+1051944964+1050430727+1048362599+1046596314+1045389238+1043990317
984+1041834803+1039498377+1037774549+1036446915+1034796471+1032612277
975+1029995648+1026941266+1023605782+1020279284+1016681793+1012331002
967+1007693344+1003785697+1000724651+997576893+993893064+990556457+988509969
957+987080498+984399396+979868068+975322288+972776346+971514532+968742750
947+963616795+959090559+958318165+960711650+963008614+963326707+962386281
937+961306577+960346607+959684213+959660326+959845731+959162370+957546370
927+956364230+956760198+958375000+959700986+959506297+957985545+956415298
917+955536723+954596896+952749965+950956798+951043809+953097262+955048352
907+954878672+952515139+949608198+948163001+949006157+950727663+950882891
897+948878635+946526410+945462655+945421096+945185147+944255130+943332825
887+943172505+943144050+941822632+939359582+937804835+938441920+940120894
877+940772356+939772025+938094698+936746772+935867373+935056116+934022239
867+932758928+931478618+930544632+930303217+931035025+932680752+934284846
857+934564974+933523010+932573373+932906892+934226663+934984980+934051592
847+932134348+930781479+930408349+930502399+931010764+931894206+932014614
837+930318792+927733463+926510437+927874613+930907204+933609198+934758915
827+934674000+934488296+934985579+935864753+936071423+935312283+934647043
817+935081127+936694655+939251530+942295877+945027598+947413221+950115814
807+952473581+952322696+948937866+944710479+942655304+943107733+943811237
797+943020048+941327446+940265788+940571975+941801590+943005971+943876233
787+945110342+947083147+948672040+948685818+947537748+946176342+944804155
777+943723252+943648447+944342515+944480670+943591462+942757442+942892676
767+943926329+945336406+946204498+945503540+943449489+941813871+941962958
757+943438706+944697899+944379506+942145292+939239099+938081220+940427905
747+945313268+949133155+948966321+946012354+944198670+945645813+948825320
737+951090310+952181921+953985646+957172267+959725622+959566351+957334758
727+954908175+953161135+952348380+952614955+953190263+952725479+951061856
717+949410138+948936967+949810001+951562433+953704993+954879945+952230967
707+944166845+934266650+928886849+930131515+933844098+934974122+932684421
697+928551683+923499486+918798553+916807627+918629772+922493464+925193361
687+924055475+918537295+911008719+905015646+901900536+899755655+896889673
677+894442274+894202506+895639091+896035659+892783667+885537242+878572218
667+878400292+883166820+886052121+885407548+884039329+884323951+885929167
657+887496719+888139794+887483465+885756567+883492027+880894192+878041389
647+875329811+872904951+870136463+867053402+864935702+863907217+861867018
637+857003595+851535360+849834596+851218166+849551248+842226647+833873635
627+830011441+831920449+836353383+837911125+833546931+826145428+821863677
617+824815922+834843939+846996395+854228368+854085795+850703961+848445710
607+847879088+847553582+845361975+840013624+832910970+825797832
##END=
