##TITLE=<SNM>
##JCAMP-DX=4.24
##DATA TYPE=INFRARED SPECTRUM
##DATE=2/5/2025
##SAMPLING PROCEDURE=Instrument type and / or accessory
##ORIGIN=Admin
##XUNITS=1/CM
##YUNITS=ABSORBANCE
##RESOLUTION=4
##FIRSTX=4497.3318
##LASTX=599.83466
##DELTAX=-1.4281778
##MAXY=1.836623
##MINY=0.39472169
##XFACTOR=1
##YFACTOR=1.7104884e-09
##NPOINTS=2730
##FIRSTY=0.41347668
##XYDATA=(X++(Y..Y))
4497+241730181+242428053+242700257+242285026+241464877+240741759+240386358
4487+240298510+240322258+240665741+241659025+243020567+243873297+243722743
4477+243055536+242727699+242998056+243421111+243557918+243446270+243327043
4467+243193859+242944462+242842815+243337357+244313113+244886374+244311702
4457+242951135+241901644+241620763+241499166+241028825+240594671+240615858
4447+240687241+240248331+239494095+239093986+239485261+240613663+242029461
4437+243282265+244151774+244435756+243962940+242907786+241673538+240539509
4427+239688155+239150438+238691718+238355396+238761498+240198797+242079675
4417+243770465+245024680+245441950+244744200+243527079+242665010+242379564
4407+242486805+242811313+242996924+242646663+241879220+241260728+241077749
4397+240995372+240490950+239535370+238739301+238633402+238951725+238967737
4387+238416273+237694775+237234626+237017358+236765591+236456067+236502238
4377+237341849+238762718+239759957+239438445+238109972+237010946+236874870
4367+237325401+237697981+237774608+237521448+236747785+235415897+233966123
4357+232971985+232585014+232532222+232574090+232748549+233193052+233894217
4347+234621900+235050234+234995438+234684241+234669745+235249609+236084777
4337+236563917+236388900+235696865+234854205+234305250+234321593+234602561
4327+234424181+233508901+232382800+231581625+231068126+230765483+230976253
4317+231819104+232797648+233294473+233192616+232845754+232638957+232629356
4307+232623032+232678142+233165645+234080925+234847009+235197060+235548453
4297+236063032+236187905+235609469+234881647+234662148+234967874+235460587
4287+235862002+235954398+235688763+235327596+235095448+234888860+234628033
4277+234475040+234469116+234437998+234398429+234568759+234950085+235318710
4267+235614679+236033204+236680357+237270919+237369744+236980577+236589686
4257+236544316+236798818+237186329+237402151+237014134+236116365+235542738
4247+235843203+236447041+236385258+235649038+235285693+236003567+237151569
4237+237580008+237128814+236496959+236052840+235646285+235269994+235214658
4227+235722494+236673893+237420811+237179255+235999350+234977928+234991797
4217+235587673+235769415+235502874+235533713+235947342+235984575+235320870
4207+234579161+234442702+234971864+235770164+236363810+236605315+236852063
4197+237420167+237902426+237628235+236784095+236327570+236721458+237365823
4187+237383543+236614932+235743141+235510871+235860975+236106277+235952447
4177+235766523+235812294+236023133+236515201+237440151+238382855+238695150
4167+238317953+237701012+237180022+236768745+236388534+236153738+236372086
4157+237158817+238151962+238824048+238958137+238667482+238191774+237854442
4147+237881204+238009074+237669720+236855826+236345917+236739578+237766123
4137+238749267+239212186+238937125+238016426+236972632+236446066+236665390
4127+237275240+237666776+237536467+237130696+236870305+236828176+236725500
4117+236379840+236011181+236008794+236431012+236936688+237254733+237413267
4107+237500645+237631947+238085109+238932107+239613618+239438584+238487691
4097+237560407+237228092+237293360+237205895+236709994+236020241+235590757
4087+235732042+236279813+236713774+236752367+236668997+236888425+237455518
4077+238112132+238775506+239575287+240360973+240545851+239746140+238397961
4067+237388369+237140087+237313484+237378821+237232692+237193960+237543436
4057+238144313+238493545+238241692+237740929+237780341+238519698+239100607
4047+238765192+237901746+237429784+237602972+237936680+237961665+237671759
4037+237368193+237280798+237420585+237716676+238040697+238115669+237826634
4027+237642331+238234200+239614699+241047798+241807227+241707374+241046213
4017+240361217+240058069+240040437+239869096+239414714+239080048+239182706
4007+239520857+239854565+240373012+241245483+242036587+242018885+241048565
3997+239923422+239686395+240514907+241584192+242175486+242381725+242540207
3987+242686110+242762389+242744025+242507138+242119365+242101506+242856509
3977+243998745+244666736+244441993+243722900+243186506+243037781+242967130
3967+242845690+243089476+244024984+245220500+245968952+246167055+246075983
3957+245651692+244940020+244635670+245468747+247438641+249822860+251394528
3947+251193114+249838053+249069147+249524156+250155959+250156934+250011589
3937+250311601+251069758+252191399+253439847+254109789+253742733+252934223
3927+252637522+253014806+253408502+253387420+253484171+254509845+256244019
3917+257160832+256007864+253468769+251163965+249766723+249200623+250001780
3907+253365275+259536148+266638575+271675019+272872800+270255927+264923305
3897+259210716+255849818+256092193+258866502+261268598+261294210+260604893
3887+261880434+264768674+266649831+267164532+267952186+268107358+265587760
3878+262006352+260669411+262324257+265582306+269282855+272356147+273313574
3868+272544632+272022962+271967155+270755679+268036375+265531186+264768500
3858+266458837+271455451+279761286+286431981+284598390+276806820+269398580
3848+265341168+265194011+268176842+272630912+277033880+280725003+283249636
3838+283805282+282304371+279880217+277513317+275389959+273588531+272522714
3828+272416484+273147687+275207572+279427491+284402361+286345039+284853484
3818+283357643+282460867+279872603+275661797+272522226+272488843+275798936
3808+280413962+283337589+284649684+286712235+289338829+289979902+288811200
3798+288083552+287932683+287419829+286915059+287316544+288765098+291175836
3788+294683665+298874871+302663250+305930777+310201886+316431197+323069398
3778+327986457+331675210+336447168+343954582+354368721+366301021+377684348
3768+387950704+397848626+407059201+414687567+421490104+428836352+435957805
3758+440573651+442696608+445410214+451724272+461266586+469393989+473020053
3748+475697384+481804733+490911952+497799863+500636722+504094303+512039772
3738+524717928+539129910+550814660+557518930+560377951+562156345+565592530
3728+571886098+579343995+584561048+586244451+585642233+583826587+581524310
3718+579987472+580308165+583052680+587988661+592333609+591651801+585949998
3708+579786755+576322554+576072077+578066555+579965449+579607435+577515282
3698+575824039+576223241+579583461+585915360+593869297+600075331+600276884
3688+594795310+589301331+587668003+590249227+595479627+600682916+604033413
3678+606210905+608439691+609519238+608027735+605470137+603283515+600249146
3668+594859706+588366607+583542344+581834967+582045022+582106909+581630313
3658+581164658+580587355+580548954+583374105+590510646+599860258+604819900
3648+600352849+590377532+581611914+576428244+573539603+571387305+570008565
3638+570051253+571197948+572362033+573357251+575588197+579817455+583234823
3628+582051399+578229358+576531703+578843424+584409396+590947343+595426799
3618+596805260+597267534+598701819+600626534+602175464+604020589+606686143
3608+608597755+608239742+607189815+608530641+612993510+617801639+619994115
3598+620174133+620768476+622358594+623817898+625056206+627249797+629969223
3588+630459723+627626907+624417259+624002237+626820000+631145504+634818680
3578+636979934+638081503+638281174+637508765+636907104+638181931+641088971
3568+642728850+641068272+638331005+637667874+639082227+640400681+639911924
3558+637665366+635128814+634331664+636390399+640177385+643742955+646573750
3548+648409676+647500808+642918694+637122108+633476251+632663141+633150993
3538+633763944+634389998+634731006+633812869+631174844+627728450+625204025
3528+625033974+626921264+628505876+627578958+624811931+623217631+624851517
3518+628989059+633074609+635161640+635171745+633659404+630497497+625736550
3508+621055542+618631824+618664928+619233345+618767725+617702187+617205832
3498+617651520+618615167+619431204+619863650+620389972+621284971+621903637
3488+621851158+622055917+623072112+623202647+620387254+615659063+612410457
3478+612298391+613577957+613532377+611649548+609585168+608892418+609527253
3468+610288580+610340850+609826794+608975074+607702338+606437129+605959731
3458+605976667+605388735+604143389+603247414+602952333+602503300+601798006
3448+601663568+602133996+601895785+599824645+596202554+592492370+590183925
3438+589562541+589557802+589171423+588580495+588117802+587346787+586072588
3428+585018967+584621472+584289803+583668523+583474358+584328796+585933829
3418+587740344+589185431+589281120+587230051+583567747+579983464+578065021
3408+578305463+579693785+580473337+579999563+579313400+579333053+579678034
3398+579810242+579851535+579669915+578660061+577074368+576210975+576705030
3388+577474825+577083882+575597083+574224163+573704322+573788651+573773388
3378+573116844+571978268+571086161+570680442+570066027+568630593+566715077
3368+565172176+564615955+565091158+566142165+567270636+568190411+568615679
3358+568417227+568085767+568288400+568872846+568984704+568146853+566591546
3348+564801896+563260040+562301795+561862798+561548551+561187576+561318634
3338+562646706+564658085+565376621+563643597+561094152+560303031+561646540
3328+563204669+563235822+561720868+559822810+558706082+558596664+558805430
3318+558954608+559533235+560678677+561474746+561412162+561404984+562264788
3308+563279973+563176897+561756829+559949896+558770583+558630221+559254254
3298+559851907+559535814+558196521+556870435+556659404+557594442+558956316
3288+560208004+561213223+561910328+562190077+562149237+562261686+562915722
3278+563717506+563838668+563255859+562829790+563008135+563361200+563317746
3268+562622418+561299259+559875080+559184491+559332310+559550310+559426152
3258+559470721+560009901+560394259+559989516+559212194+558895299+559277287
3248+560099039+561011914+561517050+561186635+560286688+559552471+559233206
3238+558913698+558263810+557463349+556901727+556869808+557384387+557854363
3228+557199840+554891882+551643032+548774881+547303067+547594071+549150876
3218+550601677+550678828+549385498+547645504+546105216+544890395+544077355
3208+543689408+543467506+543159009+542875706+542826851+542801065+542272408
3198+541191467+540273713+540021494+539853150+538887273+537239902+535836456
3188+535221833+535114226+534977942+534589611+533958993+533038870+531820529
3178+530561383+529526928+528570251+527304449+525661782+524119613+523291031
3168+523181683+523111815+522758785+522664908+523050276+523044248+521905880
3158+520043889+518168133+516483859+515130070+514443279+514556566+515218197
3148+515870246+515782607+514599357+512872013+511663220+511454071+511546450
3138+510638592+508146610+504945082+502607295+501973576+502618446+503493234
3128+503727891+503029113+501808194+500933301+500975535+501547019+501651280
3118+500867615+499880935+499536407+499731339+499771343+499494068+499247111
3108+498942796+498069158+496625813+495280701+494559516+494333397+494122958
3098+493604894+492741188+491612194+490325693+489066652+488152766+488034601
3088+488927789+490171428+490453267+489273885+487686659+487031613+487514098
3078+488346931+488734216+488396901+487453953+486178813+484919702+484030174
3068+483668571+483688817+483717217+483209398+481750546+479664248+477877072
3058+476903041+476519171+476463660+476659951+476828225+476690059+476422890
3048+476320755+476262387+475893257+475041502+473769638+472279564+470934556
3038+470216055+470324881+470727846+470458866+469157521+467492865+466295607
3028+465728166+465587177+465840302+466340699+466441789+465604530+464227882
3018+463249843+463028219+463081952+462772445+461836223+460401834+458870397
3008+457743494+457316066+457433324+457585639+457340842+456706460+456020470
2998+455531329+455162269+454620440+453666864+452360571+451065707+450112270
2988+449473324+448910656+448350742+447915613+447693779+447676147+447762009
2978+447702630+447266560+446529974+445757112+445081820+444535531+444070956
2968+443371969+442206665+441132589+441077602+442028948+442820766+442383581
2958+440788480+439003430+437879175+437418364+437068783+436633097+436327248
2948+435955157+434965619+433485929+432378889+432128133+432361326+432424294
2938+431895532+430706811+429184016+427839427+426956798+426495290+426315273
2928+426245336+425973672+425206246+424082444+423171102+422785107+422504313
2918+421770479+420784426+420271798+420462026+420814185+420685741+419884862
2908+418631083+417358242+416582976+416605068+417174984+417675311+417717301
2898+417366466+416824915+416196423+415498725+414612054+413378660+411981348
2888+410900616+410325021+410014433+409828318+409905294+410222363+410402380
2878+410093082+409345205+408557011+408109929+408081947+408265484+408356155
2868+408082609+407332781+406288882+405322448+404671026+404261962+403820456
2858+403150078+402432483+402094227+402149355+402014568+401302513+400335521
2848+399557990+399065538+398908729+399117390+399324971+399090802+398553956
2838+398134264+397810504+397233759+396314402+395316292+394516389+393926680
2828+393289407+392398659+391447800+390899873+390981100+391407169+391602101
2818+391162477+390165238+389041506+388177938+387670468+387336533+386868265
2808+386121399+385360768+385057428+385344181+385780982+385742094+385020630
2798+383998093+383197772+382740759+382323158+381660272+380799666+380021647
2788+379557909+379407650+379380505+379298999+379078943+378584087+377633019
2778+376347425+375230871+374595131+374132821+373414703+372565493+371994357
2768+371685547+371277773+370716882+370313603+370161358+369928932+369323856
2758+368505763+367917275+367806428+368001917+368116841+367875877+367236547
2748+366352420+365499167+364887087+364440737+363857197+362938711+361808881
2738+360826347+360326613+360312082+360357068+360026584+359387254+358854136
2728+358615158+358491139+358266031+357880070+357337370+356607787+355672575
2718+354656414+353807204+353232270+352794214+352379888+352057070+351875275
2708+351758574+351633789+351476108+351276054+351058855+350814511+350415204
2698+349760646+348928545+348094388+347453595+347184649+347245387+347262949
2688+346846359+345977390+345002174+344305939+344017933+343980298+343972249
2678+343892241+343695288+343305913+342700454+341997842+341411201+341100857
2668+341024299+340963318+340762636+340445881+340053369+339564681+339043098
2658+338644105+338430042+338326722+338221590+337986968+337530339+336931744
2648+336400648+336054134+335845751+335641655+335279181+334725051+334222982
2638+334018676+333955848+333689341+333239716+332935331+332858425+332762980
2628+332517660+332269413+332122675+331930496+331536172+331045079+330646226
2618+330270301+329714045+329063564+328679520+328729734+328974462+329043632
2608+328782736+328316593+327861776+327509024+327198088+326860251+326504746
2598+326193601+325998321+325907302+325742582+325316583+324718825+324279619
2588+324188600+324288156+324302060+324125771+323790582+323303427+322728320
2578+322311520+322227888+322224926+321860117+321141512+320585012+320548841
2568+320830680+321015262+320937833+320673731+320313906+319925018+319566656
2558+319213277+318800833+318421215+318285383+318418915+318580742+318534187
2548+318227677+317725154+317173289+316807226+316771996+316934834+317026411
2538+316928492+316682719+316310802+315844102+315469780+315405349+315630632
2528+315921880+316127962+316276583+316443045+316608427+316652995+316485139
2518+316145838+315744023+315365380+315087026+314938684+314841915+314778494
2508+314921086+315315967+315593625+315337189+314622834+313909142+313511543
2498+313408432+313452269+313540535+313586393+313526527+313422545+313399825
2488+313460632+313520185+313576183+313641555+313620508+313462026+313286643
2478+313192104+313097252+312888312+312573090+312245950+312013315+311941078
2468+311998853+312082450+312115554+312066595+311882640+311530585+311124483
2458+310890977+310943490+311135878+311179959+310914498+310477417+310188505
2448+310204499+310327786+310254783+309962211+309704974+309678421+309837669
2438+310013017+310071908+310019812+310022740+310240252+310586592+310786681
2428+310698693+310451073+310276980+310329006+310588857+310873693+311016947
2418+311039179+311044545+311060923+311095352+311175568+311243240+311185918
2408+311018166+310880488+310874180+310994436+311156472+311243728+311205536
2398+311099045+310986212+310885575+310861496+311005482+311264671+311413745
2388+311242474+310675485+309664168+307983205+305193250+300934477+295308429
2378+288855717+282139094+275465837+268949042+262623728+256518645+250782970
2368+245717360+241603096+238524315+236367800+235069539+234934875+236590853
2358+240500289+246654872+254970465+265672594+278262797+290124689+297612031
2348+298679625+294327708+288167061+283753152+281710812+280590721+279480109
2338+278418700+277473923+276426853+275200167+274208155+274035020+274798735
2328+276010837+277031824+277627021+278214151+279482305+281621971+284112716
2318+286329062+288103623+289697627+291465324+293542301+295729271+297712285
2308+299410044+300980126+302466506+303649094+304359371+304758190+305123661
2298+305521225+305851641+306083335+306289557+306546133+306878255+307271743
2288+307716001+308193957+308576050+308617552+308197546+307513822+306933487
2278+306661161+306594465+306476335+306163239+305745812+305407068+305192483
2268+305002047+304810878+304748224+304889074+305115716+305268518+305300019
2258+305234822+305110350+304985390+304927684+304975006+305082577+305114183
2248+305002674+304910644+305051459+305376682+305627298+305641864+305465750
2238+305246216+305134185+305214750+305465994+305793168+306084520+306258474
2228+306322627+306351758+306371726+306336078+306235894+306135326+306062985
2218+305960850+305798360+305662912+305654967+305735845+305789335+305801218
2208+305832893+305835088+305682147+305422714+305291308+305404385+305628657
2198+305797245+305870667+305859237+305786268+305751457+305848156+306015942
2188+306105393+306056260+305932729+305852094+305907744+306076575+306221990
2178+306279556+306369286+306606696+306881740+306975373+306855988+306709040
2168+306677887+306726429+306781730+306845290+306891845+306821246+306633702
2158+306522716+306669420+307019941+307348997+307493680+307483401+307477756
2148+307608221+307877655+308183886+308393558+308412236+308265183+308115587
2138+308120814+308265497+308389655+308378400+308291771+308300657+308489456
2128+308746136+308901830+308942670+308999714+309163667+309402993+309651658
2118+309904470+310205266+310559899+310889025+311098871+311200728+311325548
2108+311589650+311956097+312280344+312512248+312772203+313166457+313622041
2098+313985038+314193420+314285485+314346048+314488431+314764346+315062354
2088+315209755+315173201+315063225+315005938+315097375+315385521+315803645
2078+316178699+316355336+316315576+316203126+316196366+316314322+316449004
2068+316612190+316914937+317253297+317325708+317076277+316835208+316910407
2058+317249325+317573293+317694629+317628142+317503147+317472064+317642045
2048+317984204+318339186+318591963+318772642+318922448+318989248+318957224
2038+318964333+319164283+319513236+319793472+319861423+319792671+319747022
2028+319794796+319925157+320107509+320301605+320532185+320938879+321560751
2018+322096029+322142862+321717421+321258108+321076732+321095758+321150641
2008+321249257+321435512+321642535+321803736+321953646+322125718+322236460
1998+322207677+322247646+322808014+323996247+325166638+325511410+325014951
1988+324346211+323971680+323839681+323741274+323599693+323470307+323465568
1978+323651057+323943872+324168389+324255749+324376667+324839359+325752548
1968+326738288+327157980+326790035+326066481+325514163+325299752+325400180
1958+325804783+326362398+326753934+326817320+326724245+326754910+327033717
1948+327570494+328471870+329830258+331212517+331670018+330823386+329481967
1938+328617668+328376181+328394789+328479397+328678057+329007566+329342964
1928+329635954+330202977+331387726+332848981+333893577+334592007+335431042
1918+335951929+335226597+333635991+332578677+332727611+333596371+334333375
1908+334493914+334247723+334013589+333940515+333883785+333811165+333965709
1898+334589498+335559138+336404655+336940282+337620487+338703518+339484743
1888+339197085+338208941+337400012+337098276+337185985+337499290+337831308
1878+338026031+338167090+338531968+339595764+341973380+345667743+349113720
1868+349963314+347884159+345055733+343398082+343072998+343285911+343446170
1858+343481958+343553393+343765330+344127699+344752986+345887625+347672989
1848+350177063+353397164+356397175+357051802+354647494+351358152+349401762
1838+349133687+349761343+350700319+352263989+354985157+358228431+360238486
1828+360447565+360072442+359642400+358443051+356570989+355318151+355359792
1818+356027871+356437771+356723966+357726153+359607484+361317753+361754207
1808+361133520+360728881+361712460+364371428+367736107+370005594+370177353
1798+369236496+369143455+371119709+374699705+377381183+376630797+373495931
1788+371253241+371403917+372956680+374459578+375687222+376842386+377604062
1778+378073480+379434900+382786373+387630324+391531676+392391898+390869347
1768+388480302+386080907+384949439+386212766+388864485+390507989+390729334
1758+390868198+391201366+391724029+393853363+398609675+404060898+406576297
1748+405429566+403163250+401814061+401745831+402626892+403790314+404449158
1738+405192888+408115470+413771764+418342623+417559446+413429954+409475531
1728+406707738+405453750+405862779+407311281+409539196+413727091+420885586
1718+429019784+432986647+430611993+425420308+421099787+419166396+420046515
1708+423544274+428365505+432619922+436277662+441273544+447791106+452474972
1698+453362444+451962100+448690008+444277805+441587825+442190008+445216886
1688+449793494+456691058+465595784+471276122+469541042+464551885+461293139
1678+461444687+464582062+468629526+471659156+474329308+477688378+479904584
1668+478716560+476223916+476031877+478587001+481233145+481803095+481659562
1658+483807260+490348309+501671212+513516256+516266347+511587673+509841930
1648+512897730+515615309+513289335+508496887+505771572+506494430+510571931
1638+517550722+525068903+527969287+524592829+520122747+518697522+520407826
1628+523395606+526376241+529475495+532278622+533332313+533085599+534116778
1618+537450131+540567818+540499798+538693282+538178564+539643444+541864389
1608+543461512+544192872+544782824+545821705+547155352+548319994+549310752
1598+550581292+552352648+554264470+555778204+556749831+557489833+558385982
1588+559610455+561128476+562803794+564389487+565698045+567183903+570028463
1578+574809133+579502895+580523969+578657099+578224967+580727822+583735568
1568+584564812+584054937+584298514+586406069+591846942+602409006+615469777
1558+620414853+615113296+609020375+606102323+605794001+607010913+608870116
1548+611442141+616076455+623732942+633632015+644025700+652038179+653078837
1538+648304231+645085314+646684981+650899812+653761133+654904658+657572093
1528+663413143+670848494+677879625+684952781+692739873+699121533+702232146
1518+703588723+704691199+705494133+706576677+709573133+715772476+725328240
1508+735940064+740749657+735612507+727757743+723649890+724013619+727753631
1498+732879630+736391676+737120318+737757173+741276746+747503757+752988049
1488+754388463+752345966+749827257+748899362+750036545+752666137+756160062
1478+760451068+765697567+771704418+777241467+779728118+778039941+775108369
1468+774496115+777086191+780976740+783637066+785468601+789429192+797284723
1458+806453133+809502974+803909612+796491267+792186252+791321361+792384808
1448+793532375+793759923+793298206+792506283+791407153+790752944+792079413
1438+795713700+799343806+800604695+800780252+801946705+803385799+803064444
1428+801203777+800216643+801259392+803272060+805210923+807366601+809609465
1418+810155511+808101933+804915215+802099682+800017460+798599414+798130101
1408+799031999+800828409+802033892+801985455+802043649+803803400+807269030
1398+811264119+814607647+816319589+815916693+814646606+814831153+817245044
1388+819881326+819880978+817591698+816626378+819334862+824723605+830450498
1378+835534403+840520598+845522961+849442015+851684810+853312702+855480228
1368+858103756+860500433+862247012+863068903+862742879+861477531+860080253
1358+859569751+860308986+861442475+861820142+861407837+860857959+860263198
1348+859356281+858341758+857853139+858423647+860034186+861851225+862743994
1338+862512055+862193418+862809018+864156325+865005048+864523329+863331438
1328+862685661+862946662+863564491+864319129+865709785+868061998+870802820
1318+872859743+873790634+874247403+875157943+876743392+878497150+879960079
1308+881191138+882352574+883299913+884004022+884867172+885987628+886716549
1298+886653128+886314907+886254762+886463841+886825479+887059648+886308008
1288+883914746+880409042+876947872+874260296+872511207+871503027+870722045
1278+869708428+868558143+867805736+867794028+868349900+868994910+869442479
1268+869995425+871178884+872833538+874038811+874175967+873625182+873249676
1258+873663095+875019184+876934282+878693824+879945025+880940661+881983479
1248+883146518+884533133+886190575+887748495+888754376+889456743+890692263
1238+892943212+895797424+898312997+899849104+900725355+901974187+904120944
1228+906442910+907972395+908944475+910488317+913196035+916661735+920094749
1218+923066394+925779408+928411787+930352880+930906522+930644964+930898299
1208+932100296+933993998+937130607+942319121+948421312+952632031+953852706
1198+953889504+954575145+955943082+957440857+959036760+960716852+962060396
1188+962784856+963085722+963265809+963547717+964304724+965855187+968009402
1178+970434792+973193943+976129836+978317852+979352934+980072237+981067246
1168+982252029+983977770+986566034+988912950+989718811+989897714+991450267
1158+994316049+996243970+995572198+993304523+992228809+994131989+998449200
1148+1003470869+1007651968+1009551106+1008430092+1006016340+1005631077
1140+1008637081+1013426811+1017775801+1020070517+1019102062+1015697692
1131+1013509746+1015551963+1020536067+1024173700+1024383686+1023567161
1123+1024787000+1027793980+1030333737+1032000517+1034007749+1036175066
1114+1037205897+1036854923+1035847299+1034843300+1034496716+1035463430
1105+1038183343+1042562372+1046898260+1048268218+1046241402+1043976585
1097+1043617317+1044025649+1043948916+1043970243+1044437883+1044508134
1088+1044466318+1046182930+1050063931+1053654939+1054265869+1052342896
1080+1050484181+1049603468+1048833429+1048952744+1052376210+1058988485
1071+1065034433+1067473344+1067069682+1066293858+1066582527+1067717340
1063+1068552473+1068648998+1068940524+1069514865+1069274493+1068940454
1054+1069991566+1070712541+1068696528+1066142484+1066756272+1069635155
1045+1071321659+1071243115+1070937581+1070656090+1069792732+1068654294
1037+1067893454+1067142162+1065891937+1064839083+1065084264+1066993577
1028+1069730356+1071656047+1071838992+1071308975+1071800800+1073222749
1020+1073741823+1072322732+1069996584+1068490655+1068185120+1067584365
1011+1065531903+1063432049+1063637922+1066096626+1068193065+1068310637
1003+1068010539+1069063323+1070212772+1069021438+1065586891+1062158198
994+1060245191+1059599972+1058714800+1056117197+1052515178+1050547880
985+1051340430+1053043033+1053419446+1051951221+1049502623+1047915222
977+1048602605+1050166937+1049750521+1047319485+1045537223+1045614652
968+1045899836+1044158902+1039683627+1033712947+1028592105+1025652240
960+1024154674+1022887444+1021697085+1020262034+1017403152+1013089775
951+1008988125+1006288213+1004493127+1002774146+1000846574+998202695+994393966
941+990336292+987727470+987013254+987191320+987261710+986623461+984859597
931+982579099+981574821+982745596+984512874+984783074+983577732+981958900
921+980157193+978298198+977153977+977148889+977842754+978556830+978467483
911+976718534+973666114+971196817+970839570+971955705+972222839+970313875
901+967633198+966611497+967803389+969552965+970127933+969549341+969283322
891+970218604+971425898+971279961+969513310+967389900+966245260+966347987
881+966586129+965506164+963046345+960651201+959372611+958956125+958755966
871+958626755+959035784+960340788+961916968+962518280+961372455+958913264
861+956872509+957174211+959807496+962219088+961809501+958566819+954492419
851+951483279+950318707+950558730+951170287+951815925+953081203+954996370
841+956298168+955829691+953805106+951333091+949289688+948122189+948252166
831+949686242+951663157+953224632+953835771+953682306+953475248+953995856
821+955843490+958723001+961115427+961738553+961288615+961878567+964271690
811+966624530+966659934+963998214+960149411+957223484+956633044+958174377
801+960229279+961015557+959790491+957447478+955944894+956483901+958634073
791+960966354+962186820+962285854+962563790+964457770+967848132+970389352
781+969733958+966790051+964969666+966096604+968367067+969112505+968325251
771+967644558+967688813+967964171+968075262+968015465+968005499+968354383
761+968763342+967866879+964938653+962130368+962904380+967643652+972496454
751+973947256+973094561+973293117+975772589+978942999+980259851+978326842
741+974278090+971215425+971691081+975499113+979683767+980817256+978278684
731+975285225+975044993+976640408+976892627+975134618+973185580+971662088
721+969946731+968376266+967433597+967054885+968294447+972499521+977929243
711+980224168+977320195+971330767+965263423+960594053+957786186+957104518
701+958402413+960340161+960486725+957856089+954682403+953648157+954344949
691+953750188+949602610+942375921+934866137+930451914+930582310+933157889
681+934659985+934064736+932451201+930408774+928607067+927893270+925826660
671+917347445+902505597+891906666+896333713+908781881+916904058+919018059
661+918388591+916281489+913264613+911079524+910071065+908625908+906397540
651+905142436+904856764+902731402+898732759+897675933+902998118+912149732
641+918428246+917367935+911734988+906983171+904286883+901781276+898979682
631+897032595+896340612+896228406+895467288+892754970+889488314+888833965
621+890597062+889703039+882390278+872668156+867406464+867948398+870127005
611+870250502+868659686+867900937+869397388+872617489+876361544+879369917
601+880919614+881243478
##END=
