##TITLE=<SNM>
##JCAMP-DX=4.24
##DATA TYPE=INFRARED SPECTRUM
##DATE=2/5/2025
##SAMPLING PROCEDURE=Instrument type and / or accessory
##ORIGIN=Admin
##XUNITS=1/CM
##YUNITS=ABSORBANCE
##RESOLUTION=4
##FIRSTX=4497.3318
##LASTX=599.83466
##DELTAX=-1.4281778
##MAXY=1.8053687
##MINY=0.26728913
##XFACTOR=1
##YFACTOR=1.6813806e-09
##NPOINTS=2730
##FIRSTY=0.28160527
##XYDATA=(X++(Y..Y))
4497+167484551+168948558+170402550+170827257+170255043+169432147+168819308
4487+168390737+168249895+168765672+169974210+171341190+172206202+172253527
4477+171702070+171097934+170727501+170411483+169957850+169369737+168584382
4467+167594020+166866430+167095383+168362643+169870590+170697953+170656938
4457+170218406+169769806+169277993+168661131+168152284+167988842+167963620
4447+167753048+167459878+167290038+167046037+166559399+166187513+166314175
4437+166835447+167414520+167682769+167287787+166386936+165710394+165662873
4427+165943973+166213090+166428625+166481516+166147472+165500637+164989008
4417+165009373+165492661+166046139+166493445+166922512+167185390+166857745
4407+165852370+164701439+164108150+164421332+165478623+166743171+167610557
4397+167760191+167328962+166698469+166086321+165532418+165215514+165327731
4387+165675245+165865185+165784236+165506096+164943880+163975462+162781848
4377+161807492+161352671+161261600+161124498+160859582+160900260+161629180
4367+162743261+163408814+163177256+162519661+162111049+161887875+161330072
4357+160427519+159786622+159903057+160651988+161381173+161583609+161498175
4347+161573506+161529654+160837036+159844565+159339351+159315529+159205723
4337+158981131+159162191+159957791+160923746+161394892+161092381+160328224
4327+159630022+159270809+159208435+159264428+159275684+159214338+159167207
4317+159183691+159227153+159233356+159153258+159019895+158970035+159079469
4307+159281214+159574667+160081281+160786697+161472066+161903668+161916749
4297+161504715+160956519+160573076+160302027+160084507+160210371+160752736
4287+161108758+160763211+160103933+159877568+160215494+160661382+160854424
4277+160792475+160563186+160165634+159640675+159188442+159042548+159252304
4267+159655263+160122137+160742633+161561914+162228033+162245634+161571893
4257+160700855+160228646+160440848+161155818+161961274+162666725+163266022
4247+163565343+163377317+162937349+162607488+162413011+162258768+162225322
4237+162339913+162376285+162084568+161474051+160835653+160540516+160772925
4227+161427151+162179893+162617450+162513245+162141607+162047984+162373785
4217+162712438+162754304+162703912+162907607+163408069+164001163+164461053
4207+164636175+164541542+164367377+164224550+163966688+163459667+162905426
4197+162687959+162920971+163284562+163346724+163015675+162645863+162676226
4187+163157156+163616514+163508889+162887436+162406222+162552222+163162952
4177+163796972+164286800+164787847+165460685+166208907+166723213+166808044
4167+166595009+166341631+166131591+165875909+165616505+165727215+166518756
4157+167567805+167898729+167120375+165895442+164992287+164445757+164005559
4147+163829284+164174831+164745751+164925003+164579828+164156256+164007508
4137+164075147+164206346+164358851+164449479+164401090+164430442+164904194
4127+165777075+166498762+166589106+166066026+165309545+164728770+164520148
4117+164618309+164942887+165549629+166345477+166926394+166982493+166624627
4107+166156973+165801198+165739019+166128028+166824050+167251025+166945253
4097+166210732+165774611+165800241+165789270+165390938+164733414+164119282
4087+163877177+164218789+164911426+165418092+165471852+165201370+164821950
4077+164571692+164746566+165390459+166053371+166174361+165709507+165150464
4067+164933936+165060439+165234763+165144047+164680346+164094750+163801243
4057+163912006+164151045+164240077+164146773+163991095+163903321+163942812
4047+164078975+164269146+164476421+164594930+164556449+164499126+164529932
4037+164393965+163805958+163073529+162924693+163665719+164837353+165707522
4027+165904411+165669945+165590431+165903170+166182887+166043941+165821458
4017+166004308+166335569+166154013+165389466+164640589+164459990+164927201
4007+165708497+166373234+166822756+167305299+167893943+168316133+168462984
3997+168613202+168989006+169507318+170016696+170372453+170356908+169983462
3987+169695415+169810839+170012265+169825657+169348113+169014530+168943453
3977+169067651+169590714+170659490+171800585+172290838+171955235+171144940
3967+170247741+169659274+169795277+170647154+171659034+172344155+172670984
3957+172742256+172593119+172456601+172885952+174340316+176467412+177989344
3947+178037751+177386467+177224124+177227545+176202106+174235438+172741707
3937+172853941+174907833+178632102+182748749+184982460+184049084+181476384
3927+179897785+180082816+180589376+180131364+179418167+179887381+181557191
3917+182806620+182100105+179719029+177265813+175883518+175817404+177412487
3907+181512915+188205823+195405789+199797597+199994786+197077496+192358628
3897+187327590+184339382+185049495+188333620+190344972+188900463+187233080
3887+189010517+192964236+195087627+195024863+195216398+194882301+192044401
3878+189058959+189473226+193109332+197625976+201744306+204264593+203487852
3868+200977172+200276116+201432684+201229504+198367870+195348963+194971493
3858+198550631+206593452+217526993+223639889+217895759+206525229+197409874
3848+193044529+193344488+196985380+202131897+207680893+213168260+217036704
3838+216988244+213498262+209695542+207031470+204730280+202495913+201240529
3828+201270111+202176333+204877539+210846048+217899889+220432779+218061221
3818+215465479+213079564+208211559+202045948+198378328+199172616+204068361
3808+210367883+214767135+217893686+222472562+226870467+226634938+222907886
3798+220035972+218389788+216387919+214465085+214125192+215792823+219191291
3788+224156021+230090321+235717821+240782768+247016761+255701915+265281556
3778+273504834+281119881+290695020+303625325+319325733+335031033+346921364
3768+353568809+356054125+355533615+354087404+354556051+357458895+360480319
3758+362144263+364481399+370769772+382523480+397450869+409274342+415353490
3748+421114618+431037272+442553644+448841166+450653042+455463937+467178792
3738+484864177+503835079+517884766+524886142+528253591+531890495+537668781
3728+546362105+557258814+567371869+573987195+576976218+577252018+575701549
3718+573600757+572444100+573808564+577830417+579986865+574334462+563205025
3708+554139513+550745370+551865690+554027669+553777428+550967498+548874718
3698+549726825+553180276+558485590+565969793+575907406+585902200+590496745
3688+587195126+580568242+575681094+574154554+575688255+579509782+585491798
3678+593633877+600349421+599965145+595255423+593518382+594494386+591002224
3668+581045574+570524918+563428643+559931589+558976322+559907412+562217464
3658+564089215+563403757+561960311+564715826+573818277+585266868+589666759
3648+581976735+568707866+557679036+551165379+548398131+548403271+550457127
3638+553385283+555794169+557188410+558637280+562134334+568345321+574117474
3628+574738519+571098850+567456381+566306176+568808012+574361227+579756796
3618+582563855+583946043+585107273+585650825+586304804+588777925+592413305
3608+594449897+593979052+592881313+593254245+595719532+599400004+603010072
3598+605772393+606947555+605736943+602997097+602071928+605989559+613769661
3588+619583006+618348998+612306150+606834683+604636864+605560332+607684131
3578+608624190+607711640+606413042+606110301+607213570+610201707+614910932
3568+618711791+618464919+614845563+611126876+608681406+606574906+604172188
3558+602179412+601472613+602332342+604450753+606714933+607789134+607720999
3548+607761057+607871803+606049965+601638518+597170706+595233303+595466917
3538+595858283+595597160+594985367+593800882+591902189+590252142+589699408
3528+589991763+590762513+591834338+592261757+590959720+588291341+585589143
3518+583880284+583833880+585466274+587397864+587676676+585735125+582627700
3508+579580362+577203345+575533800+574204645+572979570+572079995+571527935
3498+570682917+569201824+568023684+568393462+569895222+570348307+568388711
3488+565300571+563219773+562632901+562321758+560845237+557972064+555016258
3478+553521693+553806320+555051921+556385082+557228327+556939340+555132604
3468+552451818+550299765+549501719+549510404+549214256+548340737+547465481
3458+546856666+546143203+544952904+543460431+542568655+543225966+544950281
3448+545761231+544436506+542056441+540190610+538669742+536655802+534891606
3438+534834461+535925323+535709433+533038644+529528721+527315234+526780084
3428+526757219+526101468+524931446+524576168+526029115+528418291+529390290
3418+527479119+523851290+521007116+520084676+520246327+520424143+520426589
3408+520176101+519247386+517684510+516369889+516125639+516594428+516443305
3398+515121523+513673752+513070857+512663149+511243809+508917485+507005924
3388+506697830+508198953+510424953+511665697+511283123+510064251+508657744
3378+507071046+505663546+504959087+504615649+503987266+503280821+503070214
3368+503292449+503533472+503748759+504137750+504655566+505054199+505361372
3358+506000071+507149071+508304983+508945597+509244297+509545160+509512723
3348+508425690+506313235+504260336+503208894+502922707+502611564+502039829
3338+501365538+500534878+499534413+498681951+498268535+498427634+499205013
3328+500087998+499996927+498459256+496321844+494771552+494170430+494174684
3318+494449526+494850499+495177807+495281427+495306065+495329497+495046466
3308+494258381+493353985+492884487+492727019+492184034+491019614+489846544
3298+489331422+489516364+490132021+491080658+492226858+493195169+493770875
3288+494058550+494114738+493935539+493732801+493754249+493977122+494201590
3278+494224242+493885236+493260645+492776897+492752082+492924510+492793417
3268+492298147+491853146+491815817+492257734+492902106+493003989+491945563
3258+490134077+488471303+487060046+485513583+484208887+483945247+484664559
3248+485520070+485957627+486019310+485824265+485308860+484407725+483233592
3238+482063110+481090969+480206992+479212341+478220881+477495116+476909343
3228+476073259+475014728+474175418+473638495+472987281+472060729+471214648
3218+470676662+470209079+469613734+469121124+468913600+468609264+467785516
3208+466824897+466556861+467091089+467567322+467179572+466025610+464680112
3198+463356202+461890778+460268877+458808876+457951203+457888386+458206797
3188+458054681+456910503+454977566+452824308+451032603+449985522+449503262
3178+448941914+448026245+447230893+447026738+447129188+446821377+445780109
3168+444207768+442346546+440384043+438646825+437376232+436485804+435801232
3158+435205711+434465908+433421415+432337430+431644740+431448951+431455828
3148+431168153+430238375+428856647+427557624+426533727+425502456+424321374
3138+423341328+422971090+423080240+423009766+422238023+420970550+419903192
3128+419444436+419355386+419175974+418804637+418449855+418102270+417426029
3118+416290500+415037810+414018946+413171093+412314554+411603856+411279420
3108+411123299+410684536+410045198+409776631+409994541+410018328+409266153
3098+407993505+406801788+405872400+405015507+404122100+403235890+402430576
3088+401870079+401714738+401829844+401877559+401748805+401611579+401488533
3078+401073274+400096454+398725148+397444346+396669767+396632581+397290033
3068+397961205+397575971+395906249+393963670+392688859+392006237+391470590
3058+390980390+390528511+389949899+389244518+388770271+388827664+389141040
3048+389027105+388178400+386964386+385844490+384954877+384366304+384183631
3038+384220392+384016839+383336061+382378738+381460127+380649390+379789696
3028+378782141+377731657+376825205+376135883+375516220+374661808+373428225
3018+372149196+371460441+371666156+372306912+372504935+371812174+370537895
3008+369202465+368052791+367223762+366837855+366676346+366229997+365322304
2998+364311559+363618763+363378661+363439174+363428929+362999277+362174466
2988+361299210+360632612+360153117+359668802+359000076+358171898+357462653
2978+357142293+357126092+357029562+356619869+356002900+355296633+354457323
2968+353577175+352925395+352479365+351882567+351092710+350569222+350582409
2958+350780999+350609387+349845301+348674394+347490157+346618410+346054935
2948+345517906+344856058+344259544+343938971+343806318+343660654+343461213
2938+343202820+342761009+342099231+341418630+340902871+340504308+340092629
2928+339606435+338983546+338137749+337073474+335893102+334704185+333610027
2918+332733282+332176436+331958136+331982383+332065017+332054878+331915029
2908+331603283+331020807+330222193+329492140+329043983+328791687+328517872
2898+328133951+327739359+327493550+327408860+327274222+326832340+326030216
2888+325101821+324398071+324062751+323917726+323750615+323503920+323066150
2878+322275158+321316099+320648295+320360372+320082622+319659635+319401064
2868+319492276+319555129+319062199+318017422+316953608+316274354+315879337
2858+315506156+315105680+314725516+314324507+313887766+313527028+313361229
2848+313411781+313609059+313808429+313816972+313491188+312874929+312228678
2838+311797715+311522873+311129309+310503087+309783598+309118240+308543492
2828+308069280+307717263+307481309+307290873+307003481+306490628+305766176
2818+304989966+304382286+304129706+304229532+304399372+304277106+303730292
2808+302916790+302115057+301512977+301066380+300563631+299886681+299180733
2798+298712653+298552385+298442313+298082214+297492471+296895283+296334662
2788+295711401+295096240+294675255+294448554+294247411+293961119+293552825
2778+292958545+292134123+291149717+290174865+289417923+289033664+288952147
2768+288851452+288471536+287891754+287344994+286874894+286335844+285628992
2758+284822048+284095770+283586976+283225069+282779287+282136369+281447668
2748+280925917+280590190+280310774+280000819+279621063+279117764+278529757
2738+278009319+277568695+277012097+276277453+275606104+275233314+275097133
2728+274914017+274433477+273662834+272888202+272373382+272065021+271720414
2718+271233652+270679430+270109999+269484274+268823383+268312108+268111444
2708+268093241+267925120+267453832+266848296+266335532+265969531+265709223
2698+265550886+265472949+265341891+264987872+264383328+263700884+263170661
2688+262907233+262893071+263030616+263108234+262842785+262157203+261333350
2678+260743518+260514919+260499995+260424717+260071744+259479005+258907376
2668+258544884+258376604+258332823+258352108+258301433+258051440+257641463
2658+257208621+256766579+256202785+255515626+254909717+254582445+254520390
2648+254563780+254566811+254447416+254190742+253859375+253550536+253332963
2638+253217449+253146674+253023539+252784288+252448649+252113524+251897493
2628+251829748+251801831+251702537+251548046+251393715+251192236+250840166
2618+250344436+249885839+249669968+249696165+249745121+249639552+249410227
2608+249173440+248994702+248914940+248956735+249046583+249025844+248790245
2598+248402264+248048688+247870109+247840012+247833897+247797508+247800220
2588+247919243+248098264+248160975+247998562+247704966+247457066+247303338
2578+247155015+246931398+246635534+246340272+246154480+246139963+246236936
2568+246335646+246408424+246504263+246654588+246881626+247250925+247780545
2558+248308163+248579992+248490570+248145395+247720174+247342492+247043738
2548+246748548+246376289+245974200+245660026+245457448+245286562+245078329
2538+244819032+244510902+244148605+243751762+243396608+243159200+243027628
2528+242935210+242860961+242838893+242912717+243089896+243270920+243281307
2518+243063397+242742860+242465855+242313137+242335151+242468531+242488791
2508+242247874+241882032+241637002+241597157+241673037+241734507+241701096
2498+241603733+241570020+241674863+241831179+241885931+241778199+241563586
2488+241323715+241060801+240694799+240222253+239813038+239624037+239599949
2478+239585698+239517440+239390193+239188873+238952440+238767977+238633853
2468+238428191+238064192+237636862+237353707+237287646+237267847+237095224
2458+236792164+236532760+236395055+236305154+236172394+235961078+235659613
2448+235313445+235070100+235053811+235197524+235309563+235274220+235091122
2438+234789834+234428352+234135607+234032289+234084045+234125947+234082149
2428+234054835+234116570+234171181+234137911+234093422+234108736+234103525
2418+233954795+233654748+233337224+233187058+233297077+233589556+233886359
2408+234051361+234079756+234055544+234018481+233956993+233951658+234137787
2398+234470253+234760818+235023022+235571857+236779898+238963908+242506888
2388+247876561+255478014+265606134+278527311+294435189+313248322+334523852
2378+357618171+381880739+406691397+431474475+455744558+478823421+499332349
2368+515572232+527016002+534881680+540407350+542976186+540811088+532889684
2358+519473485+501739818+481003585+458108884+435274731+417323685+408725189
2348+411134040+423316407+440872932+457235507+468164971+473799082+475872365
2338+475870841+474912951+473677986+472301965+470460170+467781191+464306825
2328+460340699+455928791+450688634+444106204+436090219+427187847+418042076
2318+408869505+399691652+390689595+382018036+373528194+364925692+356050545
2308+346917359+337703595+328761944+320451159+312876134+305865152+299206186
2298+292862546+286947460+281521474+276501779+271814692+267526487+263733870
2288+260408907+257431866+254731139+252343381+250332738+248672764+247257005
2278+246010394+244907302+243906110+242970554+242133052+241468757+241003053
2268+240639409+240199477+239599471+238940955+238359826+237888946+237518105
2258+237247322+237043202+236838532+236553976+236101371+235470346+234809792
2248+234307698+234015539+233872197+233832954+233877461+233926684+233847134
2238+233577574+233212972+232903584+232692214+232529127+232431853+232505323
2228+232764177+233053413+233227985+233319180+233438983+233618589+233829959
2218+234085711+234426172+234846677+235294196+235715411+236082777+236396561
2208+236696999+237046853+237468883+237946959+238502954+239177653+239929969
2198+240662487+241332683+241946249+242495118+242990548+243504198+244097273
2188+244720587+245246539+245619258+245892275+246086292+246154834+246149694
2178+246240729+246499017+246795448+246944266+246868102+246625147+246304911
2168+245929870+245508867+245128314+244884756+244759848+244630616+244395335
2158+244080062+243814862+243707981+243777870+243981654+244274505+244697279
2148+245357142+246275045+247493508+249380290+252396236+256522738+261368941
2138+266736505+272626866+278933265+285539570+292489597+299850557+307605135
2128+315699429+324081150+332697477+341423629+350041729+358426605+366598959
2118+374449287+381602033+387574265+391943916+394529874+395501767+395207746
2108+393976396+392055512+389540914+386467060+383006271+379355223+375494666
2098+371197226+366149490+360178925+353480503+346398444+339117759+331839946
2088+324882847+318355011+312086915+305900601+299702129+293506953+287497127
2078+281866472+276704854+272103626+268135408+264758086+261911891+259578282
2068+257706957+256206135+254923507+253679786+252482114+251491007+250711218
2058+250043892+249504240+249049631+248526427+247993067+247676979+247626498
2048+247770779+248129372+248750204+249649992+250828273+252262006+254032246
2038+256352171+259278713+262604669+266087525+269535606+272790183+275829509
2028+278710552+281396921+283818393+285951302+287786309+289385202+290784832
2018+291689973+291610778+290438877+288580013+286518003+284454983+282283433
2008+279824172+277115983+274399268+271841882+269435283+267115942+264833949
1998+262606282+260698975+259563145+259237521+258984816+258000729+256333028
1988+254590616+253146957+252090446+251451321+251116090+250863670+250605719
1978+250390113+250273767+250283480+250343674+250369003+250577483+251324854
1968+252403149+252985040+252608599+251760692+251177206+251069013+251267035
1958+251667211+252208990+252696851+252942678+252989826+253091035+253512215
1948+254409875+255910165+258034655+260139896+260855557+259551092+257386721
1938+255933792+255604711+255921863+256434964+256948703+257373817+257712044
1928+258169612+259214620+261097218+263209390+264719180+265867081+267294521
1918+268337189+267777046+266130774+265236340+265986387+267670626+269012490
1908+269428015+269357913+269493722+269953913+270395583+270664860+271046016
1898+271902838+273106537+274014460+274454127+275229645+276730147+277758121
1888+277040670+275173102+273574705+272698581+272230661+271950111+271808258
1878+271748064+271720874+271814054+272594908+275068951+279455760+283743221
1868+284666849+281548487+277171444+274166132+272983810+272785823+272775081
1858+272652389+272475672+272404099+272537709+273051572+274261705+276378184
1848+279520013+283666366+287536778+288317099+285173834+281099551+278915930
1838+278743998+279222287+279709793+281181865+284775609+289516739+292467369
1828+292451151+291270353+290033012+288067320+285516758+283815167+283587845
1818+284080810+284525918+285197125+286854670+289385681+291421316+291768707
1808+290901108+290340628+291258672+293949048+297622997+300506095+301236752
1798+300565545+300822485+303760531+308796568+312377816+311075389+306536217
1788+303140266+302805300+304559145+306869374+309110654+310866413+311664743
1778+312235201+314549578+319984958+327502341+333090580+333225502+329239595
1768+324481626+321008926+320280999+322805062+326580858+328622981+328972764
1758+329598383+330627952+331688398+334439765+340490128+348040728+352678628
1748+352668596+350513991+349074870+349536392+351710210+354281102+355752731
1738+357023217+361188394+368911138+374683504+372779174+366504981+360830067
1728+356931508+355017856+355223819+356947425+360144326+366374313+376640688
1718+387766828+392461838+388178400+380365897+374158031+371500038+372867693
1708+377819005+384343722+389780165+394300337+400717287+409197629+415044084
1698+415617556+412819573+406984284+399557439+395025144+395508928+399614903
1688+406120903+416148949+428931234+436133787+431801712+423315875+418298343
1678+418694388+423256780+428581698+432053583+435147892+439566535+442481184
1668+440558917+437053852+437182003+441318997+445347019+446167682+446102029
1658+449561719+459325061+476009060+494284649+500502548+495841002+494783073
1648+500149503+504587573+501622904+495627524+493214773+496112194+504110773
1638+516729634+530681585+537883075+535229549+530849972+531558933+537824654
1628+546776266+555963974+565360197+574975253+583148741+589868397+598274401
1618+610220353+622002457+627731928+628710060+630078139+633441264+637497433
1608+640850773+643212299+645014709+646761110+648734034+651127322+654258322
1598+658462245+663807937+669895664+676009908+681749660+687296494+692802064
1588+697962140+702447748+706263000+709430867+712019980+715004075+720333885
1578+728994632+738289079+743298990+745051913+749448400+758848629+770401443
1568+779980198+787677986+796120645+806776578+821314196+843115483+871333046
1558+889633379+888187806+881227162+877418079+876157554+875142554+873226137
1548+871544681+872807262+878291066+886665945+895409644+899322879+890822366
1538+874236528+861735857+856342662+854021621+850284288+845146119+841457707
1528+840342668+841130363+843548963+847960126+852985068+855660466+855645790
1518+854549823+851750989+846752918+842336154+841797884+846185934+854726859
1508+863869369+864742569+853290220+840013269+832870200+832169853+835768223
1498+839927551+840078425+835888114+832642399+834577889+840822092+845936792
1488+844660457+837799711+830128440+825029054+823132843+823635521+825970317
1478+830055484+835488099+841425731+846153532+846204864+840208881+832857225
1468+829383426+830515268+832834041+832889556+832367592+835832813+844775456
1458+854161647+853899177+843275928+832551648+827039200+826212581+827613842
1448+828126943+825943730+822245675+819308161+818161927+819126800+822684615
1438+827956358+830816734+827795700+821917552+817783322+816048975+815012068
1428+814011249+813845202+814580076+815470080+816999031+820302529+823623823
1418+822327494+815760272+808646414+804484534+803197209+802882486+802449998
1408+802779539+804644200+806459515+806196619+804848391+804952543+807042522
1398+809724585+811716936+811993090+809715935+806200802+804472552+805712090
1388+807614257+806779343+803421465+801408482+803307458+808237465+813902914
1378+819245699+824674839+830053499+833723832+834742305+834697851+835457470
1368+837171398+839626015+843292235+847589676+850027135+849116854+846547734
1358+844634507+843801224+843245725+842575511+842075527+841777606+841221540
1348+840323951+839706060+840050987+841758605+844948097+849009796+852286635
1338+853195427+851918737+850191976+849587202+850620919+853066248+856155062
1328+858617619+859782501+860747870+863353645+868089812+873811485+879129312
1318+883374783+886640492+889557445+892839532+896603877+900226282+903130757
1308+905388556+907285051+908937438+910681853+913033949+915794923+917992245
1298+919217816+920187723+921491993+922569384+922379302+920616879+917830806
1288+914836643+912439881+911055636+910129828+908623140+906437588+904592637
1278+903797497+903637690+903384436+903082829+903431159+904786902+906719485
1268+908547207+909949672+910962616+911779380+912656550+913807464+915540393
1258+918348728+922283729+926241206+928511838+928525805+927775262+928274820
1248+930026751+931008285+930114950+928484967+927107316+925227341+922207229
1238+919166485+917597405+917444899+917311395+916237408+914670596+913358527
1228+912009874+909957897+907539581+905808566+905306667+905515254+905439675
1218+904921186+904832632+905572328+906443685+907021588+907865932+909249113
1208+910566358+911607802+913112647+915477363+917959914+919971125+922246082
1198+925523560+928942624+931043948+931489198+930906899+930340907+931183266
1188+934147155+938459980+942953812+947181842+950882307+953345219+954196369
1178+954006004+953682985+954023729+955492840+957687184+959367364+959726400
1168+959600908+960492329+962568554+964964253+967356478+969830663+971961623
1158+973135083+973365010+973585508+975053769+977843103+980275670+981066059
1148+981393261+983234028+986628704+989460223+989731485+988100155+987467092
1138+989905189+994738631+999576822+1002254489+1002117157+1000512840+999624467
1128+1000332967+1001607176+1002042216+1001698494+1002159484+1004454505
1120+1007634851+1010087482+1012114149+1015477841+1020088019+1023707588
1111+1025309991+1026102933+1026710472+1026348883+1025409321+1025484829
1103+1026299892+1026026361+1024911251+1025239162+1027660669+1030712544
1094+1033563135+1036260725+1037815058+1036909953+1034468807+1033233097
1085+1034581821+1037130025+1039360032+1042084067+1046311955+1050617053
1077+1051952093+1049429413+1045838629+1043993466+1044011758+1045143174
1068+1047456488+1050220511+1051463098+1051204811+1052189607+1055957427
1060+1060354977+1062128674+1060966487+1059440726+1059635275+1061214777
1051+1062699132+1063907049+1065654371+1068164502+1071058413+1073440996
1043+1073741823+1071382566+1068391665+1067264219+1068002638+1068385284
1034+1066475531+1062856317+1060104985+1059710003+1060711531+1061646414
1025+1062415959+1063406782+1064116274+1063977169+1063795099+1064597612
1017+1066002772+1066546856+1065046194+1062051535+1058918905+1055949202
1008+1053250762+1051882540+1052576435+1054288732+1055011696+1054296602
1000+1053626317+1054220031+1055830587+1057703472+1059489292+1060533857
991+1059632581+1056928964+1054501077+1053266147+1051117250+1046172141
983+1039850728+1034710079+1031589573+1030186043+1029943921+1029997805
974+1030213694+1031337524+1032703477+1031900680+1027823242+1022352058
965+1018142462+1015928550+1014609745+1013095187+1011165157+1008645596
957+1005258153+1001568606+998635630+996482407+993811050+989844144+985791875
947+983754786+984397563+985826120+985119250+981547822+977531003+975624015
937+975753336+976037431+975293623+973745954+971684051+968911024+965707919
927+963243093+962542605+963410346+964816995+966072556+967141865+968073557
917+968591195+968063064+965831994+962300837+959569499+959520011+961391549
907+962951696+963753429+964852515+965715648+964339556+960335073+955498512
897+951797338+950350063+951327699+953671357+955444274+955329417+953722334
887+951885679+950365307+948830188+947340799+946743824+947153837+947391492
877+946952694+946899307+947821428+948573531+947912534+946413715+946006397
867+947955712+951418876+953611022+952113905+947421979+942462903+940013179
857+940567259+941811832+940870852+937958365+936499959+938862052+943269528
847+945763565+944675327+941937679+940343855+941209965+943945060+946344801
837+946569056+945763140+946598125+948970285+949767268+947728124+945478620
827+945449693+947015866+948502277+949445384+950180188+951198590+953384001
817+957158840+961297678+963941029+964289288+962684475+960062252+957482568
807+955251214+952904223+950685277+949569033+949457366+949528975+950267465
797+952910604+956532158+957709234+955054964+951785427+951523594+954178219
787+957064402+958222902+957771980+957073122+957544747+959635507+961852751
777+961760653+958895456+955726738+955225478+958243321+963295488+967973518
767+970114474+968506258+964131962+960442203+960256800+962646756+963995480
757+961676424+956395676+951727785+951663409+957368845+965387453+969869941
747+967897868+962116923+957271429+955781047+957545952+961697056+966790912
737+970535193+971011071+968236130+963998671+960371658+958967490+960600876
727+964405209+967846678+968342409+964919232+959095251+954276273+953109265
717+955477384+959560991+963992077+967299120+966632805+961032230+954998811
707+954096046+958484380+963408786+964808416+962905044+960235956+958348820
697+956559171+953094447+947755916+942444895+938681825+935768771+933246162
687+932367999+933421284+935522466+937622017+937588056+934370347+931291671
677+931986133+934184731+932981210+928699864+925183596+923000312+920037274
667+917175764+916124039+915373850+913764995+912228812+912751272+916438975
657+921241221+921697957+914651666+904604832+898600482+898435853+900006564
647+898046331+891321712+883358335+879000630+880492004+885300985+888927006
637+889776951+888684458+886727699+886237427+889280653+893651758+894212929
627+889718955+884113841+880187561+877457073+875496627+874358546+872508987
617+866540726+856539834+849566925+851584374+860558284+870115202+876088994
607+877407302+874293673+868784983+865421149+867706883+873745052
##END=
