##TITLE=<SNM>
##JCAMP-DX=4.24
##DATA TYPE=INFRARED SPECTRUM
##DATE=3/5/2025
##SAMPLING PROCEDURE=Instrument type and / or accessory
##ORIGIN=Admin
##XUNITS=1/CM
##YUNITS=ABSORBANCE
##RESOLUTION=4
##FIRSTX=4497.3318
##LASTX=599.83466
##DELTAX=-1.4281778
##MAXY=1.774262
##MINY=0.21792084
##XFACTOR=1
##YFACTOR=1.6524102e-09
##NPOINTS=2730
##FIRSTY=0.23956788
##XYDATA=(X++(Y..Y))
4497+144980874+145280527+145969805+146278684+145891143+144949924+143490785
4487+141587228+139935711+139528610+140514043+141876457+142430017+141822224
4477+140597746+139718102+139959031+141268204+142687494+143336309+143407640
4467+143650418+144077891+144006677+143299147+142662984+142609291+142851781
4457+142883785+142615460+142190999+141523851+140512807+139664572+139886573
4447+141364298+143082106+143813064+143302312+142273116+141678209+142044901
4437+143006437+143436705+142665653+141428767+140849660+140852446+140556508
4427+139806053+139207332+139054263+139125450+139155912+138964112+138495689
4417+138049748+138164762+139063677+140266882+140917104+140599000+139739934
4407+139042377+138647874+138171805+137510482+137126250+137336023+137725692
4397+137716702+137502158+137821191+138810439+139619320+139410062+138422654
4387+137663956+137626848+137713392+137104129+135867631+134781153+134271366
4377+134114365+134070422+134185273+134400961+134496072+134572210+134966019
4367+135520597+135605004+135025509+134274035+133717337+133191047+132583678
4357+132245077+132543215+133368870+134245963+134735848+134725017+134420683
4347+134036190+133588581+133150070+132976189+133073067+133022982+132600388
4337+132178651+132209059+132664171+133213484+133595037+133652445+133328533
4327+132792739+132343966+132089348+131932555+131880594+132036142+132331945
4317+132647254+133066150+133693683+134405714+134960888+135134860+134802661
4307+134154107+133642859+133522778+133678443+133936137+134254710+134612700
4297+134825764+134565014+133782482+133055969+133092203+133902212+134798080
4287+135126554+134868184+134554328+134556339+134591156+134195400+133461438
4277+132922514+132956701+133543032+134363817+135115390+135827853+136657512
4267+137353057+137423586+136892931+136302299+135905533+135440727+134775526
4257+134263665+134314011+134941698+135807870+136473503+136680093+136524273
4247+136274281+136079550+136024189+136196466+136495200+136702890+136857022
4237+137152618+137491770+137554525+137276460+136928408+136797721+137024357
4227+137680224+138741452+139859339+140387703+139970078+139031926+138385762
4217+138365625+138670527+139008714+139423110+139822483+139722340+138878397
4207+137826620+137363653+137672839+138202204+138315531+137958325+137670675
4197+137964178+138712929+139240274+139013205+138202501+137531611+137520320
4187+137996300+138461944+138726744+138936490+139195284+139457649+139674113
4177+139919308+140421971+141306765+142256424+142727560+142567548+142115475
4167+141715570+141487563+141494462+141699158+141788236+141463008+140869391
4157+140363337+139991982+139618419+139353493+139502530+140292393+141721612
4147+143319284+144198044+143875486+142829263+141797127+140973483+140314090
4137+140105183+140666011+141731144+142590588+142848580+142743305+142649295
4127+142600562+142452661+142156614+141708716+141167214+140801820+140911801
4117+141484479+142247649+142909793+143206588+142979068+142385171+141840043
4107+141650064+141848772+142393332+143245869+144124486+144514345+144277230
4097+143979173+144212392+144776214+144871424+144005730+142530602+141346840
4087+141081319+141510270+141903475+141885700+141706940+141729512+141956563
4077+142135007+142151799+142155000+142280465+142416084+142318502+141901076
4067+141379962+141146923+141432230+142041429+142502719+142512792+142181612
4057+141870253+141770425+141673367+141366959+141157105+141539362+142452318
4047+143385015+144043560+144370961+144184157+143383662+142360886+141752877
4037+141784665+142030509+141915649+141441942+141222033+141708148+142688757
4027+143652637+144286185+144504714+144361763+144062254+143849108+143847269
4017+144063093+144353683+144413345+144079821+143633772+143534413+143927564
4007+144590293+145163728+145334887+145093921+144852018+144980387+145324642
3997+145514279+145519347+145485746+145309420+144866293+144443880+144537557
3987+145309853+146404276+147199631+147286869+146846032+146471738+146548606
3977+146938681+147318287+147596614+147842737+147956669+147692437+147064643
3967+146581494+146909455+148188977+149708212+150521701+150471490+150189043
3957+150097016+150091668+150215618+150957146+152651786+154809159+156261120
3947+156343309+155809381+155774824+156018125+155360383+153614837+151967170
3937+151569159+152755996+155143937+157660021+158887510+158361482+157293518
3927+157205251+158178456+158902353+158620203+158424372+159736431+162094847
3917+163169935+161292116+157488177+154185521+152810320+153376495+155840258
3907+160861153+168499096+176559579+181639037+182355955+179555250+174235178
3897+168072084+163936271+163761325+166527996+168516086+167408065+166022727
3887+167847774+171672220+173806146+174327016+175432801+175422827+171920860
3878+168038267+168240699+172563218+178184954+183078770+185545797+184120222
3868+181170686+180598433+182052955+181601018+177787790+173714651+172797213
3858+176638539+185854694+198642975+206058249+199880203+187376886+177598686
3848+172943428+172863818+176075700+181287576+187662319+194389587+199352047
3838+199720173+195730214+190866337+187156003+184179577+181731307+180699811
3828+181223098+182575322+185645101+192357490+200706958+204169789+201578694
3818+198177258+195008337+189378503+182494919+178556975+179701934+185250932
3808+191967036+196222552+198875833+203089542+207581380+207978254+204905464
3798+202232578+200292391+197910149+196005186+196048977+197867874+200676190
3788+204524190+209581463+215209241+221232884+228901920+238665818+248351459
3778+256075793+263535724+273619069+287361707+303679099+319228226+329768018
3768+334411986+335593142+335298043+335291225+337603181+342216886+346657556
3758+349580524+353355426+361549571+375815676+393942713+409047153+416873839
3748+422768184+432961331+446372870+455429084+458360133+462261825+472728031
3738+490612633+511830045+528601053+536210626+537807215+539618646+545254215
3728+554939369+566401685+576472838+583412855+586481444+584665324+578560359
3718+571391613+567074596+568311049+574304662+578338304+573203621+561791408
3708+551628020+545560208+543276640+544219653+547364135+550843504+553266524
3698+554651050+556216294+559732420+566445115+576123668+585791471+589574417
3688+584620848+575711120+568924731+566859322+569423381+575114536+582628989
3678+591221109+597563821+596736633+591264792+587478672+585217504+580090397
3668+572079674+565645810+563278196+563709284+564170998+564023863+564980763
3658+567151247+568024751+567568232+570155809+578734114+590212410+595124605
3648+587243559+573360134+562558681+557796543+557490334+558417980+558557540
3638+558556566+560273995+564348396+570187696+577822808+586636551+591343896
3628+586184396+575669457+568428461+568159838+574483179+584043454+590957031
3618+592104460+591555202+594112588+599049491+602755424+604319044+605043681
3608+604572987+602351497+600769120+602804156+608001134+612997519+616333541
3598+619933172+624386467+626647418+624747974+621522330+620864606+623153043
3588+625300082+624574543+621899204+619914703+619742282+620751919+621912406
3578+622535646+622240367+621158010+620059782+619928987+621523557+624779716
3568+627604679+626837226+622593216+618483825+617272766+618619165+620049826
3558+619577725+617728708+616895532+618484619+620869006+621209664+619152732
3548+616800881+615561181+614847258+613583679+611589727+609507329+608238628
3538+608257746+608967846+609032919+607916872+606568886+605809945+605079356
3528+603399406+600845663+598460374+597018783+596378950+595845599+595029124
3518+594290383+594223254+594828387+595404699+595096505+593551282+591469244
3508+590115595+589704021+589025086+587347553+585676332+585162640+585547918
3498+585865093+585414345+583857254+581578051+579730369+578894487+578523782
3488+578217717+578433532+579297657+579567903+577725920+574013134+570434136
3478+568423628+567467485+566445295+565455822+565325064+565844239+565576373
3468+563434854+560115894+557568464+557012533+557854402+558589608+558317089
3458+557206560+556041492+555444944+555292796+555151360+555297160+556323642
3448+557656262+557737711+556019633+553486127+551131606+549123154+547238896
3438+545270303+543265133+541731416+541240954+541776902+542716560+543336879
3428+543301168+542785096+542044515+541065972+540024051+539632497+540320991
3418+541420733+541612813+540083533+537339298+534788261+533276439+532237512
3408+530689006+528689680+527146260+526625930+526923988+527359910+527268974
3398+526592817+525902231+525588302+525275889+524184406+522056810+519680106
3388+518138381+517561348+517196162+516755767+516735423+517205288+517486752
3378+517324792+517413492+518202985+518892308+518462554+517372514+517043183
3368+517704948+518144946+517735428+517186026+517046321+517043832+517045744
3358+517285222+517560554+517270685+516278795+515050278+514025708+513270771
3348+512669173+512301786+512418116+512734426+512419162+511490867+511231802
3338+512347525+513795428+514226841+513537662+512195015+510261375+507993534
3328+506284402+505761728+506116237+506631805+506803252+506372560+505487911
3318+504869035+505111723+505838380+506155700+505878131+505636236+505801551
3308+505996408+505750222+505136071+504676125+504887251+505868463+507097558
3298+507743488+507424545+506506998+505648573+505270220+505405127+505725801
3288+505733773+505267515+504699500+504387771+504163011+503638173+502891460
3278+502548025+503099880+504263000+505104797+504909002+503927898+503053060
3268+502715720+502506759+502050637+501643897+501581024+501534168+501191165
3258+500860211+500794597+500483879+499239381+497254917+495508992+494752829
3248+495078950+496142621+497226276+497338386+496030367+494063145+492622275
3238+491960438+491317070+490087795+488491422+487061734+486039292+485371035
3228+484944744+484675219+484573101+484824193+485588112+486606334+487144446
3218+486485062+484610182+482390821+480892995+480396112+480293345+479999147
3208+479533286+479036187+478292684+477139844+475902994+474960234+474124858
3198+472879314+471116436+469378483+468398244+468328663+468324947+467306906
3188+465331892+463626944+463128799+463638018+464423436+464866067+464425852
3178+462776346+460295648+457987480+456626688+456032052+455242920+453561815
3168+451402369+449805238+449189212+448953449+448314410+447171453+445951160
3158+444921720+444025997+443216195+442551617+441952760+441195912+440267327
3148+439410994+438679683+437776060+436611930+435679522+435458657+435709750
3138+435683165+434900129+433483391+431856682+430379128+429266111+428576463
3128+428105335+427533713+426895502+426564656+426603036+426581357+426265156
3118+425912090+425602994+424902092+423591404+422241002+421542119+421388744
3108+421137363+420551276+419873964+419120759+418023685+416715558+415846996
3098+415873761+416537835+417085686+416884552+415844471+414332361+412855276
3088+411845711+411437889+411340929+411152961+410811402+410495092+410185817
3078+409708665+409115760+408635687+408279627+407831621+407213935+406556788
3068+405937803+405299124+404531202+403472941+402014432+400348406+398978308
3058+398344895+398420032+398642015+398383852+397613296+396820593+396231692
3048+395535443+394466974+393206101+392066968+391138419+390330782+389584827
3038+388989506+388746277+388982291+389523722+389889774+389667394+388902538
3028+387946719+386963956+385814362+384407833+382960506+381860872+381320703
3018+381117946+380786992+380143804+379428654+378872686+378409097+377906660
3008+377416162+377032795+376681172+376195940+375544745+374836051+374150407
2998+373468731+372713902+371791306+370701735+369703857+369183781+369173392
2988+369126680+368461272+367299667+366340782+365945441+365744343+365329883
2978+364896342+364778136+364699464+364051262+362763011+361368276+360299483
2968+359575784+359038501+358472830+357673922+356739242+356049305+355711317
2958+355361064+354702041+353882067+353221060+352876903+352792929+352726991
2948+352393692+351746320+351011078+350388703+349919956+349630844+349493448
2938+349200477+348323510+346880044+345526539+344944167+345118644+345448300
2928+345475823+345159910+344478847+343304653+341776924+340346875+339340666
2918+338759737+338473222+338374423+338371681+338303218+337934533+337234244
2908+336576194+336330873+336353093+336232471+335873922+335439298+334951686
2898+334360476+333773019+333242806+332524121+331428093+330271971+329566920
2888+329332385+329099905+328593283+328083739+327983641+328251218+328327834
2878+327757510+326770202+325964151+325520474+325149047+324704721+324383145
2868+324327775+324392812+324308405+323948954+323463434+323090781+322781541
2858+322198196+321248437+320383988+320113453+320385683+320671801+320517740
2848+319840393+318842119+317832734+317028452+316437459+316029168+315886650
2838+315978343+315961606+315501480+314673498+313860342+313339653+313052813
2828+312726692+312210259+311649999+311269879+311065283+310810150+310316117
2818+309603672+308829978+308119120+307513122+307035970+306686836+306416409
2808+306212353+306099089+305987990+305715290+305242287+304594157+303701428
2798+302593749+301599713+301014041+300693944+300284372+299726204+299276647
2788+299100961+299047937+298800758+298158327+297216198+296271147+295484828
2778+294751732+293964583+293185100+292465242+291782304+291200509+290814402
2768+290552632+290281628+289999207+289724632+289343052+288718783+287873253
2758+286969450+286152326+285449836+284850403+284396156+284104574+283880445
2748+283610920+283263697+282815150+282190052+281367445+280503807+279857228
2738+279524903+279300359+278897947+278278404+277636298+277141760+276807342
2728+276535870+276207981+275762554+275238023+274722708+274242887+273727337
2718+273122205+272501886+271978491+271546392+271124754+270704541+270349275
2708+270082599+269836250+269517758+269120829+268737968+268421099+268066103
2698+267491090+266633242+265671760+264919835+264524205+264313945+264038198
2688+263675176+263371762+263153800+262877314+262455532+261976162+261557590
2678+261224543+260983262+260854433+260759584+260557530+260242321+259934614
2668+259685235+259437677+259136283+258781161+258426075+258119360+257801626
2658+257359986+256833273+256410174+256172861+255994271+255729688+255390960
2648+255094021+254893356+254691465+254324475+253779852+253287659+253086002
2638+253104488+253022625+252660414+252160321+251756070+251505969+251290389
2628+250962645+250493194+250028054+249764102+249717011+249694701+249567387
2618+249440975+249458758+249554546+249540875+249338334+249011636+248675217
2608+248419291+248236373+248042454+247837731+247732709+247742033+247720625
2598+247574266+247383791+247275775+247284649+247348062+247365052+247264683
2588+247054243+246804251+246602955+246525437+246575432+246627573+246514345
2578+246224819+245919349+245690278+245452297+245151174+244919073+244908594
2568+245087724+245283429+245374437+245415432+245577248+245952408+246467272
2558+246988647+247399608+247567448+247393025+246913529+246267131+245594274
2548+245029054+244680605+244541388+244487551+244410845+244292640+244146028
2538+243949944+243663033+243294456+242943247+242707503+242543649+242319556
2528+242032734+241833855+241805882+241879972+241976499+242054016+242023013
2518+241789343+241410648+241094140+241003673+241117587+241283064+241366136
2508+241329055+241218370+241118705+241084978+241096268+241089379+241001942
2498+240789013+240496402+240279559+240214108+240169145+240012866+239808756
2488+239676014+239612654+239543848+239403242+239149931+238820762+238519999
2478+238285319+238056447+237793414+237508343+237200979+236866345+236521395
2468+236170258+235823739+235556541+235443818+235466074+235539641+235565919
2458+235447461+235190326+234937611+234757038+234516694+234118737+233687577
2448+233400990+233298006+233315898+233350328+233259734+232969198+232585615
2438+232293762+232140008+232021135+231863467+231679666+231461073+231184316
2428+230945902+230913528+231097132+231309736+231392195+231366873+231340433
2418+231352589+231376270+231408211+231479668+231594844+231721112+231827702
2408+231889420+231886697+231850229+231867561+231985875+232129674+232186919
2398+232190057+232322998+232701080+233243124+233849988+234639355+235919635
2388+237998985+241095096+245375880+250971103+257913104+266140706+275603462
2378+286293401+298109216+310717699+323593579+336191566+348085368+358952651
2368+368428375+376054000+381406806+384187761+384289266+382043248+378133296
2358+372844949+365798774+356740649+346388031+336680549+330022610+327959546
2348+330824548+338030266+347855449+357441190+364262027+367500079+367834929
2338+366524818+364442240+361880706+359121573+356489628+353862372+350798762
2328+347218032+343454493+339651637+335512342+330705945+325302206+319698019
2318+314250165+309090990+304192467+299481063+294910464+290463482+286077892
2308+281630784+277087671+272625250+268516670+264925985+261830902+259056548
2298+256383535+253718837+251174582+248941676+247103300+245569457+244160907
2288+242762458+241404859+240211583+239307761+238739944+238393605+238031215
2278+237503870+236875796+236289150+235795712+235366950+234991195+234682929
2268+234392879+234004157+233513731+233121022+232985592+232996847+232938952
2258+232765539+232553710+232308551+231985406+231634522+231371418+231227205
2248+231136215+231058716+231027225+231064974+231116700+231076679+230889307
2238+230635545+230486859+230533932+230692934+230820591+230881191+230950339
2228+231102614+231374195+231800703+232390433+233073426+233759918+234420149
2218+235056123+235660192+236245990+236863045+237567860+238406844+239399166
2208+240521418+241720537+242920432+244041908+245078706+246131412+247307987
2198+248593082+249856283+251016066+252135721+253274511+254352611+255301377
2188+256191654+257066438+257847184+258508173+259132045+259741506+260244629
2178+260556358+260690669+260727426+260688325+260479977+260010292+259324882
2168+258590199+257945496+257353710+256657677+255833916+255034449+254330012
2158+253618974+252810020+251940250+251142424+250540466+250164314+250034403
2148+250205201+250630374+251394743+253174972+256797490+262251801+268783833
2138+275821441+283186811+290739572+298408572+306299033+314518320+323116428
2128+332136029+341568828+351333231+361220600+370848942+379868760+388153769
2118+395699965+402474631+408268336+412704173+415759776+418095142+420494391
2108+423431969+427329296+432503008+438688232+445103339+450977953+455761229
2098+459019012+460531014+460560628+459638717+457883738+454917520+450405357
2088+444144383+435940246+425817330+413883273+400135837+384987355+369420120
2078+354305256+340188378+327494478+316358607+306675509+298480625+291820269
2068+286488078+282203200+278619134+275253984+271949092+269019685+266677898
2058+264861057+263513486+262505995+261659257+261106842+261176586+262029096
2048+263760989+266507479+270380043+275655801+282742719+291750633+302561627
2038+315226652+329741073+345639839+362018534+377596843+391076485+402003322
2028+410846752+418142143+424175291+429171063+433198500+436096290+437495678
2018+436845672+433865170+428934038+422669096+415437839+407402083+398590794
2008+388949683+378575927+367810978+357062657+346638041+336678421+327200028
1998+318316307+310446407+304054891+298990367+294334531+289302940+284066681
1988+279262484+275185178+271821977+269105066+266852159+264847891+263052278
1978+261514430+260213770+259081653+258044710+257158348+256752094+257064580
1968+257634291+257533093+256439680+255021103+254041676+253577979+253300428
1958+253112983+253155042+253390264+253576338+253602507+253631184+253885162
1948+254479762+255572976+257322418+259210049+259873816+258598658+256449149
1938+254909841+254318541+254198821+254230257+254414040+254774573+255249110
1928+255871196+256990273+258847640+260849509+262147645+262983959+264052283
1918+264769345+263982702+262204060+261218285+261899546+263547447+264830757
1908+265034362+264540563+264179218+264318977+264756829+265248409+265889992
1898+266946052+268265073+269172754+269505494+270156347+271577161+272557075
1888+271822969+270000501+268492250+267709412+267341971+267175484+267108518
1878+267053851+267045212+267272768+268309386+271127478+275936111+280609947
1868+281629341+278239393+273461473+270154507+268820211+268594837+268658232
1858+268673328+268633848+268634678+268751387+269185379+270293833+272359242
1848+275666641+280319933+284807730+285759869+282176254+277533891+275062662
1838+274876913+275419047+275955752+277563776+281482639+286603398+289678551
1828+289489465+288154519+286939745+284947759+282088583+279916133+279380094
1818+279941978+280796742+281993842+284058727+286751470+288694687+288772529
1808+287577143+286761029+287622774+290523234+294585119+297798047+298646012
1798+297994131+298383340+301631023+307012560+310639713+308861035+303644723
1788+299870706+299543791+301383123+303631521+305834145+307784811+308880442
1778+309618425+312025610+317728272+325784913+331931938+332295465+328231884
1768+323272472+319496705+318442412+320858614+324866429+327259401+327786187
1758+328379416+329263452+330217972+333129290+339731859+348052651+353261424
1748+353415124+351193995+349669693+350104713+352318195+354949274+356427189
1738+357728101+362188827+370512396+376680523+374417876+367301290+360745685
1728+356163543+353941369+354140482+355834681+358897534+365254097+376276596
1718+388639902+394176925+389698776+381145649+374339277+371492527+373095609
1708+378621521+385785722+391507970+395945358+402440940+411571677+418222186
1698+418849683+415230682+408342607+400365576+395935799+396798337+401162932
1688+407764167+418057376+431456002+439018862+434085782+424556060+418799147
1678+419045045+424010553+429978087+434018293+437707381+442825110+445952170
1668+443234952+438647111+438341659+442830196+447511498+448726669+448696153
1658+452104136+462057481+479425505+498773700+505575708+500696880+499452491
1648+505048057+509796452+506508405+499477633+495917031+498101295+506049614
1638+519103506+533401895+540172810+536436108+531087702+531141557+536744445
1628+544826589+553281422+562453858+571935245+579261585+584543151+591791289
1618+603213602+614590862+619343333+619002603+619344487+622115415+625620972
1608+628105061+629615512+631292468+633802817+636928182+640442684+644831989
1598+650803021+658299872+666221931+673289171+679235170+684687641+690047914
1588+695239301+700135191+704483086+707920540+710660302+713952173+719570139
1578+728318953+737766180+743285023+745958197+751955923+763749302+777538147
1568+788003741+795927748+805407944+818142641+835073156+858952525+888470493
1558+907261567+906448591+899902582+895373465+892728642+891136598+889911543
1548+889129011+890434361+894867889+901397161+908188528+910728167+901469520
1538+884575582+872281316+866996649+863246673+856360871+848738998+844903677
1528+845187991+847437544+850988695+856507609+862077673+863663946+861414898
1518+858644475+855541475+851277771+847972698+848748376+854968085+866043067
1508+877598736+878457234+864376716+849298104+842465110+843041170+847296217
1498+850675163+849091271+843182064+838647753+839708250+845398143+850304422
1488+849494259+843979818+838086555+834362767+832574494+831550068+831584264
1478+834378349+840792987+849462805+856393263+856219904+848635473+840498501
1468+837341466+839117546+841677673+841170005+839511806+841948424+850522148
1458+860331748+860722689+850259765+839429491+834063519+833751790+835475856
1448+835386183+832002763+827546727+824448199+823102378+823612498+826698113
1438+831286315+832876483+828734700+822948425+819955153+819609806+819480238
1428+818555297+817761150+817551648+817589162+818563377+821599790+824877953
1418+823829864+818057657+812201259+809040616+807762753+806597433+805186755
1408+804538986+805033452+805412056+804736224+804354950+805908181+808836525
1398+811530404+813414771+813908948+811640350+807259558+803894607+803343726
1388+804128855+803541830+801514260+800932068+803847210+809364825+815227861
1378+820653134+826524537+832644040+836799458+838107693+838657853+839887885
1368+840905458+841473293+843222897+846580417+849198186+849035432+847084622
1358+845344469+844398101+843787485+843211426+842726916+842325514+841993225
1348+841926854+842203088+842717393+843758340+845754383+848149809+849608606
1338+849727641+849600165+850452819+852562920+855388027+858297974+861186855
1328+864273263+867503812+870669649+873924726+877610568+881709498+885914334
1318+890144564+894691428+899762841+904953362+909396990+912503526+914490407
1308+916330190+919001994+922481363+925693515+927786085+929041945+930190312
1298+931434918+932549883+933283357+933238484+931956293+929618798+927200359
1288+925427236+923905242+921771262+918980351+916388553+914698900+913704413
1278+912597023+911052520+909871473+910148933+911795662+913393045+913762993
1268+913215141+913036949+914275783+917029613+920372632+923102800+925073737
1258+927274882+930017242+931947275+931799527+930340297+929470040+930013779
1248+931216470+931823767+931118211+929192002+926602657+923804603+920907787
1238+918008805+915412896+913326457+911726621+910571834+909691909+908582283
1228+906808078+904625979+902846796+901970479+901646703+901069417+899928769
1218+898879166+898842661+900011445+901795894+903515847+904961731+906337780
1208+907706327+908775698+909502535+910643111+913188809+917251884+921767294
1198+925202945+926719384+926895412+927201874+928667020+931085531+933478575
1188+935331271+937244206+940099397+943869645+947748107+951074101+953653057
1178+955631859+957222100+958123162+957850607+957143320+957689873+959934736
1168+962628111+964684826+966046664+966952270+967737832+969100319+971570700
1158+974587562+976594067+976804002+976660149+978200684+981386504+984540077
1148+986845613+988474594+989103462+988590022+988318477+990129763+994213255
1138+998415638+999789018+997710083+995146854+995746359+1000249866+1006268657
1128+1010870421+1012820293+1012652129+1011548562+1010827352+1011995342
1120+1015350986+1018521080+1018927315+1017310670+1016663189+1018805250
1111+1023234738+1028075367+1031716263+1034039546+1035640103+1036327623
1103+1035746009+1034535527+1033537288+1032903371+1032761394+1033647017
1094+1035783739+1038541826+1040756678+1041902376+1042940148+1044535583
1085+1045419331+1044692421+1044143993+1045880178+1049169019+1051700216
1077+1052794116+1053224807+1052829249+1050660063+1047533833+1046433513
1068+1049245995+1054468331+1058928840+1060654709+1059982123+1058874517
1060+1059027964+1059953843+1059567375+1057299498+1055239464+1055633651
1051+1058628222+1062653638+1066047302+1068249241+1069622188+1070002235
1043+1068701214+1066250456+1064013600+1062199717+1060640497+1060625636
1034+1063588607+1068445685+1071855581+1071716778+1069699741+1069271647
1025+1071500278+1073741823+1073104515+1070466978+1068755466+1068377799
1017+1067603924+1066346694+1065664224+1064676303+1061678558+1057800601
1008+1056180276+1057852832+1061167499+1064096275+1065003397+1062988164
1000+1059053647+1055454088+1053228487+1051612419+1050260104+1050254766
991+1051833320+1052981615+1051950119+1049279036+1045825494+1041449320
983+1037257975+1035777968+1037149544+1038373878+1037485585+1035500940
974+1033570186+1031223024+1028268781+1026051332+1025614292+1025544457
965+1022576147+1015183832+1006173428+1000263068+999243115+1000438158+1000146124
955+997690460+994792344+992292889+989603555+986207222+982397368+979229943
945+977961747+978959120+980949753+982019123+981222019+978817360+975609103
935+972457550+970011120+968737152+968926599+970171277+970928991+969611449
925+966647468+964353475+964305717+965665317+966367266+965731833+964946632
915+964705459+964291793+963692648+964208324+965718631+965769924+963094008
905+959789369+958333602+958628377+958964778+958441455+957433478+956237857
895+954535001+952586500+951732619+952691612+954449512+955750317+956371898
885+956267796+954955810+952351748+949148613+946233183+944316136+944165863
875+946338440+949828846+951787376+950311120+947096010+945425763+946566050
865+949333226+951942050+953239680+952913306+951242987+948534967+945288764
855+942873932+942878982+945450796+948905637+951102670+950693981+947634627
845+943516146+940846723+940973333+942416475+942043065+938885380+935642928
835+935382637+938289409+941835077+943586485+943344519+942155463+940806756
825+939800293+939376599+939358564+939844373+941668067+945297926+949613933
815+952765486+954260354+955013307+955592180+955700538+955172526+954519347
805+954405794+954912957+955193664+954473897+953549316+953864002+954892973
795+954590191+952918140+952184665+953424726+955357428+956912608+958176619
785+959210640+959952628+960831109+962158751+963341530+963438129+962398264
776+961283371+961204519+962224256+963359133+963535666+962493998+960876631
766+959521142+958789543+958567488+958220410+956596262+953569300+951228486
756+951760250+954846297+958974012+963925308+969266175+972297610+971137556
746+968048911+966370512+966170460+965598513+964842458+965619435+968070265
736+970390518+970649943+968474264+965130957+961837644+958537188+955030622
726+952087561+950289694+949277748+949648634+953320047+959786339+965401564
716+967744686+967305481+965606233+964518826+965612076+967948633+968294557
706+965310808+961271901+958491594+956871414+955340402+953283110+950819149
696+948920931+948033432+946057300+940287545+931953768+925737594+924558494
686+926814756+928337688+926398493+921924133+917863799+916205599+916959851
676+918368148+917841218+914316111+908713222+902314672+897876887+899589915
666+905846272+910408575+910908668+910284129+912069588+916339063+920128574
656+919692255+913373134+903247044+893679843+887811325+886481519+888661455
646+890707781+888785756+883576623+878709229+875190325+871626261+868588333
636+868569576+872016697+876190006+877557254+874516080+868863918+863779302
626+860331893+857057769+852665435+848427702+846347180+847044078+849885345
616+853206794+855274835+856452060+858663449+861364326+860836819+856126985
606+852188139+852948162+854489418+848744481+836120306
##END=
