##TITLE=<SNM>
##JCAMP-DX=4.24
##DATA TYPE=INFRARED SPECTRUM
##DATE=3/5/2025
##SAMPLING PROCEDURE=Instrument type and / or accessory
##ORIGIN=Admin
##XUNITS=1/CM
##YUNITS=ABSORBANCE
##RESOLUTION=4
##FIRSTX=4497.3318
##LASTX=599.83466
##DELTAX=-1.4281778
##MAXY=1.7501616
##MINY=0.1909699
##XFACTOR=1
##YFACTOR=1.6299651e-09
##NPOINTS=2730
##FIRSTY=0.21314327
##XYDATA=(X++(Y..Y))
4497+130765548+131619193+132557703+133254178+133546220+133202489+132299880
4487+131404941+130933195+130763245+130745756+131073835+131826314+132566424
4477+132699514+132073688+131142702+130603872+130812877+131484193+131971014
4467+131761251+130699223+129053186+127543026+126962106+127527548+128814414
4457+130342538+131765474+132460761+131752218+129941972+128362196+127954809
4447+128351216+128588598+128162059+127188754+126119925+125493121+125621420
4437+126404214+127452108+128281682+128488182+128009936+127210000+126494482
4427+125917137+125349226+124877919+124691623+124627016+124267653+123638673
4417+123406777+124124717+125549217+126896000+127536727+127288018+126321205
4407+125109733+124255476+124043125+124246562+124483560+124553395+124402762
4397+124067534+123705136+123512943+123576187+123769898+123773417+123401173
4387+122976554+122953781+123160857+123023224+122436297+121703748+120823354
4377+119669211+118625111+118168934+118048076+117680156+117245051+117592585
4367+118976338+120485803+121032879+120581447+119969151+119748509+119751700
4357+119661221+119476324+119413244+119639975+120072410+120390169+120374325
4347+120125928+119803599+119416078+119015630+118738243+118596753+118548775
4337+118647052+118831007+118783332+118290925+117586487+117161959+117370324
4327+118245754+119473782+120470152+120769919+120500330+120269649+120457454
4317+120877164+121233528+121491388+121662170+121616944+121275463+120770275
4307+120313229+119951187+119507809+118880127+118376969+118467704+119105615
4297+119613646+119468114+118971502+118832415+119259174+119874797+120397857
4287+120877465+121257965+121235887+120705413+119987883+119475053+119284296
4277+119326642+119502113+119733553+119927976+120017558+120049985+120247050
4267+120910468+122097257+123309076+123674674+122743871+121145509+120128698
4257+120318166+121248101+122195140+122942591+123562356+124054434+124397542
4247+124531528+124316014+123831094+123441681+123296286+123139099+122817793
4237+122596822+122775091+123198193+123336950+122942847+122496424+122709936
4227+123704688+124918098+125604453+125354236+124518903+124103087+124684574
4217+125531051+125493075+124587413+123883624+124009171+124540249+124773462
4207+124607617+124629878+125355049+126368387+126643982+125956246+125296577
4197+125512630+126271198+126813859+127057932+127392511+127846147+128032608
4187+127770689+127304117+126921213+126669936+126438012+126125456+125795594
4177+125704777+126035700+126643397+127298998+128058032+129057702+130030732
4167+130408471+129968694+129074971+128194175+127501896+127083877+127102655
4157+127474241+127754983+127699583+127622195+127933636+128573230+129076105
4147+129058579+128544698+127920728+127641933+127859458+128239528+128285924
4137+127952707+127761885+128164682+128966894+129575999+129753089+129906080
4127+130491544+131255844+131373995+130446172+129084744+128263590+128252793
4117+128489160+128497004+128525865+128981512+129642306+129965357+129830266
4107+129488565+129160522+129094096+129555594+130361892+130879367+130824450
4097+130585149+130506089+130413078+130120543+129826316+129686718+129556316
4087+129434087+129632158+130250524+130943635+131352676+131410819+131240037
4077+131046510+130984216+130936184+130684980+130338918+130186804+130152540
4067+129911639+129518148+129339239+129417568+129435788+129257190+129065043
4057+129033804+129171273+129380863+129482001+129326852+129026098+128885219
4047+129069120+129495046+130014870+130448220+130493564+129960338+129090000
4037+128325792+127854997+127718077+128127017+129163978+130287869+130667583
4027+130107452+129367058+129421673+130440340+131596027+131967083+131492887
4017+130856475+130558838+130447909+130176922+129779866+129544980+129546068
4007+129643915+129832030+130234416+130816122+131363939+131713475+131833372
3997+131754065+131541897+131322462+131244563+131333459+131419504+131339127
3987+131194537+131261329+131627156+132072545+132340086+132413040+132477006
3977+132664125+132911947+133080562+133146878+133199847+133259645+133231999
3967+133189818+133585146+134793455+136400530+137381038+137162590+136155039
3957+135135321+134529279+134374029+134679829+135584450+136958979+138068334
3947+138296364+138103056+138343600+138914729+138998388+138406580+137778304
3937+137688639+138343546+139724319+141359212+142248831+141832869+140927654
3927+140864812+141840685+142682912+142511124+142070095+142614749+144048646
3917+144822207+143724278+141321419+139128835+138031840+138043486+139216873
3907+142163444+147191761+153034294+157222341+158366208+156826876+153255037
3897+148704902+145285140+144740669+146620495+148276562+147961592+147626766
3887+149642068+152857990+154395302+154398684+154827810+154817443+152656646
3878+150148279+150043164+152338120+155566558+158956051+161343305+160985632
3868+158899224+157899819+158199823+157586852+155275476+153061738+152819630
3858+155535896+161985257+171389389+177409807+173414107+164188354+156753356
3848+153373901+153755964+156638660+160569653+164708955+168770623+171807490
3838+172157538+169849783+167005520+164823139+162824567+160795588+159524940
3828+159410080+160252333+162819685+168171967+174177740+175888631+173278988
3818+171029157+169949577+167328452+163223396+160578008+161262690+165005430
3808+169539466+172460577+174648572+178226262+181592844+181244863+178438740
3798+176714740+176066516+174848635+173460329+173592559+175887680+179834049
3788+184736929+189948114+194802943+199475609+205302106+212949290+220938129
3778+227603186+233750788+241385063+251461426+263389083+274934001+283432836
3768+288516911+291542844+293440433+295720049+300613530+308469207+317127132
3758+325213461+334566801+347993382+366671940+388748073+408239282+420506547
3748+429463525+440678873+453342974+461306362+464181160+468503247+478363493
3738+493982914+512799224+529956186+541040291+545961400+548597810+552970691
3728+560490618+568924271+573980572+573930985+570483569+564918936+557860680
3718+551361806+547919107+548402646+551291157+552762143+549678981+543655455
3708+538454235+536140026+537272904+541045045+544927146+547025018+548407217
3698+550686614+554111687+558852552+565682074+574515233+582887123+586995470
3688+585756508+582121644+579082619+577752603+578275197+580640491+585433466
3678+592719138+598238061+595893464+588948387+585097771+584755640+582676637
3668+576814413+570124654+565237224+562880230+562447594+563247154+565668654
3658+569675122+572908250+574148931+576797189+584297589+594441603+598910145
3648+593140804+583485522+576985405+574736214+574191569+573249613+572448590
3638+573049439+574613784+576319098+579199600+585033704+593171704+599019850
3628+598890947+596213105+595337118+597004511+601179778+607823425+614649985
3618+618187359+618451380+618118465+618938759+621805987+626930999+632044017
3608+633395646+630636806+627498097+627286368+630708113+636356195+641921121
3598+645585605+647054763+647703334+649303918+652682879+657933978+663970632
3588+666885617+663066231+655045614+648077718+644182343+643159096+645227750
3578+650083549+655239498+657945460+658116160+657649478+657840437+658638937
3568+659291165+659022389+657838828+656620234+655908912+655015336+652539971
3558+647927935+642302233+637497118+634883819+634918559+637105474+640363468
3548+643478481+645175751+644405335+641292443+636995405+632451751+628203275
3538+625215665+624946012+627908537+632763092+637177367+638960718+637506407
3528+635058614+634605609+635921328+635905969+633368732+630426320+628789168
3518+627924407+626892603+625554359+623859795+621674635+619470532+618052204
3508+617476696+617124545+616967449+617611047+618655796+618593703+617173766
3498+616042862+616091498+615895566+614045296+611514311+610209344+610398840
3488+610824199+610894264+611320025+612267174+612494555+611270805+609723537
3478+609090106+609255942+609616210+609488990+607723046+604083793+600711817
3468+599953139+601176487+601780957+600988893+600409289+600965526+601616145
3458+601435425+600857833+600098607+598409383+595897377+594073582+593630962
3448+593479717+592756145+592115582+592191607+592486455+592570781+592918543
3438+593767800+594389128+594256020+593840826+593418282+592126516+589365738
3428+586344047+584962908+585649363+586968848+587033720+585230952+582706403
3418+580979441+580465696+580670367+581116022+581440052+581176798+580187596
3408+579118346+578672984+578811284+579226844+579789370+579994297+579045247
3398+576835659+573947148+570960819+568598632+568038227+570142426+574149333
3388+577553819+577853384+574932438+571448344+570172960+571160773+572004617
3378+570834147+568368509+566466276+565702260+565379144+565020083+564554901
3368+563665895+562402432+561839247+562766065+564362553+565274084+565278765
3358+564942303+564483849+563764190+562804059+561882544+561302611+561129169
3348+561121197+561061847+561081777+561408622+561943430+562376469+562592732
3338+562642245+562507529+562017517+560910346+559199875+557619404+557369425
3328+558863120+561124708+562950148+563924431+563846614+562356978+559759001
3318+557177443+555572983+555230560+556073014+557596403+558621917+558101700
3308+556298127+554558439+553895350+554257155+555044830+555809724+556273407
3298+556169627+555566986+554965880+554601370+554119549+553554865+553890962
3288+555758566+558271120+560136749+561140286+561526627+561092638+559870862
3278+558597453+557771600+557337428+557298739+557455981+557195617+556641172
3268+556914372+558334456+559575356+559420600+558237148+557050040+556106803
3258+554904775+553154847+551305894+550016577+549268322+548616972+548182945
3248+548360556+548703967+548334520+547276899+546276507+545714492+545595244
3238+545920626+546380982+546356444+545610383+544470155+543468154+543187933
3228+543837637+544667256+544569108+543373040+541844130+540594051+539554494
3218+538385926+537052179+535932868+535460701+535575708+535664422+535230725
3208+534385783+533433259+532321773+530908747+529454143+528382370+527682860
3198+526912956+525818584+524718105+524048105+523733876+523371157+522880853
3188+522551375+522427153+522114021+521393557+520571178+519847021+518795031
3178+516994859+515015175+514044915+514338812+514739086+514113443+512600587
3168+510968554+509463743+507810647+505919604+504257842+503438937+503422810
3158+503416850+502754090+501554256+500322096+499306162+498434965+497590791
3148+496752798+495951884+495182200+494477461+493963570+493536089+492700729
3138+491154961+489306775+487799147+486772536+485963468+485260264+484819180
3128+484744289+484839731+484763194+484430608+484042694+483563141+482548121
3118+480874511+479278389+478721421+479428611+480652799+481154476+480139713
3108+478095595+476413575+475925538+476136499+475980353+475006180+473630892
3098+472433325+471528961+470716638+470018554+469678654+469701509+469830887
3088+469886397+469819880+469610308+469288692+468891819+468364472+467621994
3078+466642555+465494318+464349519+463339436+462411851+461596457+461190222
3068+461263029+461329035+460987123+460431069+459800234+458569865+456296613
3058+453654059+452039177+452103208+453039569+453471328+452826305+451619376
3048+450605673+450025155+449609230+448997045+448072714+447070164+446385354
3038+446119395+445835883+445044770+443841169+442669675+441665516+440746890
3028+440069759+439810273+439733589+439410730+438667704+437626173+436487736
3018+435326444+434099952+432972559+432350500+432279412+432184444+431574855
3008+430624927+429763676+429098796+428479077+427771814+426957042+426173498
2998+425651233+425430399+425207992+424623707+423643830+422523860+421518275
2988+420742338+420191550+419785059+419422268+419044520+418621830+418130575
2978+417597961+417083631+416551237+415851836+414919424+413912230+413111939
2968+412670928+412381309+411754789+410577736+409322538+408614654+408399743
2958+408104164+407452155+406646598+405982814+405684090+405769769+405821696
2948+405306598+404224403+403017986+401961865+401087376+400487404+400202210
2938+399888200+399035689+397667020+396530083+396301350+396808585+397363761
2928+397564813+397353705+396620479+395281503+393619961+392199109+391381265
2918+391027432+390751709+390398242+390038632+389610384+388960314+388165544
2908+387431184+386753944+385963123+385027932+384150554+383540855+383184207
2898+382925342+382680665+382352613+381701665+380634792+379472404+378649659
2888+378299228+378217717+378025004+377426494+376564549+375939199+375807773
2878+375909908+375866538+375533842+374894669+373947959+372854428+371939385
2868+371386476+371067091+370768879+370486646+370371896+370429564+370361291
2858+369801727+368747726+367651379+366969348+366718674+366598621+366401191
2848+366131245+365828279+365435575+364824925+363935699+362943316+362206652
2838+361892386+361734010+361368659+360828658+360452885+360386807+360416866
2828+360243752+359735749+358962262+358097720+357278047+356534655+355851710
2818+355206686+354596841+354121639+353915944+353900951+353797536+353484807
2808+353094406+352665426+352001497+351025532+350017753+349289061+348786543
2798+348216447+347431587+346531867+345702686+345093975+344728952+344404338
2788+343794419+342754534+341486061+340396333+339769155+339485240+339122887
2778+338446232+337661628+337049771+336535003+335814100+334747337+333448806
2768+332133892+331032096+330349115+330161850+330312766+330438780+330208877
2758+329617169+328958395+328438434+327937160+327234687+326337307+325466256
2748+324761553+324100842+323326550+322566666+322047765+321658498+321074945
2738+320248544+319392413+318628104+317963845+317423296+316990075+316605269
2728+316263285+315956150+315603305+315124409+314480153+313652436+312686015
2718+311725884+310980920+310602660+310488312+310284043+309746127+308986133
2708+308253529+307657067+307166031+306716921+306275069+305831407+305309545
2698+304569297+303638019+302827324+302444255+302422186+302359764+301947716
2688+301267970+300622947+300185410+299916287+299693387+299383052+298873476
2678+298155371+297346577+296594299+295965950+295473123+295166445+295068936
2668+295024707+294809504+294387308+293897223+293453561+293062063+292623283
2658+292023055+291329213+290752882+290337030+289926499+289449597+288955489
2648+288439606+287862105+287259354+286726520+286351405+286145290+285982269
2638+285672355+285140546+284523241+284092396+284018766+284161857+284188259
2628+283901986+283352277+282683173+282011217+281409489+280939242+280682023
2618+280677653+280827472+280942552+280889876+280643169+280240098+279763452
2608+279356175+279159274+279125997+278977001+278533101+277993156+277655304
2598+277522269+277414156+277261703+277067838+276781345+276394108+276038045
2588+275863652+275852334+275817466+275632066+275383605+275196705+275014670
2578+274742530+274490704+274439875+274538846+274550438+274366336+274101273
2568+273895175+273784155+273775671+273910735+274238275+274799430+275565604
2558+276325488+276772350+276797033+276540673+276117105+275504517+274741836
2548+273995866+273388726+272934844+272630159+272444777+272284042+272088970
2538+271888741+271668254+271345011+270972163+270762902+270810843+270947480
2528+270959620+270839421+270765481+270873576+271060182+271059926+270752298
2518+270292180+269884044+269587971+269418825+269430582+269590129+269740588
2508+269773005+269698315+269531601+269267452+268976901+268786491+268738294
2498+268743267+268670479+268459499+268157740+267841389+267521072+267163509
2488+266759140+266321530+265892075+265567899+265410291+265310716+265070281
2478+264640131+264182171+263848396+263580663+263199441+262647465+262064643
2468+261642502+261462038+261453920+261484016+261483814+261457431+261370837
2458+261161412+260862322+260568790+260292683+259982714+259651572+259368865
2448+259163956+259006238+258861648+258728412+258601393+258431040+258168153
2438+257840302+257540298+257355026+257303117+257303062+257243456+257120442
2428+257018929+256950619+256851228+256746533+256763519+256952411+257207967
2418+257377423+257372596+257203616+256988083+256891763+256961681+257067491
2408+257098757+257119015+257211916+257312607+257324254+257281103+257290812
2398+257410042+257629103+257903254+258153635+258278735+258222987+258038958
2388+257820939+257538012+256971280+255853852+254061067+251656206+248785175
2378+245571245+242122439+238602362+235235030+232212223+229557548+227071871
2368+224546792+222136647+220357318+219628865+220019503+221449899+223931059
2358+227591283+232547004+238826616+246461001+255156920+263622826+269959576
2348+272943656+272846678+271307145+269903681+268641773+266698985+263879589
2338+260472927+256698099+252823129+249295354+246539037+244727529+243658883
2328+242875193+242032171+241129928+240448647+240363992+241082261+242397925
2318+243778990+244767461+245280694+245577243+246020027+246842735+248041746
2308+249438628+250831011+252075367+253075211+253771320+254162982+254321907
2298+254393160+254546215+254863882+255311841+255826591+256321009+256635567
2288+256685154+256614376+256604814+256623445+256532519+256305998+256002392
2278+255654721+255292332+255000427+254886536+254949725+255009624+254880758
2268+254624526+254473335+254506082+254579492+254575470+254519923+254440223
2258+254300515+254121569+253995263+253930921+253820650+253583945+253272514
2248+253056579+253118745+253465337+253844292+253960340+253761867+253463143
2238+253337861+253517483+253921871+254348620+254654713+254867447+255121266
2228+255510862+256037150+256661787+257335242+258012446+258744337+259671831
2218+260820488+262016044+263088238+264044675+265036510+266257682+267813397
2208+269614154+271476857+273319411+275160741+276992361+278765235+280477498
2198+282195520+283979583+285828958+287699871+289526573+291226000+292737887
2188+294066423+295284816+296501307+297725843+298776845+299482919+299945487
2178+300419153+301007277+301588032+301931114+301890889+301561594+301142487
2168+300661178+299982585+299023917+297844890+296555903+295153628+293563941
2158+291926936+290553312+289492875+288493836+287384910+286240037+285306748
2148+284791668+284634883+285004147+287010014+291872651+299317741+307832228
2138+316350865+324714893+332925627+340937577+348840627+356799006+365027768
2128+373687923+382651264+391613509+400337402+408613556+416216932+422877181
2118+428187374+431863962+434112568+435526179+436907647+439281169+443684109
2108+450815245+460902797+473722313+488500340+503578115+516457529+525042683
2098+528814897+528382041+524770690+519254034+512609802+504712565+495298377
2088+484233726+471185075+456008273+439024389+420798433+402331787+384867252
2078+369062101+355048310+342978952+332794238+324140299+316908857+311157653
2068+306683461+303222807+300527157+298113757+295648375+293310214+291344645
2058+289816868+288776251+288084347+287494559+287179087+287579306+288902393
2048+291309485+295149971+300776203+308594014+319106707+332578669+349062084
2038+368662522+391090073+415141648+439032836+460840376+478750785+491695875
2028+499683983+503432611+504063848+502682417+499886826+495916340+490870022
2018+484633561+477210429+468967332+460130992+450539302+440071844+428865162
2008+417163898+405229659+393280792+381476625+370025743+359201819+349210148
1998+340151547+332141681+325316144+319554080+314324995+309152115+304158547
1988+299784167+296179051+293199833+290710372+288629065+286874457+285370760
1978+284042517+282860272+281855199+280978498+280118601+279363415+278944858
1968+278795898+278487793+277777093+276926210+276322087+276063460+276042323
1958+276150894+276244142+276131147+275770897+275345172+275083034+275096509
1948+275410885+276115386+277268505+278415352+278566232+277295730+275447270
1938+274122190+273605319+273552295+273608829+273638212+273663608+273751737
1928+274021372+274745200+276030548+277363107+278156798+278698407+279516727
1918+280113883+279612883+278412884+277799912+278299303+279308509+279965746
1908+279974943+279634421+279328109+279198256+279218350+279330449+279528831
1898+279926234+280566358+281218787+281796654+282696465+283984465+284718861
1888+284094169+282721770+281709366+281338419+281262943+281208274+281117439
1878+281039567+281036587+281186808+281889372+283890942+287331795+290656452
1868+291435151+289211685+286058861+283914163+283122684+283094947+283260089
1858+283407549+283597447+283905496+284262565+284668105+285382206+286736723
1848+289007105+292210869+295256750+295954559+293757478+290932194+289494375
1838+289453546+289813924+290190502+291400557+294297588+298038481+300340495
1828+300389679+299583097+298687345+297184343+295290374+294171063+294279432
1818+294963675+295547411+296186035+297486541+299434247+301028834+301348018
1808+300715738+300296668+301032180+303193443+306213141+308746466+309680487
1798+309465211+309858829+312261826+316211614+318942809+317966625+314736276
1788+312602933+312870976+314624853+316666777+318634613+320306102+321275302
1778+321941572+323722180+327757903+333424378+337795467+338246022+335775046
1768+332860133+330895222+330836860+333111429+336336512+338280835+338895398
1758+339674809+340839611+342177709+344888901+350107125+356433215+360528618
1748+361021409+359724852+358895744+359624399+361777014+364088078+365195359
1738+365922844+368884234+374607573+378853563+377387549+372723331+368567774
1728+365831168+364695437+365210059+366817335+369481939+374530488+382853559
1718+392006213+396265147+393506490+387919623+383603606+382075464+383630337
1708+387934763+393460561+398107738+402062390+407712483+415257167+420704453
1698+421593935+419560751+415394370+410425065+407843397+408990975+412747721
1688+418375142+426910052+437652977+443982285+441335233+435527678+432595725
1678+434071831+438895998+444339116+448326240+451982204+456636147+460064694
1668+459606496+457753008+458557761+462254974+465728793+466863828+467509108
1658+470894834+479071743+492509843+507167744+512811913+510077062+509783896
1648+514349819+518395672+516904024+512914962+511549584+514343274+521149465
1638+531399197+542328912+547842314+545903001+542757453+543596178+548776372
1628+556056120+563679132+571927934+580807680+588541933+594888428+602743099
1618+613955997+625165348+630491338+630272734+628834513+627886230+626910814
1608+625590268+624688281+625292897+627825746+631974904+637379150+643909472
1598+651250947+658746374+665706078+671590828+676150206+679658837+682776264
1588+686010562+689372848+692504097+695075635+697254945+700080192+705161615
1578+713179892+721742228+726611703+728723654+733314480+742536504+753830034
1568+763498188+771861740+781500274+793452029+808538764+829413562+856096976
1558+876388661+881581763+881632446+883104164+885091857+885767488+884803042
1548+883279837+883020423+885152706+889646481+895422770+897721730+889381655
1538+874636612+864421108+860990293+859884914+856343225+850954777+847420841
1528+846849355+848025603+850652798+855519640+861167429+863861397+862806117
1518+860346037+857285584+853615907+850543094+849447003+851351760+857224808
1508+865588287+868914883+861873558+852253674+847206844+847133343+850121318
1498+853200713+852916872+849046802+845632955+845836347+848951140+851443326
1488+850463083+846726560+842765289+840279100+839583430+840321080+842412846
1478+846012239+850634806+854861707+856574921+853877515+847896957+842839522
1468+841609665+843878640+846758008+847493977+847151115+848989390+854040243
1458+859124591+858521804+851942261+844873364+840311719+838504380+838537803
1448+838213298+835783643+832372503+830192827+829558079+829757594+831108052
1438+833804361+835457968+833468008+829782607+827640451+827012211+825802101
1428+823530202+821975621+822152829+823215058+824504301+826357643+827854593
1418+826512765+822470313+818658386+816443313+814931371+812994142+810779581
1408+809414422+809388312+809659794+809120854+808462336+809052472+810856373
1398+812679071+813554072+812893287+810559807+807837827+806596781+807017898
1388+807093375+804970746+802047642+801821871+805967737+813186928+820839671
1378+826988735+831317149+834527385+837149899+839296956+841269582+843333776
1368+845185801+846610712+848044180+849675261+850881421+851236790+851170528
1358+851134692+851029156+850556185+849651565+848569150+847713531+847396413
1348+847641931+848257591+849302047+851322725+854692324+858823490+862501212
1338+864946006+866219817+866916365+867847900+869504286+871661948+874015394
1328+876984427+881169129+886174125+890772703+894425413+897959276+902259386
1318+906951799+911174970+915031363+919243491+923754525+927553653+929953249
1308+931511267+933477531+936407802+939430225+941199095+941633816+941932869
1298+942739707+943382061+943177499+942303596+940902967+938559174+935288381
1288+932016418+929575647+927931109+926497568+924788963+922812825+920938639
1278+919307704+917761973+916514856+916125041+916522170+916918567+917010426
1268+917401046+918627319+920534050+922620331+924444199+925785588+926749083
1258+927560236+928135012+928203687+927874648+927512185+927010325+925806944
1248+923781586+921316314+918494285+915116494+911326142+907500978+903889956
1238+900764485+898254015+895789109+892671829+889420490+887454738+887158976
1228+887137766+885868855+883557827+881726499+881403457+882365343+883844959
1218+885396176+886980816+888567943+890035053+891505454+893383077+895729795
1208+897974415+899602791+900824237+902283521+904314365+906770494+909440767
1198+912289856+915246237+918032211+920422591+922563650+924776822+927092238
1188+929312430+931518581+934051430+936850203+939285050+940963377+942264322
1178+943589768+944697414+945472949+946584618+948589717+950930877+952362370
1168+952323900+951751098+952398938+955299662+959770472+964156005+967529700
1158+970021520+971750531+972555833+972728873+972935116+973447508+974319436
1148+975736887+977665633+979658591+981161246+981746481+981514274+981528389
1138+982685548+984569315+986549036+988787951+991197567+993076433+994473040
1128+996320312+998907867+1001668023+1004479814+1007697437+1011051458+1013638721
1118+1014946760+1015572659+1016909953+1020049759+1024721546+1028887086
1110+1030047756+1027834658+1024415984+1022014121+1021330591+1022270975
1101+1024467691+1026829402+1028469479+1030185398+1033000187+1035814099
1093+1036538731+1034987588+1032970860+1032114436+1032868323+1034895363
1084+1037326554+1039162782+1040195463+1041349185+1043711482+1047130448
1075+1049960303+1050594539+1049536260+1048894052+1049884242+1052254363
1067+1055245264+1058335996+1061003050+1062333908+1062108283+1060763456
1058+1058469323+1056016338+1055266400+1057078274+1059650032+1060302626
1050+1058524906+1056296522+1055781205+1057802834+1061768639+1066015213
1041+1069025056+1070933250+1072806924+1073741823+1071062409+1065000377
1033+1059991943+1059651861+1063160711+1066771221+1067423815+1065383317
1024+1063700748+1064556514+1066638040+1067058646+1065423908+1064211238
1015+1065148550+1067239438+1068833440+1069958127+1070622203+1068830222
1007+1063078214+1055405067+1049549278+1047471994+1048796196+1051333360
998+1051941341+1049313926+1045402973+1042528359+1041011443+1040381229
990+1040592081+1041471176+1042293446+1042100293+1040571895+1038945202
981+1039025798+1040535181+1040855736+1038382566+1034202106+1029825642
973+1025603860+1021495806+1017822837+1014816578+1011847252+1007829813
964+1002545510+996950233+992054063+988069170+984854326+982569628+981402960
954+980756364+979129598+975752612+972031081+969808182+968787495+967490280
944+966078826+965939941+966947244+967460002+966629395+965038904+963462967
934+962004707+960187274+957771735+955517973+954477393+954393286+954012540
924+953315918+953804614+955936312+957825563+957529582+955580139+954011589
914+953715022+953824872+953424599+952770908+952315197+951717602+950782411
904+950155195+950237108+950126234+948422016+945301591+942814671+942504574
894+944017102+946471988+949172904+950398373+948252413+943737576+940328994
884+939825672+940822444+941201728+940402057+939168325+938464902+938675753
874+939275103+939598145+939483395+938698718+936882529+934662848+933545182
864+934365477+936716071+939466793+941135832+940499328+937610818+933774098
854+930734854+930150790+932425249+935617201+937080947+936621214+936264456
844+937023243+938088836+938687894+938645475+937695071+936019596+934731889
834+934434810+934266158+933356491+932165397+931607149+931855885+932534149
824+933646037+935530681+938073843+940932952+943953108+946740105+948617875
814+949390192+949715355+950435087+951637225+952858086+954282778+956547364
804+958664946+957942069+953745154+949307475+947981005+949550067+951637299
794+953313505+955227550+957448327+958860805+958687619+957457689+955787041
784+953483912+950818979+949229292+949623350+951256991+952629975+952410420
774+950450373+948628845+949301478+952168193+954010565+952723296+949809774
764+947640996+946855660+947453621+949634466+952475438+954250451+954801605
754+955384134+955811907+954924474+953677211+954511620+958203604+963232954
744+967133449+967631798+964567688+960952351+959719496+960069891+959070706
734+955820098+951871919+948967246+948081714+949001327+949917137+948948596
724+946371719+944301601+944815894+948569751+953862464+957585384+958554145
714+958456435+958416430+957307102+954561207+951554070+949391874+947975813
704+947192159+946994326+946689861+945706034+944680154+944262912+942846339
694+937875205+930501477+925718010+926672875+930850848+932696803+929165134
684+921567025+913622250+908881860+908971233+912426548+915268032+914126377
674+908926620+901783782+894288356+887483115+884158348+887212146+894183040
664+900732963+904518707+903768404+898518109+892059679+887714664+886271615
654+886840760+888090510+888785596+888166133+886126733+883027371+879603870
644+876748783+874881033+873966247+873532038+872708452+871373426+870695162
634+871199362+871257432+869149942+865481435+862383244+862147380+866297049
624+872939270+876131002+871513701+861550735+852867652+850326904+853853599
614+858628729+859563335+856176768+851715027+848839681+848632706+852215351
604+859296534+865846823+867123633+863447520
##END=
