##TITLE=<SNM>
##JCAMP-DX=4.24
##DATA TYPE=INFRARED SPECTRUM
##DATE=2/5/2025
##SAMPLING PROCEDURE=Instrument type and / or accessory
##ORIGIN=Admin
##XUNITS=1/CM
##YUNITS=ABSORBANCE
##RESOLUTION=4
##FIRSTX=4497.3318
##LASTX=599.83466
##DELTAX=-1.4281778
##MAXY=1.8444135
##MINY=0.3895472
##XFACTOR=1
##YFACTOR=1.7177439e-09
##NPOINTS=2730
##FIRSTY=0.40470192
##XYDATA=(X++(Y..Y))
4497+235600841+234748381+234075213+234185384+235220796+236623813+237850540
4487+238937672+239903147+240309997+240081415+239978861+240595313+241502632
4477+241923414+241754793+241455510+241308819+241237633+241100414+240789647
4467+240161727+239248283+238539392+238640645+239408559+239833679+239377538
4457+238918309+239458110+240488213+240658049+239610978+238153813+237090728
4447+236668905+236702667+236777687+236628619+236404409+236421169+236819379
4437+237558857+238414544+238900248+238621265+237873962+237537760+238062588
4427+238852016+238997719+238346724+237493744+237037672+237194323+237819848
4417+238504970+238805831+238497094+237645814+236663266+236171645+236437408
4407+236935431+236804371+235831227+234636441+233886691+233832456+234544435
4397+235857529+236953683+236956858+236254646+236185057+237110871+237878404
4387+237519820+236529969+235920786+235758341+235105073+233236269+230777263
4377+229350494+229863854+231446215+232496287+232457927+232024445+232036226
4367+232679153+233401612+233397604+232461415+231242686+230446266+230164871
4357+230086138+230008516+230166259+230970573+232228339+232995906+232641886
4347+231657916+231016359+231054841+231241731+230929524+230141640+229493369
4337+229448468+229849350+230144103+229909865+229133623+228090490+227149443
4327+226778385+227364475+228644240+229635862+229643825+229091741+228945552
4317+229538686+230233992+230203804+229446715+228697053+228373915+228344247
4307+228667749+229578660+230735155+231492244+231806360+232002307+231905635
4297+231119277+229973209+229388125+229837482+230907542+231793816+231889604
4287+231024791+229557805+228210238+227523537+227514602+227936373+228599877
4277+229331878+229940505+230441789+231043962+231690464+231917137+231477913
4267+230864844+230801275+231368870+231917207+231763263+230866145+229856897
4257+229436670+229798168+230639541+231539088+232188348+232526927+232777526
4247+233074431+233218728+233080000+232763022+232183837+231228702+230460579
4237+230759983+232022259+232880132+232128804+230210986+228851829+229164887
4227+230517590+231526370+231697282+231522172+231528626+231911638+232569330
4217+233060152+233026650+232717826+232551199+232397828+231916114+231275147
4207+230953067+231025485+231083763+230844458+230606733+230903864+231709201
4197+232393074+232615948+232700042+232882891+232891114+232504771+231898088
4187+231290328+230813159+230640721+230767894+230890157+230892586+231071600
4177+231606509+232269683+232797756+233161613+233483623+233877513+234230944
4167+234199003+233680057+233105400+232981957+233418250+234241597+235211982
4157+235933261+235956596+235270711+234442020+234069765+234150355+234170376
4147+233825100+233393075+233343542+233772131+234302563+234534147+234525837
4137+234658770+235071328+235527365+235736585+235531008+234943322+234243592
4127+233641297+233080417+232573667+232344495+232374510+232329435+232172403
4117+232304695+232939381+233755476+234277025+234357718+234193503+234023077
4107+233962839+234042960+234237259+234482237+234766616+235074416+235254732
4097+235212954+235121885+235102176+234928540+234439643+233918979+233684498
4087+233607708+233355513+232863702+232329227+231913633+231661299+231644730
4077+232000642+232714928+233460670+233804038+233549448+232828412+232018581
4067+231641711+231990926+232690934+233049777+233006507+233184567+233882770
4057+234617564+234794514+234311585+233441707+232587581+232136056+232278410
4047+232927930+233781639+234482549+234882616+235099573+235191822+235010136
4037+234562236+234190016+234159342+234414660+234859801+235450558+235945492
4027+236020963+235768682+235672235+235914506+236153185+236191528+236381733
4017+237076831+238025113+238586653+238415966+237800122+237335428+237325070
4007+237631587+238068539+238553098+238887028+238869071+238621630+238480021
3997+238613961+238872905+238974331+238940985+239227828+240050203+240856252
3987+241011757+240587974+239938783+239110353+238142570+237440168+237539512
3977+238676160+240438159+241818310+242066462+241487087+240930092+240744329
3967+240810484+241294089+242541740+244198704+245206652+244992366+244059664
3957+243218603+242931813+243440107+244816301+246798590+248793943+250029744
3947+250136288+249824150+250160526+251031584+251262856+250348718+248967457
3937+248081408+248637657+251259073+255007161+257152936+255953153+253146650
3927+251734004+252410919+253334703+253024196+252492879+253569635+256091916
3917+257544328+255795843+251798475+248219373+246550108+246820919+249134153
3907+254196428+262043518+270708057+276948306+278877834+276638753+271008293
3897+263789712+258186370+256769005+259246939+262100859+262199266+261349045
3887+263046903+266732532+268930321+269434034+270590443+271057705+267964516
3878+263739051+263155061+267041773+272764880+277874155+280397910+278785916
3868+275407810+274614322+276599005+277092430+273641611+269126945+267600051
3858+271169958+280469009+293480356+301208948+295528521+283171761+272952308
3848+267621322+267111883+270348242+275742086+282044898+288551934+293648578
3838+294542365+290826651+285614059+281439672+278549422+276512326+275418515
3828+275202216+275611408+277849640+283816839+291801392+295715724+293972879
3818+291234057+288537447+283272632+276593349+272664633+273724803+279081329
3808+285261461+288580179+290327883+294308873+299530678+300906231+298121050
3798+295113655+292636189+289491749+286520060+285587427+287078095+290129055
3788+293983566+298176188+302212211+306331096+311766893+318615162+324461764
3778+327579780+330141913+335459662+344673249+356848601+369856773+381473673
3768+391361434+400502395+408861197+416457377+424842065+434351915+441863566
3758+444798613+445858887+450034090+459811056+473079265+483259958+487189003
3748+490201742+496697708+504198395+506908832+506149263+508749565+518290714
3738+534164742+552097033+565448728+570317849+568742810+566125748+567013705
3728+572398528+579420918+584357286+586632455+587685095+587584467+585869902
3718+583920282+584589495+590127446+599747917+607544521+606282782+596627194
3708+585220954+577188673+574867597+577532925+581072990+581539177+579357037
3698+577297004+577372614+580950536+588861127+600021557+609833222+611775693
3688+605045471+596131271+590066861+587816051+589173144+594484924+604629356
3678+619012595+631629219+633965181+628786993+624896152+621642530+612387166
3668+597873388+585236013+578239647+576276634+576812809+578047066+580748968
3658+585869832+590889097+592592975+593002081+596713318+603895048+607753341
3648+602493887+591818624+582148324+575986895+572854304+571521883+571246925
3638+571967111+573582991+575613009+578241972+582920246+590013771+595298347
3628+593568375+587877885+584801230+586779928+592840382+600104280+604939638
3618+606302630+606717496+607723916+607953765+606708335+606002688+607154361
3608+608692653+609257837+609754801+611417943+614087782+616944582+620028107
3598+624185162+629061812+632165116+631636853+629972046+632053037+638850021
3588+644503243+643513964+638889300+635664202+634841271+635547542+637339488
3578+639821465+642048818+642912277+642038685+641098679+643265031+649382392
3568+654890710+654104075+648108231+642549044+640298581+639700017+638134381
3558+636028059+636007101+639158984+643770601+647271976+648703048+649014093
3548+649118885+648675774+647070789+644482771+641359619+637968934+634742864
3538+632183993+630801223+631578766+634913723+638998673+641028101+639860258
3528+636943498+634631409+633909177+633501598+631427755+627605271+623843234
3518+621794167+622031302+623858086+625492357+625529138+624426323+623969332
3508+625363414+628195508+630605102+630488304+627410677+623211844+620183352
3498+618969637+618408271+617340432+616245320+616381272+617968352+619947396
3488+620970889+620427011+618649709+616403688+614522843+613809285+614485645
3478+615610321+615814492+614571353+612306802+609672425+607198776+605486362
3468+605255264+606782800+609134793+610518327+609757300+606935755+603058793
3458+599982485+599660891+602387499+606359329+609424602+610665105+610409787
3448+609429807+607964799+605585255+602428306+599700379+598320940+597959303
3438+597705373+596925540+595448595+593551372+591886288+591089174+591264544
3428+591912659+592460077+592711300+592487350+591177102+588329324+584698381
3418+582205925+582347846+584616144+586835447+587207216+585732839+583717430
3408+582442922+582262901+582560761+582513500+581745430+580148495+577729567
3398+575078326+573268858+572833832+573369104+574313413+575521715+576741398
3388+577317754+577035197+576320425+575233814+573485902+571618035+570739794
3378+570987096+571558560+572104624+572760061+573211083+572797397+571336311
3368+569223639+567028244+565419269+565087543+566249521+568256984+570070165
3358+570978074+570667168+569172145+567188694+565835731+565582113+565858563
3348+565757067+564721221+562792248+560606777+559213320+559555768+561693076
3338+564417671+566132133+566391684+565866301+564853322+563069357+560909321
3328+559548308+559429115+559538626+558761360+557432548+556883916+557684153
3318+558905432+559212903+558372554+557564475+558109567+559739050+560748941
3308+560219394+559052870+558457845+558638594+559189620+559731208+560061373
3298+560259194+560585194+561097218+561521904+561507990+561013281+560568643
3288+560839888+561737457+562522218+562965641+563587350+564570244+565375756
3278+565560807+565205416+564496473+563554663+562717089+562326166+562182303
3268+561796133+561039999+560010781+558735891+557589840+557355862+558266998
3258+559586616+560580232+561226959+561610249+561477281+560871325+560386055
3248+560311798+560186603+559669790+559216165+559342263+559714171+559334525
3238+557752892+555846439+554873018+554883636+554829088+554342152+554253113
3228+554806499+554818366+553561104+552115805+551748720+552099878+551981172
3218+551136172+550220386+549627513+549143908+548393291+547258864+545885324
3208+544434925+543110449+542143308+541460112+540850514+540537352+540853047
3198+541323362+540948643+539511673+537687110+536119288+535226577+535375577
3188+536447891+537489463+537438628+536223803+534640783+533219878+531978473
3178+531209257+531371199+532070114+532157452+530923508+528540077+525650139
3168+523205464+522107576+522408593+523265216+523776998+523476709+522218718
3158+520201608+518140708+516979077+517060829+517634618+517545892+516462785
3148+515030603+513959086+513451469+513301568+513071615+512347509+511079489
3138+509607368+508326337+507392958+506725377+506251834+506106444+506412805
3128+506867714+506901476+506381194+505773573+505403677+504918892+503778255
3118+501995366+500179721+498971038+498530945+498573695+498731230+498691361
3108+498168163+497241204+496585212+496745905+497299742+497270282+496298318
3098+494955140+493924742+493257403+492604084+491891497+491308791+490810924
3088+490235226+489758526+489697386+490058086+490529928+490696173+490316388
3078+489649640+489245496+489194870+488867030+487552861+485323460+483216028
3068+482397019+483093644+484479745+485485645+485567744+484958041+484316727
3058+483968137+483579227+482686169+481194443+479336673+477542750+476238053
3048+475557390+475470572+475992555+476849942+477317204+476936621+476040787
3038+475130033+474183156+473010525+471852885+471025721+470255811+469063992
3028+467587845+466384887+465729971+465616157+465943234+466326592+466336412
3018+466078943+465954476+465966968+465754920+465036157+463773169+462298342
3008+461324608+461331270+461892428+462011135+461147641+459636379+458155826
2998+457094754+456395110+455723087+454779854+453624191+452627591+452027985
2988+451697404+451424771+451224452+451216714+451273343+451002792+450275077
2978+449529457+449149360+448778354+447811178+446386873+445294051+444928979
2968+444822035+444328645+443463485+442749129+442424169+442196993+441735907
2958+441015340+440187170+439461363+439028350+438775773+438244734+437212115
2948+436104545+435480512+435333699+435215339+434773581+433957070+433032263
2938+432524021+432736208+433222207+433073728+431848563+430049157+428624956
2928+427994711+427660695+426982947+426081318+425483899+425184825+424663744
2918+423659371+422448710+421495934+421072532+421067119+421089986+420863677
2908+420487432+420226770+420068055+419692261+418999314+418353489+418060557
2898+417953475+417752982+417442943+417071417+416569629+415868528+414955761
2888+413931401+413112044+412750164+412599361+412154446+411273845+410209754
2878+409225263+408491232+408093230+407887880+407607890+407254998+407051694
2868+406965050+406709732+406250902+405842907+405544422+405136045+404548134
2858+404032918+403830551+403829579+403611112+402872154+401804315+400927185
2848+400560100+400549239+400448923+399909348+399018927+398242286+397865381
2838+397649100+397182671+396398742+395585424+395015278+394670505+394300783
2828+393728035+393071176+392647080+392632680+392761623+392426184+391315665
2818+389875398+388822272+388341165+388098200+387843750+387583053+387303099
2808+386932995+386513861+386146811+385839757+385548525+385248202+384854225
2798+384252295+383477666+382677949+381886075+381025149+380129939+379363118
2788+378820212+378487271+378350902+378371826+378340250+377924968+376999292
2778+375878676+375110189+374957269+375098183+374895400+374000329+372665618
2768+371461306+370782483+370626925+370686643+370608500+370250333+369677967
2758+368948031+368101470+367359216+366978633+366851043+366588091+366091474
2748+365694270+365601935+365480452+364814537+363565047+362261183+361404386
2738+360964884+360607133+360215377+359894581+359615147+359274018+358968906
2728+358803355+358598178+358137648+357481170+356771915+356002838+355188270
2718+354515588+354106587+353780864+353291498+352713025+352303295+352047387
2708+351704418+351234936+350780270+350352114+349938671+349709100+349751294
2698+349799839+349487995+348760696+347920520+347323899+347093669+347128889
2688+347265119+347295793+347012472+346439343+345853617+345427058+345068370
2678+344695803+344399262+344255017+344181246+344035197+343748337+343341764
2668+342844938+342210322+341378786+340507797+339971622+339916901+339953613
2658+339574349+338775049+337944103+337283322+336704641+336181756+335857421
2648+335819286+335970437+336118985+336104550+335864326+335434505+334879384
2638+334230992+333543632+332967691+332663829+332633502+332705052+332696169
2628+332539154+332236194+331761472+331115473+330469649+330084416+330024421
2618+330102460+330112349+329961095+329639917+329224357+328811331+328374604
2608+327848354+327349411+327086563+327061406+327068936+326956128+326708653
2598+326351631+325947313+325640293+325522038+325466866+325255096+324841861
2588+324385356+324049500+323881208+323846683+323894845+323931245+323770899
2578+323279001+322601079+322063204+321807817+321722179+321680123+321632238
2568+321546218+321436117+321338716+321206476+320985962+320736092+320463667
2558+320003380+319322855+318758401+318638549+318817459+318859931+318559087
2548+318043698+317546872+317276043+317330209+317585562+317784424+317755554
2538+317451206+316933907+316456444+316310117+316462725+316576504+316449851
2528+316218163+316080684+316007330+315799134+315392284+315001395+314869052
2518+314939665+314933835+314730115+314513938+314517131+314733342+314955696
2508+315034290+315002054+314920407+314711516+314279232+313754195+313438396
2498+313485067+313773766+314084776+314240854+314124819+313756243+313333847
2488+313055385+312925991+312824287+312682574+312516017+312324546+312057326
2478+311716474+311457478+311498007+311888583+312408588+312711791+312604466
2468+312229852+311944831+311945247+312064336+312014022+311731777+311379405
2458+311092580+310875639+310692843+310532775+310401299+310339326+310411570
2448+310610258+310839135+311037373+311198274+311224680+310955448+310421459
2438+309899546+309626253+309603699+309722822+309905132+310074049+310153476
2428+310159513+310163990+310148167+310057705+310003331+310176620+310526667
2418+310757071+310710505+310549465+310509804+310646831+310827858+310850968
2408+310622368+310288734+310093029+310086402+310133975+310180506+310316112
2398+310585344+310880324+311034597+310980084+310832959+310798953+310947814
2388+311131131+311118431+310703669+309699816+307988200+305596268+302657022
2378+299342052+295865452+292420775+289062119+285750618+282479040+279255884
2368+276185562+273692498+272230544+271619419+271297773+271380756+272735455
2358+275915670+280683729+286680961+293923397+302084170+309703737+314950977
2348+316919646+316027664+313683166+311323400+309403310+307658139+305950028
2338+304407189+303147914+302081151+300984998+299825171+298841305+298264949
2328+298124971+298267482+298417175+298405065+298427966+298823227+299587793
2318+300412909+301120707+301791655+302528253+303293409+303979346+304546403
2308+305067970+305630377+306204201+306671046+306965852+307117523+307169572
2298+307166310+307210032+307427527+307840276+308301466+308577777+308526387
2288+308245322+308010373+307978900+308011726+307884206+307586763+307273636
2278+307012662+306769245+306557857+306425271+306330992+306178176+305919180
2268+305560840+305150658+304821431+304745127+304941560+305197086+305280573
2258+305196080+305113322+305098644+305052528+304896971+304693806+304554384
2248+304515694+304560387+304706888+304970187+305245700+305386649+305401084
2238+305412986+305466631+305540887+305658414+305809079+305904086+305940520
2228+306027026+306149584+306123317+305865188+305529749+305297541+305184282
2218+305127583+305113148+305135044+305168181+305243514+305411667+305609766
2208+305722226+305755920+305791486+305812028+305726217+305512816+305253473
2198+305053188+304977508+305064014+305328111+305673717+305873065+305802868
2188+305629197+305591444+305710394+305837324+305857797+305758453+305623680
2178+305605949+305800612+306143095+306469547+306648804+306654599+306546545
2168+306387101+306212702+306118250+306255729+306636659+307020122+307128627
2158+306930077+306632426+306459623+306499284+306694087+306894059+306962452
2148+306897980+306834827+306905128+307133797+307447584+307728614+307890035
2138+307961204+308063775+308254483+308446787+308540510+308577256+308698149
2128+308965300+309284083+309519206+309654013+309801659+310080156+310497520
2118+310940874+311278950+311480102+311598115+311664529+311698292+311796908
2108+312074294+312527711+313077627+313663803+314200776+314564530+314729595
2098+314810548+314919990+315098519+315379653+315779182+316197344+316452766
2088+316484516+316452072+316548883+316763221+316926829+316970272+317007227
2078+317161709+317397595+317549336+317511340+317373583+317346205+317585735
2068+318101923+318715512+319109558+319110356+318900252+318760517+318726269
2058+318690355+318656731+318665649+318635461+318494859+318380976+318535284
2048+319009173+319602081+320126875+320568181+320907160+321034263+320961325
2038+320870135+320849802+320810765+320690740+320559368+320508880+320560860
2028+320692579+320904488+321199641+321505793+321777975+322186283+322912332
2018+323691611+323912542+323335040+322407214+321753998+321620509+321832557
2008+322067958+322128578+322056507+322020385+322118168+322323623+322548440
1998+322769128+323250027+324456802+326336675+327888952+328097773+327149231
1988+326034582+325355446+325091904+325039474+325041000+325053492+325140761
1978+325311239+325479358+325589806+325611146+325602228+325927743+326939959
1968+328224529+328746373+328101555+327022786+326367974+326278033+326490359
1958+326869692+327348717+327741167+327892109+327847555+327782217+327876113
1948+328347018+329554626+331699984+334037855+334901696+333499772+331105133
1938+329464026+329020290+329177756+329360136+329411144+329420166+329481306
1928+329753384+330728541+332766747+335147576+336677298+337436208+338246993
1918+338602593+337290332+334877615+333301742+333478917+334669279+335529373
1908+335336514+334450673+333721431+333563410+333762758+334009401+334370414
1898+335162427+336314446+337198378+337660609+338582918+340366154+341711587
1888+341291794+339757839+338546553+338056390+337954304+338045321+338276037
1878+338546310+338774146+339085122+340207300+343357726+348803758+354221268
1868+355794399+352654869+347978295+344815238+343709751+343690389+343803786
1858+343672796+343396693+343289368+343597707+344515644+346277991+349013481
1848+352841413+357819524+362546412+363617963+359793537+354583876+351554343
1838+351041486+351440391+351889331+353452885+357412951+362640586+365855240
1828+365892403+364882964+363906419+361883550+358840414+356575204+356038266
1818+356432867+356775246+357328910+359046147+361825532+363998338+364106704
1808+362695966+361646518+362619940+366168263+371021214+374388858+374512735
1798+372837970+372484973+375447675+381015363+385098786+383522914+378047595
1788+373922429+373472552+375320051+377399133+379164152+380547165+381046454
1778+381204857+383090664+388310040+395932973+401914798+402542788+398808302
1768+393694273+389199212+387314376+389223605+392978321+394937725+394673940
1758+394328335+394337218+394618109+397166813+403693280+411899301+416421012
1748+415250255+411618201+408964185+408385469+409427734+410797665+411204585
1738+411725527+415675148+423896090+430449310+428603720+421500896+414578718
1728+409372770+406498447+406409825+408399661+412066136+418926168+430369328
1718+443319969+449384622+444824152+435588913+427783774+423822423+424451280
1708+429420717+436533603+442519454+447284511+454121746+463586764+470333087
1698+470797052+467073115+460029107+451457215+446156955+446447111+450899041
1688+458065469+468931717+482587276+489998403+484745473+474920032+468739518
1678+468295678+472385034+477595007+481260649+484812859+489647697+492093690
1668+488363334+482657785+481188509+484392892+487591307+487125538+485288345
1658+486833994+494951531+510555910+528120874+533098603+526673389+524106017
1648+528170598+530771004+524906844+515549324+509995168+510123348+515666122
1638+525986619+537372977+541146465+534348267+525758887+522282148+524151473
1628+528317480+532305896+536016543+539009157+539421177+538212632+539436063
1618+544491172+548865792+547365738+542633958+539966165+540635065+542865472
1608+544601135+545384438+546036683+547078080+548133288+548795040+549472580
1598+550942689+553281427+555685746+557438238+558611633+559530333+560172307
1588+560529814+560969525+561830139+563061689+564667472+567454699+572819744
1578+580850325+587678711+587924174+584073099+583250376+587174321+591513617
1568+592001906+590256528+589799467+592443907+600419350+616681144+637716462
1558+645749714+635587100+623074921+615564032+612894956+613513507+615508305
1548+618495297+624636462+635727840+650653291+666575101+678558669+678159973
1538+667217247+658734221+658170426+661929895+663951550+663953007+666686208
1528+674018256+683401939+692447372+701998931+712080766+719093718+721516359
1518+721930739+721034454+718290774+716151350+718427351+727065136+741731730
1508+758017119+763388583+751133457+735795638+728810029+730576019+737678496
1498+744982299+747386480+744889721+743210895+746944687+755222362+761950780
1488+761784986+756835744+752450298+751031163+751967214+753873944+756561619
1478+761268659+769088858+779382775+788637515+791302358+786412244+780399883
1468+778849793+782074267+786544102+788750288+789972539+794683465+805115417
1458+817304683+820780797+812768781+803302582+798660847+798437730+799915090
1448+800324127+798481381+795566911+793597791+793574612+795665319+800059926
1438+806042862+810242041+809541392+806296167+804481459+804500613+804331002
1428+803319793+803170447+804984253+807869437+811128263+815309747+819021955
1418+817917821+811433340+804475282+800496097+799202643+798617264+797673719
1408+797332832+798868696+801617789+803972697+806230724+809857086+814762121
1398+819518295+823043127+824291958+822472392+819298440+818027818+819848980
1388+822634577+823010857+820661501+819031879+820848045+825665914+831694445
1378+838115704+844846967+850932058+854587151+855351856+854875364+854828381
1368+855677197+857617309+860824711+864238644+865693450+864443370+862163899
1358+860601039+859949176+859447562+858530388+857325626+856266670+855592531
1348+855262470+855085087+855133805+856140156+858876480+862820342+865963689
1338+866649557+865259361+863242980+861332432+859636257+858611168+858678971
1328+859245681+859439026+859457209+860088043+861618425+863992348+867035969
1318+870088057+872499455+874545539+876803150+878997469+880350744+880609671
1308+880169822+879594367+879325031+879663211+880748261+882301196+883433437
1298+883219203+881767589+880328259+879949758+880296266+880167254+878918215
1288+876803219+874148925+871013420+867753968+865215848+864021009+863811772
1278+863497951+862565787+861934536+862829433+864996617+866927221+867715313
1268+867717465+867519192+867367417+867586856+868563783+870217624+872008598
1258+873367425+873947391+873808316+873516633+873789925+874906412+876635413
1248+878683648+880853677+882934529+884930160+887188326+889775650+892074207
1238+893581964+894628497+895760530+897093124+898688324+900833093+903607447
1228+906640380+909338257+911241726+912452040+913587751+914886618+915683524
1218+915569224+915380806+916112963+917667079+919396427+921210857+923488871
1208+926325406+929565634+933371323+937767179+941742409+944007515+944753760
1198+945521379+947281401+949740685+952491998+955633055+958886885+961073848
1188+961326182+960490482+960392769+961788239+963754791+965112717+965888942
1178+967042974+969106823+971431404+972803903+972868930+972670519+973638076
1168+975961755+978237201+979456676+980581075+983066660+986616962+989591462
1158+991051473+991525952+992247005+994136941+996966398+999284941+999937844
1148+999990171+1002127722+1007129707+1012022943+1013380036+1012006912
1140+1011854929+1014478202+1017148111+1016898345+1014426986+1012374656
1131+1011704473+1011738270+1012303384+1013989357+1016946577+1020640950
1123+1024258777+1026847281+1027888123+1027695889+1026751996+1025378040
1114+1024691339+1026457815+1030741245+1035520251+1038872835+1039750938
1105+1037486457+1032968181+1029418227+1029668826+1033067630+1036500023
1097+1038045602+1038105493+1037835116+1038226525+1039687577+1041685567
1088+1043267997+1044158800+1044836409+1046020560+1048002380+1049710423
1080+1049731381+1048501496+1048455346+1051247189+1055717926+1059112149
1071+1059521602+1057890454+1057536381+1060397275+1064474383+1066261470
1063+1064982520+1062576882+1060653912+1059141644+1057623060+1057148720
1054+1059315418+1063488782+1066825960+1067975203+1068922080+1071426056
1045+1073741823+1073459925+1071154568+1068647191+1066877523+1066302554
1037+1066606798+1066410053+1065331527+1064898479+1065864301+1067242560
1028+1068120246+1068450931+1068027044+1065996506+1062502070+1059919118
1020+1060643294+1064208516+1068000117+1070140166+1070211578+1068367375
1011+1065664780+1063442493+1061437910+1058489365+1055573090+1055277521
1003+1057770533+1060218921+1060507550+1059514523+1059259691+1060360216
994+1062131481+1064005386+1065562763+1065861456+1064278123+1061639374
985+1058888824+1055940140+1052809910+1050038193+1047881835+1046361377
977+1046037979+1047366757+1048982777+1048303432+1044732311+1040771724
968+1038553948+1037299080+1035599574+1033670844+1031953849+1029945588
960+1027152080+1023505384+1019159564+1014783418+1011331593+1009107918
951+1007462890+1005418472+1002615387+999657612+997082502+994427653+991193046
941+988034848+985871064+984590726+983462858+981995907+980262326+979080951
931+979268050+980212498+980179950+978418887+975922753+973943084+972654835
921+971320088+969622942+968452810+968763577+970168763+971691164+972910916
911+973208082+971860913+969582066+968095545+967784847+967581161+967302803
901+967835091+969057411+969568117+968575784+966822008+965270113+963803995
891+961950354+960534342+961132282+963498849+965266505+964872181+963037833
881+961014651+959372468+958516088+958737539+959775398+960897090+961242210
871+960238842+957828554+954330371+950371381+946913033+944999223+945287922
861+947629505+950829135+953009019+952625452+949625066+946035416+944418980
851+945383206+947312700+948257633+947298265+944987564+943559754+945338791
841+950086568+954850307+956872864+955987128+954175820+953424024+953731182
831+953335540+951272107+948760497+947872956+949548728+952714838+955364482
821+956613729+957087723+957143242+956454251+955601618+955853119+957227977
811+958380691+958514283+958559115+959564009+960674875+960461821+959638127
801+960480489+963808020+968043287+971482551+973991316+975736278+975726007
791+972485155+966425464+960847192+959073984+960889456+962745664+961519458
781+957798782+954846698+954558138+955908707+957271213+958909787+962019406
771+965680121+966541637+962811801+957030677+952851206+951117140+950693252
761+951348376+953943265+958260215+962329410+964290133+964353703+964287358
751+964789805+964717491+963118683+960377224+957831469+957189531+958928178
741+961368168+962639692+963419804+965677692+968780510+969978819+968931453
731+969069973+973506913+981103925+987512345+989481742+986870753+980979632
721+973611705+967945782+966587302+968520682+970397918+969604135+966640669
711+964732551+965500864+967204257+967740848+966481746+963416473+959099870
701+955266908+953857211+954925674+956348695+955820987+952900132+948806231
691+944989299+942592058+942005500+942038672+940465888+935847679+929651619
681+925434812+924241292+923293236+920214638+916398539+914460510+913921836
671+910421641+900501714+889908133+891157310+904037094+917445211+924588494
661+924485368+919467075+913595315+910126210+909213756+909202652+909312163
651+909572894+909792611+909598502+908614706+906364590+903100558+900513164
641+899414235+898709630+898489080+900099478+902072416+899637907+891452394
631+883900560+884604055+894144788+904234464+904034665+892130558+878502933
621+872742073+875198303+878964296+879212674+878408690+880941883+886968471
611+892148533+890594972+880212780+866770033+858433785+856245781+853647353
601+846748562+840114666
##END=
