##TITLE=<SNM>
##JCAMP-DX=4.24
##DATA TYPE=INFRARED SPECTRUM
##DATE=2/5/2025
##SAMPLING PROCEDURE=Instrument type and / or accessory
##ORIGIN=Admin
##XUNITS=1/CM
##YUNITS=ABSORBANCE
##RESOLUTION=4
##FIRSTX=4497.3318
##LASTX=599.83466
##DELTAX=-1.4281778
##MAXY=1.8504668
##MINY=0.38355476
##XFACTOR=1
##YFACTOR=1.7233816e-09
##NPOINTS=2730
##FIRSTY=0.39527622
##XYDATA=(X++(Y..Y))
4497+229360828+230770738+232096120+232695908+232661478+232358073+231990737
4487+231415678+230436033+229522586+229682839+231175392+232984735+234050343
4477+234389855+234546805+234670087+234660973+234474244+233876203+232730840
4467+231692071+231712459+232803003+234042163+234735091+234868540+234651704
4457+234266833+233790170+233003895+231768004+230725223+230842607+232117477
4447+233462210+233882618+233136999+231568080+230084399+229860248+231231041
4437+233104713+233991218+233513570+232558948+232019115+231841966+231596579
4427+231514714+232212173+233588033+234724456+234701231+233179246+230654754
4417+228343311+227308018+227548148+228195976+228576420+228798531+229329821
4407+230270972+231093113+231184125+230756039+230805099+231758804+232632564
4397+232301854+231158445+230483035+230645987+230934381+230764357+230267237
4387+229914236+229996222+230302583+230229002+229355795+227871422+226385354
4377+225480726+225314247+225435868+225234094+224703132+224442129+224848289
4367+225672158+226385267+226700794+226709043+226619258+226433964+225978243
4357+225268351+224715306+224846646+225764987+226890688+227380268+226929597
4347+226021579+225331107+225132705+225240717+225230791+224798053+224122124
4337+223732341+223867243+224178654+224192610+223895569+223732012+224051845
4327+224725353+225343575+225524460+225050858+224196604+223827763+224451364
4317+225325643+225361076+224604994+224036852+224324001+225376847+226591468
4307+227149719+226605216+225374461+224300120+223795771+223674600+223636054
4297+223668098+223997684+224683072+225300326+225319175+224836149+224570011
4287+225049751+226055889+226812558+226670808+225712935+224657617+224107062
4277+224050323+224169333+224179450+223844728+223181319+222622446+222619869
4267+223086156+223441301+223235653+222699814+222559396+223205339+224257026
4257+225066128+225383626+225358707+225151831+224846317+224726788+225245991
4247+226342934+227161806+227078524+226589099+226466700+226615523+226538189
4237+226324534+226428932+226863330+227103685+226674128+225722273+225021425
4227+225246337+226192313+226928542+226824508+226188992+225753747+225778199
4217+225916940+225869626+225783905+225846316+225820048+225380928+224687966
4207+224230377+224299895+224861327+225681462+226371329+226625881+226659291
4197+227067231+228035808+228989479+229219838+228627434+227633990+226587664
4187+225573762+224681360+224090806+223846786+223803190+223877152+224165857
4177+224732253+225404741+225843324+225761874+225199266+224671503+224837446
4167+225846471+227232967+228513422+229468718+229841761+229424224+228528467
4157+227791442+227480187+227381807+227249499+227055455+226872824+226706812
4147+226582458+226692528+227079578+227246524+226723949+226019989+226194837
4137+227495422+229099064+230108643+230269554+229854679+229312840+228979224
4127+228879219+228769945+228366467+227586849+226689018+226134416+226234438
4117+226914587+227771555+228279898+228110497+227452276+226915365+226913151
4107+227165421+227003490+226252423+225568678+225622476+226187315+226479929
4097+226235147+225933524+226021908+226426182+226856275+227146295+227248738
4087+227222141+227253217+227452241+227609676+227375288+226741087+226128450
4077+225905094+225982342+226019245+225932313+225969943+226230357+226421894
4067+226315559+226092377+225911942+225600427+225175626+225115689+225675237
4057+226411933+226733616+226662335+226828278+227653911+228657818+228948962
4047+228437022+227885689+227735102+227664754+227348656+226917474+226591036
4037+226330293+226022150+225908345+226536459+227979018+229387562+229830019
4027+229323146+228621313+228315003+228461076+228830782+229280087+229822687
4017+230290928+230202129+229310263+228095348+227410911+227695380+228601080
4007+229386577+229682493+229713379+229739785+229697262+229543441+229517744
3997+229811032+230268810+230608893+230790175+231002186+231323610+231611572
3987+231805495+232053095+232384272+232588899+232572955+232557686+232816284
3977+233353455+233860449+233958223+233574735+233066063+232863217+233068588
3967+233489706+233955854+234414514+234735350+234695386+234307661+233915596
3957+233789461+233901191+234263392+235223668+237088158+239365378+240775945
3947+240653960+239943013+239817519+239972705+239370929+237992319+236639337
3937+235890138+236303335+238568969+242343549+245511476+246006763+244380484
3927+243017282+243110940+243593482+243207262+242639207+243383339+245464785
3917+247174261+246740796+244055619+240639244+238262244+237958200+240157619
3907+245143102+252558693+260357702+265383495+266012975+262952524+257473552
3897+251188349+246682640+246175456+249321974+252495591+252500415+251487880
3887+253286345+257271484+259748333+260336552+261408887+261920395+259225274
3878+255334693+254301872+256790343+261041153+265833820+269446937+269232954
3868+266331079+264821406+265354893+264751957+261487466+257959016+257026270
3858+260267588+268760148+281600877+290547670+285922381+273085716+261728046
3848+255819604+255776579+260020368+265973616+271963474+277846979+282761060
3838+283965755+280557716+275493601+271363374+268196571+265616552+264384552
3828+264943252+266719547+270064450+276210359+283160181+285184094+281735330
3818+278226507+275991361+271972293+266086591+261955603+262363232+267490189
3808+274336808+278873730+281576754+285521946+289283436+288631423+284779630
3798+281623600+279068241+275882865+273371810+273169120+275078899+278370990
3788+282834607+287886478+292352845+296295496+301427796+308301495+314674010
3778+318633054+321818966+327201392+336357896+349338491+364323336+377980500
3768+388754343+397459502+404346205+410132974+417417449+426895879+434561490
3758+436763815+436377076+439212736+448264964+461341396+471281374+474552160
3748+476692402+482507774+489863219+492942053+492490811+495357738+505893423
3738+523898375+544016663+557696757+560954088+557592134+553320019+551587786
3728+553780772+559140993+564670478+568041839+569794374+570890262+571082663
3718+570803659+572099660+576557294+582693277+585500750+581288468+573150172
3708+566227534+562365364+561437599+562803637+564852365+565528034+564486862
3698+563573795+564923024+569381661+576781030+586603832+596418678+600034077
3688+593689231+582883499+574957145+572913950+576405117+583212757+591165638
3678+599415958+605771527+605852042+600501263+595145918+590616276+583773463
3668+575340737+569728453+568562425+569624661+570321393+570749774+572159563
3658+573583567+572877808+571343717+573201117+580230901+588874532+590809335
3648+581706473+568011957+557341560+552034774+550899354+551643642+552583340
3638+553267656+553719001+553725884+553751305+555769010+560643472+564258941
3628+561326751+554432785+549506685+549178880+553718033+561426669+567604812
3618+568604966+566994648+566854368+568454933+570287257+572669048+576199607
3608+578725586+577573254+573696109+570689871+570922842+573791601+577362834
3598+580898063+584300620+586496408+586867998+587330412+590776962+597454940
3588+603248349+603472604+599425573+596004409+595256178+595656959+595198143
3578+594098105+594289710+596792136+600434651+603671680+607164438+612657918
3568+618798639+620649606+616406404+610156669+605572450+603035646+602290736
3558+603912536+607887628+612472123+614996269+613951845+610807505+608732630
3548+608665464+607880573+603824481+598244950+594940616+595218064+597405344
3538+599078124+598855322+597065157+595237087+594256785+593116489+590702395
3528+588661414+590051973+594546960+597402023+594982465+589407846+585150603
3518+583727671+583850036+584472512+585410550+585919931+585031627+583056428
3508+581177171+580112134+580221771+581665938+583397929+583445589+581297599
3498+578844181+578050989+578657245+578864967+577641492+575568485+573871079
3488+573499627+574703976+576648912+577667639+576522121+573489355+570101531
3478+567814229+567137834+567633691+568238287+567892048+566390537+564639281
3468+563640545+563214447+562133570+559754719+557006457+555233274+554796178
3458+555317422+556348150+557300091+557725947+557918314+558215303+557977732
3448+556464151+554218733+552307033+550817524+549160100+547393765+546467072
3438+547106184+548974720+551113026+552766680+553244898+551677294+548137534
3428+544397315+542325449+542054261+542459088+542753587+542717998+542034720
3418+540687704+539403219+538711329+538249885+537428055+536208315+535009189
3408+534174909+533596218+532970525+532449039+532566770+533348964+534065029
3398+534135827+533588021+532595891+531385040+530411136+529862812+529294947
3388+528382260+527528197+527062844+526409621+524952691+523220977+522335578
3378+522865572+524763437+527560707+530059467+530836923+529749474+528156656
3368+527444914+527926142+528841733+529130629+528587423+527902692+527168469
3358+525602248+523437830+522326136+523041718+524419204+525090654+525071182
3348+525239754+525835772+525851336+524294972+521943963+520690467+521168893
3338+522266026+522776272+522532925+522116823+522076288+522311161+522212384
3328+521591636+521011562+520972515+521297484+521416494+521051889+520576092
3318+520497789+520639176+520396349+519818488+519477783+519405913+519257194
3308+519191377+519532256+519853904+519335358+517982670+516821035+516752693
3298+517665207+518787276+519529005+519671567+519062510+517831046+516805852
3288+516862745+517750703+518309368+518093968+517932486+518448992+519124627
3278+519494592+520042916+521095433+522074905+522590545+523002083+523316641
3268+522768697+520966462+518632816+516842478+516081105+516139175+516456638
3258+516495444+516071006+515479207+515233232+515444344+515556437+515061859
3248+514320165+514133817+514633825+515139020+514997737+514062501+512597374
3238+511260527+510841242+511505741+512427938+512471032+511114436+508695743
3228+506165475+504600084+504415154+504945597+505161240+504805801+504403429
3218+504280269+504195914+503826329+503052955+501887861+500551117+499336115
3208+498150235+496649001+494976117+493801720+493462225+493676104+494052329
3198+494282325+494072319+493410865+492635934+491997271+491560970+491457213
3188+491549661+491072895+489431899+487174272+485417448+484588252+484218045
3178+483570909+482193354+480278784+478648475+478004383+478174234+478365943
3168+478065738+477356659+476448295+475378658+474263402+473289188+472285229
3158+470935689+469605447+469182220+469849520+470717625+470852475+470090376
3148+468754911+467159154+465578857+464318651+463586642+463333127+463228782
3138+462857260+462017965+460873450+459728899+458629346+457374224+455996220
3128+454882970+454296912+454053705+453812226+453443368+453040166+452651836
3118+452043989+450979367+449733203+448881527+448576998+448506685+448417834
3108+448173277+447566018+446568424+445486924+444569395+443802869+443271388
3098+443261323+443742378+444089689+443657297+442488052+441213909+440389347
3088+440084542+440001813+439854442+439620089+439430178+439271843+438867189
3078+437909506+436515142+435313214+434811788+434800617+434740472+434583176
3068+434642629+434797193+434508678+433610033+432541226+431788119+431403766
3058+431104391+430688392+430289064+430164970+430284395+430249532+429652165
3048+428426165+426866723+425450639+424614630+424419738+424460757+424361357
3038+424187494+424105042+423966525+423558377+422883607+421943287+420621657
3028+418995326+417526360+416778268+416837617+417035310+416583446+415568247
3018+414822402+414757934+414900324+414633391+413862887+412821645+411729388
3008+410872662+410565851+410688942+410599399+409886065+408918491+408265614
2998+407859714+407194593+406167151+405193490+404552683+404106525+403699691
2988+403396408+403178932+402768813+401985858+401039347+400205966+399450541
2978+398702760+398248336+398377930+398863135+399260526+399474578+399527010
2968+399132178+398065757+396635286+395357857+394451604+393864405+393483338
2958+393146264+392692359+392134835+391638009+391262821+390912397+390543228
2948+390199064+389819588+389297894+388706061+388180978+387705699+387234398
2938+386790557+386295322+385628853+384923197+384458847+384291936+384228056
2928+384098739+383900216+383661228+383304786+382769189+382161066+381548862
2918+380748821+379615581+378377926+377431829+376991032+377028973+377286430
2908+377322261+376828202+375932947+375071033+374551518+374298315+374005615
2898+373477108+372728186+371863574+371041330+370423903+369970620+369467811
2888+368910079+368546547+368408204+368160673+367597546+366923502+366423978
2878+366193014+366230920+366463648+366641904+366521752+366153032+365799530
2868+365611936+365480406+365174149+364629802+364108938+363936078+364021817
2858+363836298+363000427+361775603+360754524+360150655+359685786+359131168
2848+358565481+358077336+357619696+357210614+356950667+356833767+356726862
2838+356460897+355892305+355071894+354347977+354066275+354191164+354357661
2828+354176880+353425606+352190234+350937534+350201339+350085372+350231844
2818+350254186+350026507+349619708+349135091+348595206+347956128+347243071
2808+346569615+345962875+345321930+344615272+344000681+343700372+343769267
2798+343988922+344068365+343966233+343853518+343743639+343384568+342597221
2788+341563104+340664286+340079474+339675649+339301430+338954949+338604525
2778+338148303+337600462+337043768+336462242+335874109+335446316+335230604
2768+334995524+334518585+333863044+333214006+332593951+331924230+331291966
2758+330907060+330783899+330701274+330454365+329929283+329111119+328276217
2748+327874432+327942809+327969751+327568693+326943900+326505386+326311670
2738+326060646+325491881+324662581+323824289+323125966+322522027+321918988
2728+321323558+320850008+320601128+320539254+320514629+320431243+320299643
2718+320119001+319823361+319345419+318640525+317703940+316679990+315855290
2708+315407888+315248620+315180831+315071644+314838466+314469262+314059177
2698+313636503+313066148+312360112+311886355+311968980+312419288+312718352
2688+312591526+312216996+311879022+311593516+311185161+310608303+309992433
2678+309453239+309057231+308833841+308654513+308325982+307890477+307532478
2668+307227984+306857500+306508667+306277253+305989879+305471783+304858541
2658+304402319+304162777+304003682+303773029+303463555+303202086+303036869
2648+302832570+302468761+302021532+301666854+301498835+301468365+301441354
2638+301311968+301056240+300692293+300268547+299880182+299592566+299386296
2628+299247987+299212606+299232942+299123824+298735874+298125607+297484696
2618+296945779+296526045+296208547+295974815+295789055+295655864+295631136
2608+295665687+295562759+295237618+294878928+294716166+294739616+294739201
2598+294545105+294177941+293778682+293434034+293137425+292893457+292738789
2588+292660486+292583464+292424922+292140107+291763986+291405434+291151263
2578+291003789+290903144+290753940+290498766+290199391+289915510+289552462
2568+289044880+288575359+288342337+288250339+288087543+287863306+287737136
2558+287728127+287696117+287584336+287523620+287611313+287705092+287596994
2548+287291999+286929487+286558225+286186237+285907008+285786459+285740581
2538+285655793+285527999+285409853+285329925+285311439+285374195+285467352
2528+285491286+285446947+285467525+285608618+285693976+285514009+285142072
2518+284885514+284892604+284983496+284964543+284916918+284993595+285110098
2508+285071413+284893538+284773076+284806468+284901908+284908981+284723808
2498+284349485+283968764+283863934+284104583+284371949+284274728+283810465
2488+283317253+283012759+282821655+282644921+282528349+282495596+282443908
2478+282329619+282281441+282390853+282532015+282521380+282346842+282138722
2468+282015562+282010668+282063636+282085754+282085892+282137961+282183459
2458+282040602+281667749+281237120+280917426+280745482+280693690+280704878
2448+280689868+280619953+280592959+280708060+280894357+280940512+280705743
2438+280253896+279774467+279434470+279314060+279396962+279588533+279799472
2428+280015254+280246183+280444430+280526156+280480606+280437391+280565567
2418+280863247+281135092+281241634+281246787+281247565+281211302+281080861
2408+280914711+280820361+280819773+280876390+281013298+281287633+281641377
2398+281906703+281992597+281970220+281959463+282017983+282139051+282272932
2388+282321353+282136232+281576131+280577862+279111905+277073241+274352337
2378+271054021+267508503+264005975+260629201+257386793+254351330+251550670
2368+248906978+246519845+244841116+244263981+244709430+245901103+247869472
2358+250976406+255538438+261593455+268972436+277087923+284520166+289532558
2348+291197608+290003271+287646625+285758600+284563589+283426060+282083765
2338+280672281+279229221+277636368+275928726+274483936+273743487+273727681
2328+273987784+274041029+273727111+273240488+272965703+273213770+273989998
2318+274979448+275792631+276276227+276598049+277031756+277686656+278465305
2308+279215749+279832848+280226245+280331991+280228026+280122850+280136425
2298+280194184+280213967+280280216+280510195+280823231+280984626+280875663
2288+280614039+280409498+280391824+280540596+280663860+280507168+280020701
2278+279456381+279087574+278911221+278724302+278416487+278068484+277778741
2268+277532870+277316622+277224849+277314703+277453634+277468074+277363296
2258+277278560+277291738+277345415+277326877+277192199+277008860+276858083
2248+276738606+276626651+276567389+276612748+276715935+276773209+276739470
2238+276656413+276606004+276668898+276882189+277191162+277456159+277544163
2228+277434422+277231454+277073484+277038742+277117615+277224503+277249958
2218+277165620+277058560+277015587+277023455+277018561+276965835+276856457
2208+276700440+276557722+276531125+276694561+277011886+277328779+277465756
2198+277335074+277005782+276691534+276611762+276793874+277060635+277229552
2188+277238942+277110023+276925214+276812827+276837037+276945222+277079277
2178+277250892+277465289+277648577+277699591+277600347+277440785+277306419
2168+277187669+277066532+277023697+277141842+277359526+277539839+277653454
2158+277803193+278077010+278407443+278597492+278530534+278336196+278249974
2148+278312903+278335833+278178848+277951342+277879784+278030855+278235240
2138+278307058+278265728+278244838+278278455+278346019+278517876+278839161
2128+279168332+279349839+279440903+279579454+279749133+279845454+279874956
2118+279954625+280171755+280498435+280801287+280934632+280885693+280826050
2108+280948346+281243311+281526881+281716480+281942931+282302555+282658184
2098+282831183+282857486+282914881+283105051+283386597+283631828+283735240
2088+283729464+283739702+283799397+283833118+283823123+283851933+283983895
2078+284210000+284480894+284723410+284864486+284891653+284891532+285014796
2068+285352078+285804876+286149040+286280016+286302618+286345470+286424931
2058+286508491+286570676+286581432+286559903+286618197+286850061+287192132
2048+287461694+287548574+287562547+287717284+288011350+288170324+288043411
2038+287864430+287932961+288233703+288537367+288712734+288814106+288963811
2028+289211791+289488374+289703758+289873626+290137620+290673978+291486884
2018+292194407+292263786+291643973+290895500+290567488+290742285+291183877
2008+291621977+291891124+292010687+292132671+292354816+292623168+292781226
1998+292752381+292822037+293530632+294937551+296241092+296607910+296119868
1988+295397162+294781810+294357096+294235527+294419247+294691334+294860943
1978+294947788+295075444+295282026+295473770+295649189+296132804+297238445
1968+298577748+299166918+298570173+297472453+296783952+296717132+296964213
1958+297271232+297538442+297686816+297708778+297727454+297903635+298323369
1948+299035872+300236693+302129543+304201306+305062840+303943745+301863059
1938+300337338+299784449+299742392+299812809+299928118+300108899+300299017
1928+300540150+301273681+302908521+304915435+306303435+307147918+308127978
1918+308682043+307621917+305472267+304088141+304378973+305677846+306704423
1908+306706256+305945609+305202774+304892712+304868951+304955658+305334581
1898+306284862+307587954+308542489+309027729+309930628+311612850+312799802
1888+312253138+310682490+309532233+309176656+309212314+309364284+309568514
1878+309804770+310098611+310574029+311772360+314717312+319748068+324869232
1868+326491136+323587618+319078832+315982117+314928043+314999740+315273902
1858+315403737+315447350+315568816+315854080+316431698+317617440+319760969
1848+323165221+327818230+332202888+333205671+329963868+325708078+323409847
1838+323147651+323471340+323784965+325249988+329122948+334306055+337581648
1828+337685440+336582047+335419789+333357365+330462977+328340823+327856275
1818+328368215+329001413+329823865+331547659+334180508+336380965+336784063
1808+335723695+334799941+335400594+338033962+341981281+345258707+346121071
1798+345175113+345042788+347913553+353362625+357395165+355861489+350445411
1788+346196399+345371941+346807843+348692254+350457620+351885740+352445443
1778+352668141+354552241+359709927+367257705+373053086+373310335+369335866
1768+364464308+360507962+358880247+360510314+363858606+365875827+366113016
1758+366251637+366474992+366653524+368758559+374615018+382367025+387128565
1748+386700945+383688447+381289502+380820414+382083144+383783870+384399394
1738+384764932+388149471+395641012+401862905+400326255+393659553+387005059
1728+382021616+379403846+379507811+381486711+384866269+391165981+401817944
1718+413935898+419573636+415202743+406468498+399222101+395800660+396822153
1708+401865015+408684795+414094162+418067560+423993468+432785956+439499349
1698+440254705+436686861+429871266+421747600+416714388+416672262+420159417
1688+426119634+436003029+449161119+456613543+451605751+441914549+435783132
1678+435377994+439505333+444676923+448072252+451051063+455158135+457095186
1668+453371948+447979908+446736476+449872446+452711047+451811122+449709132
1658+451206804+459367339+474903449+492049081+496249880+489151096+486202167
1648+490187185+493105022+487789589+478865605+473599077+474020333+479922895
1638+490539096+501862820+505109949+497852797+489293002+486148040+488345730
1628+492796585+497319102+501950841+505882736+506835853+505873985+507364982
1618+512810008+517689832+516767358+512567803+510288456+511150682+513393264
1608+515090981+515977313+517038960+518866962+520912750+522363005+523339053
1598+524679670+526712385+528861931+530530112+531800623+532999266+534147309
1588+535207850+536366131+537712939+539020008+540311859+542653115+547740627
1578+555814006+562986700+563638885+559981983+559145524+562963769+567173146
1568+567600835+565974918+565826407+568865121+577141796+593311138+613495796
1558+620499987+610477625+599008122+592553846+590334125+590693818+592255854
1548+595165217+601465102+612549181+627259172+642986542+654942738+655051614
1538+645467248+638809192+640093780+645370269+648231696+648529826+651563422
1528+659565623+669898911+679670318+689492358+699850618+707661559+711371032
1518+713523795+714831625+714106566+713031015+715449121+723734718+737880960
1508+754093362+760907401+751031060+737056226+730065938+730947670+736897823
1498+743505729+746057613+744175035+743010252+746949859+755143597+761628793
1488+761112218+755443110+749764595+746798235+746639624+748364905+751436407
1478+756207942+763185572+771875201+779468321+781057127+775603005+769235816
1468+767770966+771793025+777115929+778837682+778079560+780456024+788914690
1458+799676082+802545118+794446077+784425582+778520737+776971706+777596672
1448+777197551+773965295+769528481+766698735+766476901+768519888+772765027
1438+778550620+782389582+780986018+777084248+775239438+775892212+776525755
1428+776034083+775969961+777268798+778976233+780784521+783921666+787812369
1418+788500143+784121296+777865128+773130392+770907420+770413672+770514663
1408+771069489+772448082+773966886+774607762+775185899+777346616+780987609
1398+784470267+786470091+786122365+783080192+779224906+777840503+780183003
1388+783821160+784673286+782237819+780572164+782848398+788331019+794545407
1378+800445341+806536604+812572668+816736944+818060130+818204284+819216128
1368+821329256+823998524+827367671+831200408+833507424+832393759+828871119
1358+825729477+824515444+824691555+825014587+825032710+824964922+824909792
1348+824935386+825356227+826378792+827898564+829753750+831609351+832599060
1338+831884586+829864979+828115418+827985098+829676762+832492882+835460073
1328+837734647+839098713+840318972+842422692+845531961+848819209+851416331
1318+853196189+854994032+857798046+861322415+864146282+865769259+867177664
1308+868915881+870379140+871290685+872211637+873552462+875426532+878017221
1298+880912196+882782807+882793875+881677374+880684137+880148886+879418709
1288+877762876+875159114+872129669+869105550+866317030+863934409+861916808
1278+860073727+858454279+857374162+857148662+857877386+859159554+860192218
1268+860697380+861203717+861783237+861551166+860314376+859538545+860571003
1258+862993189+865536427+867676877+869551361+871149229+872466673+873748910
1248+874930017+875656459+876190257+877303784+879071121+880756006+882076080
1238+883460483+885065959+886633874+888031282+889251748+890280608+891289201
1228+892584027+894201262+895964657+897860654+899889461+901933832+904087079
1218+906475786+908638994+910023812+911058967+912712794+915097974+917284285
1208+918546392+919402046+921153475+924344782+928025271+930952550+933016842
1198+934817175+936587141+938323905+940310725+942864199+945964407+949274690
1188+952170288+954056601+955120946+956550034+959405720+963002166+965272659
1178+965652619+966245006+968704269+971651815+972833268+972395618+972163340
1168+972923883+973844697+973908681+973479816+974377112+977935721+983167387
1158+987598874+989915297+991002538+992356021+994433248+996459842+997129286
1148+995935174+994077637+993472246+994869999+997362326+999497242+1000563801
1138+1000999099+1001506681+1001810276+1001176109+1000309802+1001074288
1130+1003804635+1006859881+1009196572+1011260518+1013065554+1013791996
1121+1013730364+1014287611+1015869845+1017476843+1018472639+1019280634
1113+1020292202+1021660073+1024086064+1028169271+1032702510+1034862743
1104+1033315856+1030342509+1028985913+1029310190+1029566333+1029796052
1095+1031461984+1034473445+1037683359+1040952415+1044400280+1047734220
1087+1050850752+1052796553+1051251741+1046036676+1041231731+1040825001
1078+1044467308+1048282060+1048485079+1044698826+1040676005+1040111079
1070+1042747145+1046459177+1050248750+1053136670+1054356445+1055893371
1061+1060443696+1067322271+1072763666+1073741823+1070419366+1064866882
1053+1058658235+1052896852+1049068404+1048069080+1049218991+1051375074
1044+1054672214+1059913356+1066008631+1069247320+1066707819+1060566475
1035+1056540265+1058032161+1063729215+1069677638+1072576418+1071407346
1027+1067501288+1063612591+1061285170+1059987923+1058891413+1057744130
1018+1056250090+1053864149+1050919025+1049106310+1049315001+1050352301
1010+1051155454+1052758301+1055940408+1058447053+1057944037+1055601882
1001+1053985477+1053897559+1054668063+1055171841+1054047455+1050932444
993+1047428411+1045659898+1046082399+1047410219+1048083883+1047190461
984+1044876320+1042191212+1039834323+1037710059+1036290586+1036655260
975+1038779039+1041161037+1042278368+1041899238+1040979254+1040459359
967+1040007599+1037722095+1032151211+1024854631+1019094493+1016327278
958+1015106605+1013363338+1010841406+1008457610+1006265489+1003202772+998705571
948+993773488+990016702+988150449+987458870+986579006+985042148+983533997
938+982271405+980372088+977567105+975104245+974151266+974291477+974196297
928+973141428+971602426+970464966+969944380+969577147+968886052+967690419
918+966121604+964535288+963309565+962860295+963565708+965069087+965920176
908+964953432+962996702+962024977+962766844+963972991+964129527+963386830
898+963025339+963551390+963866121+962440699+959429515+956754644+955989882
888+957034375+958973673+961271835+963574493+965103327+964854654+962042754
878+956859993+951198632+947439356+946263160+946719970+948171954+950624576
868+953489600+955706208+956976201+957559388+956905923+954014821+949282783
858+944539124+941267162+939829289+939988108+941173988+942474970+942993135
848+942083873+939551288+936601944+935469464+936588663+937720312+937418170
838+937198412+938629782+940870186+942407112+943079531+943349439+943359469
828+943288568+943385062+943740882+944586091+946212872+948663557+951660630
818+954168590+954588531+952752506+950779797+950378256+950911570+951224433
808+951192960+950565642+949036601+947932827+949396985+953615769+958217211
798+960311109+959157186+957207719+957332159+959232307+960211225+958938603
788+956504658+954506286+953905668+955025282+957353671+959635647+960711060
778+960049017+958141053+956456583+955931501+956319900+957433842+959519231
768+961877434+962551236+960615188+957771884+956476228+957387704+958975472
758+959178560+957926483+957621435+960300941+964979163+968540608+968852365
748+966091791+962011143+959084141+958981767+960958003+962438831+962050363
738+961139302+961697587+963861763+965417228+964428280+961530261+958849441
728+958002710+959552018+963046989+966547494+967410481+964957443+961354634
718+959613581+960903219+963489619+964388990+961912158+957263541+953361079
708+951836880+952743445+956114944+960620583+962725064+960554455+955916698
698+951653851+949739040+951481821+956554600+961294316+960848850+955036003
688+948215740+943400557+941129649+940437171+939534687+937566682+935293630
678+933625415+933012968+933875609+935303383+934506940+928681296+916906538
668+904222863+901315022+908959536+918398641+925609795+931623378+935274677
658+932410068+923453504+913775064+905804060+898534664+892638119+890047015
648+890504655+892257467+894767433+897804694+899640927+898711674+896696356
638+896741871+897976033+896747612+892994907+890547196+890541109+890071502
628+887718902+884754271+881968379+879385853+877420822+876544209+877036573
618+879483246+884365595+889812523+893885424+897498402+900605320+898876303
608+889935856+878234558+870022905+869553367+875994293+883389997+885532453
##END=
