##TITLE=<SNM>
##JCAMP-DX=4.24
##DATA TYPE=INFRARED SPECTRUM
##DATE=2/5/2025
##SAMPLING PROCEDURE=Instrument type and / or accessory
##ORIGIN=Admin
##XUNITS=1/CM
##YUNITS=ABSORBANCE
##RESOLUTION=4
##FIRSTX=4497.3318
##LASTX=599.83466
##DELTAX=-1.4281778
##MAXY=1.8364538
##MINY=0.33247513
##XFACTOR=1
##YFACTOR=1.7103309e-09
##NPOINTS=2730
##FIRSTY=0.35727751
##XYDATA=(X++(Y..Y))
4497+208893798+208608936+208693063+208617526+208189170+207514810+206586481
4487+205351370+204157940+203899564+205303870+207814256+209701929+209876387
4477+209099864+208771980+209073466+209159876+208672693+208026509+207443577
4467+206635219+205485350+204418634+203897438+203900592+204061493+204117566
4457+204149803+204530292+205556723+206914888+207739887+207539326+206801016
4447+206353301+206375083+206274837+205474024+204224033+203489051+203909269
4437+205141000+206321292+206776587+206263267+205029934+203716829+202912479
4427+202784336+203072979+203298841+203127362+202649572+202167530+201780436
4417+201486687+201498920+202096680+203285737+204666137+205495178+205164680
4407+203905872+202726851+202455999+203100807+204185384+205326453+206255060
4397+206576567+205965633+204584135+203078852+202117886+201997829+202581580
4387+203367338+203662080+202957522+201398343+199778665+198813117+198507450
4377+198415394+198292810+198193924+198096850+197863809+197593183+197694858
4367+198443309+199538672+200244903+200020836+198930021+197478894+196335926
4357+196107799+196910285+198138094+198993064+199202964+199065133+198947115
4347+198939413+198971544+199114428+199488541+199806283+199484690+198543711
4337+197869037+198077682+198631463+198650508+198131490+197628068+197238744
4327+196795681+196567293+196917655+197585011+197903486+197542634+196771252
4317+196213516+196425228+197368855+198273556+198376606+197793064+197340976
4307+197532911+198087458+198472321+198521738+198338341+198038320+197777347
4297+197604353+197289381+196704235+196283564+196663845+197864001+199109950
4287+199540693+199038264+198235900+197669836+197190895+196420349+195506449
4277+195023954+195174958+195459924+195307578+194778385+194392284+194476254
4267+194953888+195594723+196197589+196625266+196857104+197024592+197343206
4257+197953251+198759292+199429383+199650035+199453970+199236978+199326437
4247+199602238+199718079+199617154+199540571+199583768+199588490+199490719
4237+199462299+199568922+199496330+198864259+197751994+196717478+196359048
4227+196909204+197999166+198785011+198700953+198108542+197797926+198000664
4217+198369915+198704142+199048963+199209150+198797417+197826729+196798678
4207+196169239+196045731+196324077+196825513+197363558+197886287+198450697
4197+198938350+199024289+198523847+197689299+197184762+197635787+198935701
4187+200100642+200154851+199148215+198069196+197859436+198634355+199690216
4177+200237515+200168756+199973528+200003603+200143629+200165672+200107142
4167+200225596+200699117+201333714+201643250+201425822+200974779+200462696
4157+199652143+198596543+197998417+198367511+199287457+199920207+199887431
4147+199368727+198696057+198193018+198147068+198556518+198971440+198883827
4137+198309294+197774472+197721779+198111487+198625172+199058338+199366758
4127+199480212+199348811+199119743+199035250+199164298+199391711+199611160
4117+199776957+199863245+199887571+199868525+199742491+199410198+198863928
4107+198265575+197907528+198062157+198801739+199880043+200793229+201123413
4097+200898702+200511504+200298972+200325475+200386323+200041868+198994179
4087+197674314+197050433+197570357+198599837+199102754+198662688+197785589
4077+197372497+197887472+198938315+199732419+199944201+199895133+199902451
4067+199881838+199722121+199654861+199965094+200490088+200668833+200145372
4057+199138126+198140081+197510049+197386629+197616149+197740859+197511844
4047+197377777+197926051+198949990+199644319+199626459+199225582+198856993
4037+198571730+198247436+197938632+197842185+198010266+198294709+198553016
4027+198753768+198875132+198841711+198618028+198337191+198306558+198784366
4017+199662964+200395767+200364629+199476692+198349214+197729655+197813521
4007+198297184+198905765+199594536+200361806+201111129+201667070+201889760
3997+201810302+201589616+201370533+201231012+201165128+201104751+201111042
3987+201407108+202015411+202576144+202700906+202296666+201567643+200934040
3977+200754720+200947544+201140559+201203359+201257864+201249901+200975598
3967+200586535+200696103+201714762+203212222+204256669+204387095+203862902
3957+203052279+202179605+201618437+201941198+203460822+205611977+207047857
3947+207089677+206713788+207044547+207602579+207177150+205829074+204696386
3937+204464147+205120787+206496830+208201158+209373487+209364967+208662169
3927+208341150+208744937+209246756+209324070+209404399+210211781+211523178
3917+211959811+210465000+207820703+205826007+205343477+205947232+207299299
3907+210021502+214640543+220039644+223804570+224547846+222635342+218794131
3897+214127223+210703076+210333721+212798035+215413946+215713080+214972975
3887+215924984+218444779+220299885+221144277+222031884+221846727+219339164
3878+216829963+217214843+220362405+224376751+227828464+229257810+227655348
3868+225135657+224658651+225816900+225737634+223342026+220603322+219749938
3858+221962690+227762737+235712598+239703943+235100096+227018869+221065134
3848+218767802+219854087+223161121+227084056+230715698+234086787+236736502
3838+237250606+235292049+232342120+229595330+227276357+225663352+225271606
3828+225969054+227253617+229723194+234312700+239136449+240133275+237766940
3818+236097340+235349951+232835784+228837592+226278050+226840787+230069880
3808+233653917+235512961+237000454+240378303+243968301+244174646+242151216
3798+241249530+241119471+239979186+238513544+238559250+240542237+243981265
3788+248610987+253933315+258924377+263469938+268965050+276190419+283798055
3778+290509529+297588355+307061360+319343326+333286581+346554936+356347932
3768+361805546+364356235+365561515+366686431+368763164+371332603+372489162
3758+371842490+372228939+377084418+387406782+400122593+409327220+413696162
3748+418434303+427005535+436991563+442667860+444696988+449392124+459949096
3738+475325304+491652180+504567924+512633416+517914447+523527978+531676030
3728+542595719+554016617+562824096+568461918+572178786+573832791+572942972
3718+571144445+571407038+575772251+583401842+589010948+586656218+577986327
3708+569166371+563366533+560773779+560217507+559801122+558831183+558775075
3698+560630477+563354022+565780751+568619230+573305793+578786582+580699834
3688+577022661+572062213+569480682+568499660+567764539+568405043+572979459
3678+581759860+589584993+589907493+585671643+584072247+585012494+582681009
3668+575076649+566403237+560399841+557675704+556938074+556885381+557477060
3658+559047461+560898263+562528500+565353423+570996821+578094152+581029409
3648+575914333+566256903+557294169+551465544+548911021+548859652+550563562
3638+553422324+556720297+559942856+563289793+567225169+570932209+571311480
3628+566890611+561470844+558787551+559609727+563116764+567574678+570829751
3618+572525297+574947670+579456638+584037014+585857113+585115371+583931559
3608+583128550+582490172+582504182+583932743+586519398+589219838+591724142
3598+594599458+597620097+599501218+599632114+599239287+600524477+604191161
3588+607338793+606444547+603162465+601658698+602818219+604402699+604636332
3578+603976974+603492632+603253214+602990098+603411014+606013595+611371887
3568+617552564+620977391+619805463+615183686+609330388+604125992+600721657
3558+599463301+600106907+601734461+602530500+601102983+598668448+597919178
3548+599497106+601413355+601527663+599223465+595277356+591454893+589377498
3538+589119331+589656296+590293908+590770862+590895345+590892069+591173795
3528+591439559+590692380+588483392+585487427+582714256+580470209+578337194
3518+576147757+574418407+573594732+573622891+574075276+573905836+572138325
3508+569524941+568145726+568916812+570418280+570671847+569522257+568126803
3498+566977387+565857978+565016530+564932891+564912259+563476065+560749698
3488+558792709+558941657+560255877+560973887+560372798+558819473+556906256
3478+554939300+552806250+550200880+547345917+545540002+546259789+549044913
3468+551119451+550325015+547552402+545106889+544003406+543917466+544447705
3458+545173278+545235275+543876587+541164090+537877896+535059455+533597368
3448+533802912+535309189+537245756+538400294+537641475+534929221+531672301
3438+529323147+528025760+527161277+526613194+526717430+527236761+527208219
3428+526122021+524695934+523867555+523531673+522965817+522143780+521706067
3418+521807759+521835952+521168544+519731235+517978222+516640095+516215590
3408+516402315+516352340+515715914+514791698+513499015+511289644+508522328
3398+506784962+507070382+508460017+509260481+508871244+507935946+507090455
3388+506283125+505308830+504554890+504743741+505812514+506537076+505746090
3378+503646566+501433466+499947541+499339935+499538649+500305866+501157908
3368+501796043+502439579+503432902+504672996+505539361+505365984+504218172
3358+503062483+502817385+503455031+504311011+504965316+505377554+505380656
3348+504521748+502647492+500468301+498976696+498404811+498386306+498848762
3338+499779182+500449343+499967754+498422410+496762690+495672031+495093072
3328+494782770+494797546+495150017+495318689+494778971+493739402+492670664
3318+491548292+490253310+489134144+488529535+488211670+487872582+487851254
3308+488517651+489250577+489123968+488453319+488421919+489200010+489780503
3298+489646366+489334042+489406495+489866512+490387655+490492135+489909656
3288+489132123+488956619+489413813+489881428+490048184+490099727+490223687
3278+490404627+490413758+489886063+488822552+487832261+487452573+487583852
3268+487835641+487944930+487759460+487380712+487173252+487165062+486855735
3258+485973200+484948582+484375407+484315222+484264271+483663845+482443022
3248+481128872+480322030+480060901+479890276+479641623+479794161+480632681
3238+481421854+481056454+479365683+477180881+475253514+473606235+471925221
3228+470332761+469455104+469613775+470358654+471001319+471174940+470790826
3218+469990431+469152294+468499732+467813192+466805545+465581726+464480752
3208+463620799+462784265+461742152+460568516+459513335+458762148+458417867
3198+458397514+458297635+457756662+456867714+455901852+454966589+454131275
3188+453386953+452494346+451361589+450413187+450013913+449783835+449109771
3178+447958299+446644010+445286402+444007625+443184020+443001163+443052671
3168+442719019+441707923+440122049+438238279+436334262+434671265+433553389
3158+433172168+433302715+433425839+433190359+432532918+431482407+430129434
3148+428692264+427409583+426394932+425658138+425195716+424951663+424671123
3138+424054770+423194747+422499564+422102207+421734054+421164643+420359091
3128+419296103+418034123+416836650+415950106+415422515+415181390+415028818
3118+414690182+414135095+413633014+413288664+412791462+411795943+410380729
3108+408986773+407965884+407404489+407341376+407734272+408130967+407916676
3098+407056200+406096228+405415995+404956710+404576882+404230754+403878284
3088+403478452+403038788+402622089+402282478+401947293+401490621+400958082
3078+400450007+399838742+399001511+398204601+397828781+397824704+397684224
3068+396894668+395477676+394077830+393255306+392830975+392318405+391723902
3058+391419524+391490409+391624859+391466293+390873742+389974548+389003006
3048+388051364+387068426+386056109+385113562+384343870+383782371+383327581
3038+382784134+382129794+381627470+381428687+381195402+380462302+379322262
3028+378368877+377974168+377920674+377715827+377093863+376235861+375570056
3018+375329384+375337992+375259998+374932793+374400916+373722286+372847836
3008+371746269+370560610+369451447+368381349+367312507+366446873+365976889
2998+365787132+365635327+365420129+365131085+364717941+364107025+363307745
2988+362433016+361546438+360616471+359758714+359282701+359287824+359483993
2978+359545050+359357697+358911795+358244596+357489436+356760065+355994694
2968+355013847+353766888+352522681+351699250+351431430+351465583+351522667
2958+351512003+351332840+350778276+349813006+348774867+348110142+347923243
2948+347871282+347509471+346717824+345780609+345020326+344382506+343567160
2938+342588544+341915037+341907719+342318458+342504277+342065588+341175699
2928+340297485+339675556+339184034+338609431+337951154+337404361+337107441
2918+336997699+336943055+336874679+336681089+336155589+335251934+334255998
2908+333536768+333219077+333183182+333255809+333244065+332901770+332141906
2898+331227239+330477097+329917410+329477048+329246064+329224910+329130990
2888+328717567+328032769+327260115+326543638+326020717+325831831+325972590
2878+326176287+326106308+325697102+325146894+324644047+324312695+324215743
2868+324166326+323825425+323153138+322453006+321942178+321544717+321051976
2858+320338775+319500882+318788378+318340768+318099120+317977180+317920793
2848+317823946+317582263+317221707+316845225+316483449+316105503+315739128
2838+315436004+315148145+314814703+314503250+314265226+313960221+313408758
2828+312606307+311708019+310945994+310515042+310365641+310217808+309904056
2818+309564061+309398246+309354126+309191169+308806602+308341462+307941177
2808+307568285+307086417+306394265+305503993+304602464+303968442+303741152
2798+303802766+303868876+303663472+303113403+302434216+301947992+301770188
2788+301688849+301365757+300674930+299815046+299051418+298412482+297717264
2778+296870972+296027573+295393098+294954478+294583259+294305227+294189630
2768+294108640+293917349+293665246+293367943+292869939+292138390+291383457
2758+290773551+290289645+289871987+289513052+289176543+288716961+287990988
2748+287089791+286296331+285711935+285147160+284491618+283927243+283628302
2738+283479424+283251820+282905622+282557107+282231227+281846834+281426981
2728+281102199+280858215+280482761+279849001+279110813+278517426+278116496
2718+277744266+277276599+276759202+276281499+275862901+275501822+275221874
2708+275024328+274825423+274487799+274004241+273631749+273630407+273824503
2698+273690366+272978455+272005833+271235078+270777169+270434857+270082456
2688+269799180+269644847+269527561+269384694+269304052+269343136+269379728
2678+269243465+268885680+268366192+267766967+267156347+266590021+266138472
2668+265901128+265929165+266119619+266248876+266143107+265801039+265336004
2658+264816725+264218302+263566019+263059442+262906661+263031632+263116422
2648+262962438+262629257+262230262+261818303+261459193+261201374+260991892
2638+260760020+260521403+260328945+260219116+260207790+260217896+260082313
2628+259747250+259354859+259024919+258742862+258556102+258615190+258869925
2618+258979632+258708605+258209312+257762207+257432215+257128098+256833530
2608+256635862+256591899+256639330+256630321+256480380+256283078+256182624
2598+256160163+256103689+256024319+255977602+255867007+255607411+255385818
2588+255448722+255712762+255874517+255828655+255718825+255656113+255624801
2578+255599082+255557070+255441404+255257502+255129376+255143159+255219341
2568+255213469+255077259+254921585+254966367+255341751+255879657+256217160
2558+256148872+255796401+255464283+255381985+255495247+255504621+255218139
2548+254783701+254446931+254237606+254040025+253813519+253605622+253445000
2538+253296383+253068448+252671683+252140991+251687578+251538142+251692614
2528+251905337+251931561+251723717+251391076+251077271+250886050+250804519
2518+250684061+250398676+250016461+249727679+249634874+249686957+249772287
2508+249794974+249703284+249533653+249414031+249444263+249570036+249636860
2498+249576361+249472143+249425392+249431560+249422273+249350047+249189825
2488+248940980+248674867+248496628+248415428+248321647+248122481+247847673
2478+247599211+247446116+247393563+247404488+247392657+247237784+246897964
2468+246508257+246282064+246279572+246324163+246190043+245830882+245370080
2458+244938431+244617534+244459735+244431593+244399828+244268845+244057847
2448+243817488+243592202+243460487+243474079+243564688+243609365+243557369
2438+243427310+243233127+242995521+242790204+242682919+242619701+242485268
2428+242270489+242080262+241989217+241975469+241966582+241904183+241800366
2418+241728401+241724358+241755776+241813574+241942065+242142660+242323809
2408+242383594+242315062+242206453+242148323+242163483+242222100+242294832
2398+242418270+242722526+243361461+244468552+246290306+249326262+254247503
2388+261713265+272255061+286190788+303585513+324340784+348271845+374953459
2378+403504590+432774706+461893853+490380825+517445822+541601455+561737027
2368+578252788+591890794+601811131+606241164+604792389+598871692+589812981
2358+577300030+560140768+537882252+511560322+485036508+464495214+454611121
2348+456714270+469437191+488446453+506606043+518067054+522074325+521667663
2338+520393311+520005433+520475487+521393639+522357200+522427248+520522917
2328+516613121+511693483+506364221+500028462+491884732+482270795+472273440
2318+462462810+452825349+443432115+434347790+425145115+415192228+404364194
2308+393047497+381619071+370313142+359463292+349487649+340526064+332254749
2298+324233063+316386358+308987054+302236165+296075561+290351939+284976953
2288+279974704+275476644+271612483+268378006+265661971+263351205+261353023
2278+259589520+258032572+256694044+255547033+254503248+253499696+252563649
2268+251747589+251058574+250493328+250042843+249610287+249054015+248360400
2258+247654797+247027884+246461680+245907673+245344762+244774811+244219324
2248+243715465+243289392+242937462+242656451+242467983+242359252+242234594
2238+242005701+241690415+241368263+241109696+240968223+240951861+241004258
2228+241060906+241068712+240959615+240723403+240478375+240356836+240362185
2218+240409215+240443734+240493621+240648616+240972614+241400587+241765255
2208+241954855+242001135+242005927+242038669+242113387+242220915+242371310
2198+242613672+242987576+243442923+243844497+244082695+244167362+244198100
2188+244248580+244319412+244422306+244611261+244853711+245004280+245019405
2178+245040907+245165634+245302141+245333331+245255233+245096632+244854356
2168+244573589+244365240+244257467+244131798+243905798+243674029+243565455
2158+243563486+243547977+243427676+243199619+242949345+242798481+242837094
2148+243101552+243572181+244212022+245071400+246279485+247901237+249943538
2138+252472796+255539576+259056719+262909344+267085898+271614069+276488611
2128+281714474+287352453+293478869+300068439+306946216+313917321+320837998
2118+327462940+333391967+338288674+342031749+344604324+345941092+345955241
2108+344692669+342351565+339123396+335168922+330731570+326037166+321090694
2098+315733203+309853384+303506334+296925617+290418101+284236221+278573011
2088+273554940+269174602+265370261+262167759+259603931+257589718+255960038
2078+254593369+253453259+252543837+251803697+251107660+250434624+249923691
2068+249703911+249721841+249728550+249481657+249027146+248638153+248456725
2058+248409085+248397324+248340013+248186430+248039538+248052380+248188434
2048+248306000+248380212+248486765+248684521+248949379+249151264+249172069
2038+249064261+249016691+249207041+249668661+250217318+250621227+250884308
2028+251170094+251503031+251771740+251929993+252055626+252312330+252822914
2018+253456744+253874488+253883288+253601196+253279550+253120147+253182947
2008+253363381+253518358+253598513+253609473+253565127+253523011+253531654
1998+253581977+253763004+254290438+255119113+255727660+255647958+255054589
1988+254485614+254224746+254208715+254276324+254324834+254356635+254433304
1978+254562632+254706248+254869902+255066995+255297474+255672737+256338786
1968+257124561+257556890+257445597+257142404+257024594+257101786+257292606
1958+257695330+258351970+259032516+259460646+259606649+259681053+259929759
1948+260496398+261467278+262835271+264173659+264668125+264026628+262975489
1938+262343959+262250649+262411515+262645689+262889480+263092149+263248171
1928+263486614+264111853+265275400+266553463+267402961+268016004+268836977
1918+269445786+269055573+267953048+267249274+267518053+268398881+269145032
1908+269310900+269052384+268809010+268783866+268896030+269118250+269604805
1898+270450121+271412097+272067098+272453914+273192415+274468980+275392638
1888+275103315+274021909+273130400+272785997+272797828+272968592+273217594
1878+273509548+273811312+274152979+274934642+276908969+280230188+283426801
1868+284223240+282236977+279445423+277668468+277224342+277523981+277933222
1858+278141832+278200659+278347063+278743008+279453316+280549586+282121764
1848+284374941+287436772+290391615+291155017+289104108+286377078+284992566
1838+285015584+285426690+285770918+286839221+289517914+293073915+295371317
1828+295595958+295000410+294297037+293022372+291367478+290359693+290358665
1818+290786167+291156777+291719844+292976266+294810897+296348469+296863549
1808+296622110+296530490+297380441+299465468+302281121+304563502+305325597
1798+305057498+305397806+307652203+311464768+314293245+313643402+310643777
1788+308431269+308403738+309846658+311651911+313455840+315079038+316127110
1778+316873035+318592906+322384422+327686014+331802713+332341943+330139368
1768+327306116+325105283+324596895+326369424+329261502+331205876+331951068
1758+332618407+333354957+334161659+336367127+341044385+346772852+350382975
1748+350723213+349613108+349034393+349742157+351602403+353808185+355394721
1738+356923336+360473727+366454575+370910711+369807890+365535865+361697302
1728+359186829+358108507+358420448+359611055+361800562+366349015+373991362
1718+382246332+385831189+383060841+377863764+373871687+372397612+373684126
1708+377359732+381995414+385821083+389199908+394303169+401212694+406296579
1698+407319734+405597214+401650965+396718363+393912747+394601971+397820313
1688+402875063+410579024+420092316+425341040+422490398+417049094+414414834
1678+415777809+419932320+424305688+427297959+430263362+434327263+437099180
1668+435978306+433487000+433674876+437000659+440599526+442075971+442707554
1658+445565096+452858631+465176318+478724133+483947696+481465312+481304863
1648+485715311+489858880+489254898+486606211+486400109+489884041+496889334
1638+507115373+518474343+525559999+525974467+525078062+527885420+535023804
1628+544527755+554661129+565513732+577102118+587741092+596695672+606137451
1618+617944694+629918867+637585190+641286933+644734622+649433277+654525666
1608+658854356+662289707+665429045+668571797+671464468+674004110+676691516
1598+680175378+684630782+689621131+694541640+699260508+704047264+708937524
1588+713644753+717873633+721372760+724120943+726657798+729938556+734931831
1578+742035191+749706532+754736540+757205228+760784091+767526198+776436588
1568+785413541+794063952+803176192+813131518+824916248+840840295+860495428
1558+874245127+876270527+874279071+872891702+871852272+870634970+869282241
1548+868463201+869476493+872821723+877323478+880798279+879648794+870677277
1538+858758445+851310840+849041841+848151220+844803272+839683422+836464278
1528+836726906+839171827+842129458+845146542+847216688+846552939+843775064
1518+840897936+838144246+835423316+833841066+834482929+837889983+844192704
1508+851069052+851668607+843298319+834163914+829755906+829458358+831126757
1498+832564379+831933668+829338615+827206018+827587692+829993860+831406740
1488+829336105+825245718+822400234+822032708+822932529+823571674+824160984
1478+826056602+829573363+833475980+835999313+835579303+832130709+827924759
1468+825351591+824890389+825132526+824750642+824973611+828146055+834420060
1458+839979366+838832460+831402488+824085499+819958380+818698909+818821301
1448+818380103+816406212+813913547+812303278+811879087+812625987+814916663
1438+818173165+819698052+817816582+815117676+814235489+814428905+813656635
1428+811934916+811037186+811570388+812677426+814030503+815982718+817418040
1418+816027046+812128960+808176856+804950394+801879502+799327453+798664053
1408+800267700+802446438+802799466+800973408+799250644+799663683+801985027
1398+804637095+806296014+806083082+803715667+800637177+799088383+799576768
1388+800352664+799518918+797705823+797393012+799902126+804507454+809827969
1378+815192743+820529846+825420176+828978686+830958432+832159983+833254475
1368+834236123+835254782+836931544+839317499+841268041+841568097+840298729
1358+838458034+836909728+836007816+835668309+835731457+836285708+837327368
1348+838294798+838621758+838663996+839296171+840711351+842284818+843380007
1338+843980259+844849970+846847768+849618953+851651670+852290955+852769930
1328+854515625+857602757+861363466+865258904+868753152+871363748+873384477
1318+875981204+879975824+884756725+888878966+891912151+894946172+898839449
1308+902943080+906152953+908407943+910449791+912655503+914757293+916554426
1298+918312876+920107151+921268485+921110825+919816713+918110468+916499712
1288+915096172+913794254+912537990+911424539+910291085+908541069+905917926
1278+903046514+900864640+899996323+900587096+902126829+903686705+904779524
1268+905612294+906355221+906904175+907495576+908877718+911475629+914643892
1258+917231209+918895564+920227244+921548887+922435186+922590407+922312097
1248+921902612+921437158+921240605+921747739+922629927+922884051+922089755
1238+920830912+919675502+918484546+916952759+915299974+914049424+913149115
1228+911708704+909210254+906756761+906126607+907757716+910354512+912170812
1218+912376914+911563660+911141838+911875704+913171837+914355754+915856246
1208+918161210+920555041+922006185+922645888+923412931+924780158+926571924
1198+928467891+930118585+931272461+932126490+933152886+934672057+936822497
1188+939408281+941777438+943597711+945306814+947165492+949064177+951606468
1178+955349404+958828526+959954871+959438258+960089600+962974046+966436999
1168+968787686+970035029+970560842+970100825+968866167+968296164+969580100
1158+972090259+974317160+975742934+976818328+977873788+978914682+979972163
1148+981171135+982883792+985766496+989878142+993847113+995897743+995932663
1138+995559003+996047737+997100897+997307277+995913704+994336194+994935611
1128+998423724+1003490463+1008248712+1011121658+1011572335+1010894019
1120+1010930124+1011808198+1012627377+1013835898+1016370313+1019101629
1111+1019644728+1017581691+1015219922+1015145413+1017656130+1020627979
1103+1022011027+1021778370+1020779367+1019178229+1017477351+1017624347
1094+1021441024+1028311379+1035366646+1039782809+1040635095+1039274560
1085+1037837077+1036993224+1036171048+1035407978+1035563756+1036633853
1077+1038013207+1040121479+1043507901+1046842746+1047487606+1044585387
1068+1040534310+1038865563+1041318708+1046956565+1053376870+1058235555
1060+1060405790+1060843643+1061458672+1062307891+1061475330+1058619670
1051+1056146102+1055573730+1055652281+1055271025+1055584463+1057701796
1043+1060334697+1061192559+1059475789+1055992415+1052112799+1049542140
1034+1050159608+1055008466+1063201230+1071226924+1073741823+1068158192
1025+1058828629+1052836141+1052638124+1054991738+1055674306+1054653208
1017+1055068966+1057683744+1059641813+1058402346+1054558625+1050928534
1008+1050508106+1054284149+1059637422+1062354102+1061058387+1058060749
1000+1056166524+1056323697+1057405155+1057428783+1055767216+1053273157
991+1050380277+1046893975+1043500235+1041574366+1041158748+1040729956
983+1039317634+1037705832+1037451987+1039129027+1041071484+1040405575
974+1036501006+1032084633+1029862751+1029877388+1030298095+1029310522
965+1026201016+1021927458+1018318833+1016117791+1014778793+1013582610
957+1011864028+1008783447+1004344422+1000039360+997210255+995540184+993790447
947+991228152+988085678+985058139+982344805+979476669+976247140+973392108
937+971890152+971765041+972094372+971873633+971067837+970898676+972092559
927+973028485+971167646+966496313+962003689+960743452+963459643+968255948
917+971879697+972212234+969530474+965483300+961848887+959967278+960230115
907+961737716+962971607+963061589+962223034+961230094+960671243+960620571
897+960717733+960119780+958038412+955278380+954351794+957021984+962214182
887+966671956+967411956+963713768+957439345+951572455+948369482+948329474
877+950160691+951682929+951268356+949051701+946826194+946235282+947061361
867+947873430+948031439+947971358+948028651+948146931+948395271+949174581
857+950798929+952323886+951613856+948081274+944302443+943706443+946867247
847+950806248+951973506+949444249+945380626+942536118+941733527+941987512
837+942371836+942814776+943452318+944204376+944813550+945083775+945221014
827+945939198+947987947+950953314+952522181+950619174+946989431+946194856
817+950211850+955779659+958366070+957809519+957306706+958470340+960349928
807+961806300+962604360+962427672+960806181+958480377+956935208+956072746
797+954306559+951499619+949782013+950400875+951927156+952588326+952176750
787+951451805+950916443+950345603+949311680+947912671+947228431+948762099
777+953026178+958620752+962619764+962394076+957963625+952319913+948493129
767+947045748+947381282+950145635+955953211+962089908+964260421+962043348
757+958971341+957610248+957681132+957981886+957674790+956415807+955068515
747+955242066+957050839+958978938+960517068+962723267+965694141+967677232
737+967148980+964207868+960215826+957486671+958325993+962366685+966340116
727+968343909+969512073+970467445+970237157+969094364+968450061+968052913
717+967220840+966775808+966623445+964828751+961524226+960374184+963969007
707+970341567+974104228+970086885+958586808+946888645+942502941+946351959
697+953498393+959253972+962592650+964115655+963507387+959632023+952302070
687+943887661+937700363+934775282+934008378+934526524+935980457+937134403
677+935856949+931076466+924827135+920805401+919916453+919244759+916692989
667+915644917+918299285+920436691+917700426+910501090+904301524+904247786
657+909577362+914501426+914933284+912451562+910643974+910532455+910420517
647+908321515+903779684+897940813+892007569+886133919+882033564+882940564
637+888677046+894785027+897548753+897157042+894884697+890802395+884402024
627+876080804+867851239+862334660+860675810+861416856+862285382+863097103
617+865721709+869970872+872597082+872199794+871983168+875351190+880735828
607+883585355+884346474+888139593+894093328+895443269+892427997
##END=
