##TITLE=<SNM>
##JCAMP-DX=4.24
##DATA TYPE=INFRARED SPECTRUM
##DATE=2/5/2025
##SAMPLING PROCEDURE=Instrument type and / or accessory
##ORIGIN=Admin
##XUNITS=1/CM
##YUNITS=ABSORBANCE
##RESOLUTION=4
##FIRSTX=4497.3318
##LASTX=599.83466
##DELTAX=-1.4281778
##MAXY=1.7837576
##MINY=0.22694418
##XFACTOR=1
##YFACTOR=1.6612537e-09
##NPOINTS=2730
##FIRSTY=0.24645677
##XYDATA=(X++(Y..Y))
4497+148355891+148201781+148307804+148407486+148553721+148868320+149070365
4487+148715447+147943764+147547046+148023712+148867351+149079487+148256254
4477+146958616+146168688+146548874+147976997+149559032+150323405+150166272
4467+149864948+150025580+150405883+150463541+150153929+149834272+149695580
4457+149629975+149434648+148902495+147912997+146729518+146067509+146498249
4447+147760653+148939262+149348286+149056139+148587358+148301480+148115930
4437+147784818+147305273+146898160+146672900+146579228+146707865+147285073
4427+148139046+148498189+147777606+146379345+145229027+144752469+144795928
4417+145236257+145997418+146653732+146708134+146266468+145869948+145645631
4407+145148630+144148494+143113645+142695490+143044264+143736672+144146010
4397+143947032+143419095+143083372+143096244+143337335+143824881+144562838
4387+145300848+145818497+145985596+145412433+143774587+141567902+139816758
4377+139021286+138922098+139090300+139258808+139321803+139375945+139570491
4367+139804442+139836841+139660781+139381416+138872289+138047925+137305080
4357+137198922+137886747+139208002+140858989+142278725+142949479+142957176
4347+142741030+142361902+141557999+140360912+139235683+138670871+138809024
4337+139403724+139998262+140210802+140005905+139676362+139473563+139402316
4327+139450286+139633136+139660781+139107711+138062564+137085759+136610188
4317+136769133+137420369+137995192+137918778+137409964+137222208+137625653
4307+138210261+138517281+138421770+138143248+138198358+139024498+140420526
4297+141610490+141984236+141610490+141037453+140778898+140943261+141212562
4287+141220931+140979086+140770941+140699855+140622814+140471268+140336766
4277+140287728+140323490+140445005+140611449+140759550+140966986+141344571
4267+141686537+141590129+141039032+140494366+140361047+140716270+141395950
4257+141972997+141997727+141583222+141310010+141414796+141644504+141893937
4247+142304342+142767446+142979448+142933540+142895965+142960925+142970774
4237+142792570+142438172+142009208+141659484+141454649+141231739+140931474
4227+141045867+142080680+143485176+143984382+143269505+142475065+142657942
4217+143582992+144352280+144627071+144764345+145051810+145328610+145331893
4207+145079105+144878468+145030175+145407760+145452851+144857559+144019706
4197+143519736+143480996+143713153+144042525+144288630+144326707+144242606
4187+144135515+143912274+143498801+142999450+142537495+142228458+142274240
4177+142769060+143565608+144573270+145901773+147461519+148707625+149082268
4167+148637015+148050558+147969857+148326129+148464014+148029336+147399403
4157+147065285+147005125+146904770+146644206+146337474+146124512+146118215
4147+146463724+147205681+148007898+148301507+147943683+147440018+147278480
4137+147378700+147377552+147075296+146484516+145821816+145472773+145642859
4127+146111317+146528298+146718951+146561890+146003814+145383469+145233431
4117+145571029+145886201+145944335+146051354+146394593+146686857+146656602
4107+146489674+146602568+147169264+147964206+148579384+148771150+148640342
4097+148422743+148143827+147683423+147172053+146950256+147038044+147084544
4087+146992217+147117445+147667161+148352124+148805782+148947864+148877899
4077+148772280+148829462+148982568+148835356+148194856+147429362+147015512
4067+147036385+147332129+147762932+148117357+148124003+147753585+147271771
4057+146913677+146689647+146557557+146633693+147055194+147655518+148036395
4047+148074795+148075539+148270812+148499758+148541342+148419389+148256003
4037+148091712+147942140+147914316+148214356+148962960+149907331+150488082
4027+150363698+149739344+149100154+148778971+148823982+149117331+149522041
4017+149933272+150211471+150183933+149831948+149379654+149081909+149014671
4007+149093184+149185197+149252426+149463297+150000796+150630460+150746835
3997+150106201+149226646+148764987+148796731+149045501+149458552+150140152
3987+151010961+151845675+152402253+152440644+151961745+151418011+151338790
3977+151769431+152313846+152619628+152673716+152753762+153108717+153612462
3967+153914440+153998272+154243848+154810742+155327798+155391377+155077379
3957+154734193+154499883+154270758+154065995+154193599+154907580+155939648
3947+156629572+156674026+156442694+156399783+156516103+156477479+156193674
3937+155859817+155823328+156398222+157475427+158343616+158323578+157606099
3927+157030092+157138197+157729326+158343329+158983919+159957019+161104278
3917+161731772+161421739+160509310+159601976+159022740+158815250+159129050
3907+160457374+163152324+166557898+169219982+170327720+169915090+167990165
3897+165093305+162903339+162931899+164931435+166853418+167129761+166809879
3887+167476499+168582945+168776065+168666113+169345327+169740663+168565633
3878+167125509+167289334+168963266+171096919+173217781+174703508+174589663
3868+173528926+173221925+173755146+173663384+172345142+170907889+170636318
3858+172262817+176247305+181917349+185449255+183330276+178351053+174454810
3848+172868047+173250718+174791412+176764433+178872684+181060515+182873317
3838+183478655+182832128+181811774+180769767+179436814+178100992+177571897
3828+177947948+178772473+180507776+184063380+188172836+189545847+187980038
3818+186416992+185587749+184030174+181746007+180363487+181006552+183625545
3808+186848943+189007407+190481993+192704447+195107644+195886027+195417964
3798+195204948+195182165+194944949+195205720+196608780+198817906+201452990
3788+204742119+208779690+213034331+217317819+222513323+229388159+237306060
3778+245228248+253424968+262871866+274028036+286751864+300044200+311991886
3768+321356172+328227814+332790120+335521146+337809457+340714390+344007142
3758+347147085+350688983+356193121+365103211+377264541+389689368+399614663
3748+408948057+420996762+435500472+447543974+454758300+461040481+470071412
3738+482380099+495583220+506366138+514326969+521747170+529830601+538462303
3728+547552327+555835318+560628113+561292741+559974822+558196608+555944284
3718+553287313+551055296+550431606+552053925+554710071+555628869+553753062
3708+550690332+548137770+546456250+545080852+544219605+545362182+548748723
3698+552517127+555252423+557290476+559621949+562743629+565974059+567445649
3688+566442535+564833599+564570209+566055721+568507605+571084852+574333868
3678+579507988+585200385+587113147+584657064+581247776+577895536+573075760
3668+566999275+561837533+558865721+557495598+556087657+554523463+554687934
3658+557265683+559840131+560169539+559774472+561182161+564498307+566905666
3648+565799865+562491433+559818532+558962990+559108696+558635950+557188542
3638+556398265+557689776+560296050+562817218+565677445+569770916+573299216
3628+573666764+572805624+574284211+578780822+584593271+589090743+590450103
3618+589856157+590111474+591728519+593356399+595153737+598753258+603520148
3608+606219923+605793820+604757554+605386662+607935169+611532430+615122944
3598+618051773+620196638+621491595+621802525+621624563+622015720+623339666
3588+624747571+625443271+625933167+626720861+626964195+625884012+624724823
3578+625528233+627963864+629096646+627352481+625343167+626809627+631821034
3568+635953614+635001951+630156090+625579971+623563840+623737496+624223517
3558+623516982+622188945+621690079+621800372+621348006+621026240+622477630
3548+624939310+625834068+624363231+622101902+620372375+619055174+617482870
3538+615494224+613760392+613152955+613933904+615636449+617190167+617442470
3528+616414743+615207691+614129303+612326080+609667423+607432213+607115327
3518+609448631+613548273+616676519+616524677+613983561+611790187+610774730
3508+609534598+607537124+606084299+605757008+605348630+604162101+603309321
3498+603727315+604678476+604994716+604586051+603935846+602734750+600187892
3488+596684923+593910591+592795785+592365197+591455298+590722104+591491787
3478+593201831+593862728+592911675+591567456+590304146+588398129+586199731
3468+585279535+585909540+586632902+586648582+586740146+587391068+587642833
3458+586539222+584553266+582593860+580639909+578546064+577244864+577907412
3448+580036706+581200810+579399023+575367443+571763043+570313842+570336195
3438+570146824+569513231+569631310+570943380+572424945+572830596+571792859
3428+570144312+569426439+570149335+570711923+569387007+566770042+564502003
3418+562834511+561232321+559909127+559321891+559340799+559783873+560683475
3408+561528253+561145636+558962201+555807153+552991990+551117870+550203234
3398+550434871+551970542+554116376+555532210+555580252+554862486+553901280
3388+552263174+549829444+547734594+546826883+546284388+545067792+543693830
3378+543252550+543968522+545665362+548097908+550103131+550115868+548173111
3368+545956164+544953839+545697725+547990988+550654560+551642390+549770315
3358+546312410+544011900+544389386+546425573+548016534+548214552+547489825
3348+546445558+545240695+543859879+542304690+540813402+539937230+539983944
3338+540427628+540292865+539160514+537528364+536387187+536515599+537773492
3328+539134896+539680334+539375180+538694657+537845143+536803064+535821513
3318+535334057+535430070+535802210+536201655+536684411+537251125+537460445
3308+536760906+535225917+533685976+533004198+533353662+534267006+535241811
3298+536129609+536974352+537725664+538282942+538402492+537518461+535557406
3288+533925148+534421467+536971302+539656187+541136316+541689109+541749458
3278+541085368+539774086+538698137+538531980+538842659+538472241+536658721
3268+533883492+531733424+531603218+533226757+534811690+534974259+534101315
3258+533391838+533209069+533053639+532672565+532291096+531927208+531402724
3248+530901526+530723421+530598597+529952339+528897236+528288795+528692473
3238+529695192+530313357+529967588+528809188+527168284+525299796+523697964
3228+522830295+522406201+521690337+520655076+520079500+520286559+520536530
3218+520100668+519165402+518241797+517365229+516405027+515573237+515088974
3208+514710124+513980303+512829044+511695580+511021013+510778038+510629534
3198+510335539+509713607+508574403+507184653+506270628+506099124+506035475
3188+505401272+504263180+502964169+501478515+499805713+498493678+498093086
3178+498300827+498225086+497421892+496164896+494832481+493467417+491981367
3168+490629794+489966242+490007718+489768834+488241631+485563168+482716754
3158+480535938+479342448+478984875+478980498+478928508+478810645+478676636
3148+478226135+477097587+475471572+474010638+473177592+472837672+472515404
3138+471846972+470809271+469682122+468857723+468483286+468282398+467929489
3128+467380966+466651827+465691409+464717609+464205898+464207979+464118747
3118+463507938+462703810+462195544+461955942+461596108+460764928+459307044
3108+457431201+455750004+454837127+454766839+455176761+455584960+455601177
3098+455068010+454130663+453127980+452354888+451867719+451486322+451030547
3088+450530425+450074076+449533124+448727490+447822147+447211517+447029322
3078+447010987+446736726+445922552+444710334+443688276+443284310+443201860
3068+442830975+442098033+441512159+441361143+441239154+440606350+439579125
3058+438750528+438349434+438048514+437502287+436632824+435556552+434573423
3048+433961860+433613364+433177071+432615740+432226987+432124014+432054372
3038+431646639+430609189+428927131+427102237+425900172+425546438+425405827
3028+424784828+423834744+423199070+422907837+422250385+420852598+419258229
3018+418159031+417635838+417420132+417328783+417224087+416983158+416540551
3008+415756157+414574113+413376641+412594615+412044944+411270920+410252198
2998+409229530+408299861+407606027+407334995+407231842+406723360+405728247
2988+404810203+404375131+404160536+403709928+403022911+402442886+402118645
2978+401928520+401721174+401320760+400602457+399758503+399156915+398860049
2968+398569965+398017208+397171389+396204119+395401068+394943786+394713369
2958+394438354+393968299+393316265+392601620+392015604+391607476+391081701
2948+390099863+388791955+387629644+386746690+385768477+384493792+383386341
2938+383054601+383455337+383940892+383976879+383520386+382782313+381921783
2928+380984580+380010026+379170809+378700323+378552752+378303032+377613288
2918+376666289+375873141+375287734+374622029+373783817+373026440+372493273
2908+372005961+371466228+371111346+371122863+371214463+370904896+370120467
2898+369259830+368664054+368276557+367877722+367421086+367007111+366699805
2888+366493283+366321637+366022547+365437355+364649768+363979112+363603671
2878+363306554+362766678+361993802+361243637+360636595+360173034+359935441
2868+359881264+359647869+358963004+358054648+357326943+356844008+356392610
2858+355873508+355401121+355090801+354862896+354475937+353783287+352939154
2848+352254577+351869126+351700600+351622706+351473628+351001600+350080075
2838+348928816+347899976+347099258+346405280+345783671+345370269+345222877
2828+345127797+344773309+344112018+343417538+342935678+342631386+342345607
2818+342033780+341738816+341412996+340886754+340084385+339237059+338705866
2808+338519832+338272193+337576062+336466315+335298910+334444013+334114282
2798+334274699+334598940+334619212+334062257+333041096+331889585+330883888
2788+330157476+329721685+329431171+329012818+328280629+327349847+326575787
2778+326230628+326222519+326175194+325791537+325059886+324132980+323171773
2768+322304893+321615938+321136949+320816655+320459476+319831516+318936399
2758+318018499+317229620+316534494+315943849+315513764+315116938+314548144
2748+313879066+313430359+313337001+313329503+313002786+312212795+311177928
2738+310250340+309626040+309231870+308834721+308274394+307611488+307015748
2728+306544222+306127555+305736866+305423244+305185293+304878525+304299648
2718+303407832+302433852+301632057+300986659+300353497+299763587+299343423
2708+299082490+298884616+298684015+298417970+298080865+297777775+297533222
2698+297173406+296577791+295888693+295333407+294962110+294635106+294200464
2688+293678133+293267458+293110647+293104458+293021577+292744445+292298950
2678+291756867+291202729+290690570+290148954+289459407+288684575+288060688
2668+287727781+287608644+287539630+287385116+287063602+286603916+286148105
2658+285809153+285575130+285388289+285224984+285033335+284701917+284194961
2648+283622739+283086702+282584266+282147113+281907152+281923333+282040731
2638+281958549+281445798+280590471+279791725+279355792+279191034+279037632
2628+278812220+278572241+278326055+278039129+277739680+277512671+277368042
2618+277164122+276779101+276311755+275930232+275601452+275213668+274865639
2608+274752709+274825669+274809291+274553023+274204311+273997700+273954520
2598+273869091+273592031+273217020+272922505+272743431+272602318+272462819
2588+272335125+272190944+271972134+271657006+271268576+270854726+270499539
2578+270302454+270265444+270230731+270045486+269772050+269590806+269516177
2568+269388518+269131263+268829249+268561733+268332087+268155866+268084915
2558+268150251+268351911+268657423+268936044+268960227+268605362+268044748
2548+267606536+267405396+267254201+266980029+266658192+266450917+266359640
2538+266234367+265958545+265575928+265264406+265171048+265257679+265350750
2528+265321149+265147960+264877017+264637630+264609752+264822570+265055301
2518+265062764+264834500+264539626+264306177+264150622+264046483+263978868
2508+263953609+263976177+264001741+263952604+263828677+263710796+263600628
2498+263395919+263091232+262836076+262735650+262740153+262735883+262629016
2488+262389432+262089284+261825571+261609434+261411470+261228826+261038630
2478+260802741+260529628+260221604+259840189+259419289+259080337+258876004
2468+258766841+258741941+258798487+258833810+258701936+258369962+257955897
2458+257628158+257474020+257443828+257419770+257316564+257095457+256749330
2448+256356164+256079696+256011938+256067049+256114929+256121406+256072197
2438+255916032+255704004+255613911+255706982+255820486+255798205+255664303
2428+255500317+255310964+255090091+254902029+254821355+254853197+254950915
2418+255069657+255170963+255209910+255164217+255077479+255043017+255134940
2408+255362648+255675587+255972542+256126321+256069363+255864564+255647745
2398+255529433+255597065+255954262+256698004+257932629+259885828+262958066
2388+267625050+274379259+283778958+296370373+312409772+331705345+353779986
2378+378100708+404114647+431190470+458584040+485315098+510004552+531089570
2368+547496068+559070628+566265686+569456003+568555719+563470042+554538532
2358+542084750+525869129+505178964+480241117+454874693+435632078+427124339
2348+430261877+443257006+461727929+479342986+491516838+497803934+500233825
2338+501048322+501327570+500976276+499728322+497640361+494819206+491118470
2328+486183772+479853908+472390185+464195780+455529598+446538815+437292250
2318+427793488+418145109+408551734+399059933+389495189+379732643+369873186
2308+360138267+350733330+341805265+333417901+325560833+318225056+311437586
2298+305214929+299556564+294483623+289965754+285800129+281718391+277695925
2288+274037168+271043523+268681516+266692564+264940846+263485635+262350575
2278+261425947+260629678+259966377+259360698+258647040+257827987+257128484
2268+256691295+256423115+256195784+255974498+255718176+255368927+254953444
2258+254541478+254138751+253730803+253379114+253170583+253069188+252886814
2248+252475421+251921463+251441918+251112797+250845334+250610684+250515065
2238+250629610+250869015+251081994+251201849+251265643+251314851+251343770
2228+251365154+251453363+251662504+251946722+252215440+252442520+252676435
2218+252955325+253244513+253483899+253703355+254044783+254604823+255279964
2208+255867183+256318814+256790788+257426588+258202765+259014301+259795053
2198+260495722+261071011+261599549+262290890+263224775+264176402+264836204
2188+265134182+265269070+265498429+265930129+266448639+266855169+267116478
2178+267404033+267836433+268264240+268407488+268184229+267792140+267459162
2168+267239239+267066247+266869844+266615621+266316710+265995232+265626123
2158+265186099+264729087+264338576+264051237+263870638+263842850+264106132
2148+264769020+265715875+266773526+268129979+270250303+273322864+277128296
2138+281439286+286240979+291600541+297525759+303913981+310597400+317496957
2128+324681646+332236933+340138061+348250087+356414604+364531223+372506836
2118+380171160+387399012+394265488+400939866+407519127+414104273+421016136
2108+428833916+438087371+448863867+460784733+473252078+485551866+496976809
2098+507170588+516181104+524061171+530668347+535820293+539277732+540506706
2088+538774919+533635566+524971644+512508821+496020338+476187114+454525730
2078+432536016+411392515+391953174+374605381+359400445+346355049+335402063
2068+326333243+318979777+313160655+308488199+304551162+301163975+298276982
2058+295867776+293930615+292377848+291079322+290077948+289578006+289749527
2048+290680398+292436493+295176919+299291344+305273771+313452066+324060360
2038+337430787+353747982+372660902+393279632+414399847+434752353+453370919
2028+469865573+484348940+497138481+508415780+518118408+526107763+532119486
2018+535611978+536193115+534121444+529958833+523926874+515845848+505485301
2008+492849037+478232450+462180905+445441375+428771845+412681587+397428178
1998+383234249+370369397+358992497+348971261+339936096+331600721+323992297
1988+317289718+311567003+306767391+302760748+299350347+296329363+293579339
1978+291093907+288928034+287095857+285485683+283974303+282638964+281650077
1968+280908738+280063081+278996317+277981632+277216201+276563484+275909566
1958+275414844+275201846+275109134+274942277+274719754+274554404+274499042
1948+274602285+274981565+275683472+276411607+276591291+275992716+275076286
1938+274423283+274170441+274154959+274250811+274423965+274666706+274963267
1928+275314704+275830344+276625914+277550596+278343242+279073063+279884007
1918+280417012+280226206+279654756+279525322+280209361+281415444+282582437
1908+283349160+283775890+284134719+284559010+285021764+285520217+286106718
1898+286811173+287566289+288208528+288726662+289395703+290287322+290878541
1888+290691861+290037710+289538126+289378284+289377118+289363645+289295098
1878+289220774+289189630+289217042+289498587+290465463+292200909+293790848
1868+293877370+292322917+290397346+289167367+288724921+288672789+288679696
1858+288611112+288495473+288447413+288553562+288887491+289545105+290575738
1848+292024688+293885838+295584419+295943696+294696890+293124246+292369327
1838+292465394+292876445+293371311+294338581+296157519+298311839+299647751
1828+299891677+299805172+299653797+299070758+298218786+297768554+297944865
1818+298421414+298923114+299543360+300494270+301681247+302631941+302988402
1808+302971396+303160767+304005581+305567085+307431876+308892057+309543410
1798+309761161+310422309+312206695+314893841+316955861+316860027+315318688
1788+314340582+314814763+316201857+317677143+318961909+320041016+320867926
1778+321735739+323394583+326427641+330373720+333391781+333935675+332708531
1768+331221154+330286175+330482865+332065717+334199890+335637897+336469544
1758+337566159+338895883+340165149+342058214+345302852+349097377+351587114
1748+352232009+352216724+352641858+353805209+355544172+357365657+358742418
1738+360123270+362799759+366893373+369926934+369674307+367781243+366399638
1728+365927682+366287372+367407237+368999489+371202551+374970130+380841960
1718+387198016+390559298+389799589+387467003+385928534+385998929+387817006
1708+391210077+395329202+398992336+402330799+406729029+412275720+416655974
1698+418498557+418775294+417881899+416420176+416169917+417984011+421289931
1688+425716865+431886959+439373752+444377230+444205476+441999580+441291286
1678+443180834+447202870+451724919+455343097+458684430+462800828+466683078
1668+468702401+470043068+473140601+478308693+483549728+487244186+490369920
1658+494905280+501992845+511690449+521424220+525543632+524940716+525834434
1648+529484688+532792223+532919379+531409183+530987350+532588572+536410365
1638+542414373+549096968+552878611+552491976+551567797+553265462+557835734
1628+563809927+569839015+575765596+581594263+586790700+591626298+597547605
1618+605248239+612953466+617916293+620453606+622785474+625869086+629260902
1608+631969359+633367074+633905264+634721805+636428799+638731749+641258657
1598+644154477+647698349+651746325+655729072+659170975+662163956+665148899
1588+668182352+670748369+672470791+673663204+674963184+676890621+679979112
1578+684559465+689602734+692923867+694720272+697618460+702854328+709209129
1568+714982541+720691945+728057538+737696516+749568192+764765809+784288964
1558+802988187+813975509+819873567+824860002+829942163+834717198+838276570
1548+840074339+840938312+842290245+844744318+847472438+847487364+841826038
1538+833790005+828552414+826255994+824274523+820912201+817226606+814838479
1528+813651232+812621496+811660720+811787015+813231516+814707376+815175744
1518+815031725+814800303+814586965+814555247+814987808+816333067+819066784
1508+822456231+823307504+819722658+815227985+812927977+812903436+814032629
1498+814909233+814529773+813322362+812918648+814433760+817261409+819107758
1488+818115193+815238246+812771902+811790459+811876570+812350463+813358744
1478+815451226+818454970+821419463+823272486+823288273+821932250+820883569
1468+821250758+822648258+823747528+823821942+823930871+825591797+828846696
1458+831471268+830421942+826470911+823074791+821513467+821596132+822879894
1448+824324683+824765424+824330352+824139617+824812928+826322658+828575736
1438+830887440+831386091+829227806+826504853+825145601+824832160+824321238
1428+823124304+821559464+819903346+818521777+818139376+818948670+819670131
1418+818503335+815514517+812271242+809714482+807917933+806639553+805734461
1408+805348974+805492419+805654953+805493926+805425182+805784979+806248612
1398+806573463+806950627+807279783+807217210+807055968+807379169+807944053
1388+807688162+806105669+804596369+805482732+809641934+815726564+821577762
1378+826239705+830227404+833924624+836683528+838139582+839335512+841290863
1368+843545232+845142794+846222259+847430388+848491985+848561949+847556970
1358+846169875+845047140+844553010+844908646+846113617+847738519+849022496
1348+849391049+848987693+848659182+849237270+850712843+852226950+853050954
1338+853488323+854431590+856180635+858273906+860320821+862374409+864401088
1328+866051609+867273012+868577297+870545995+873428468+876910914+880017488
1318+881996161+883515793+885945254+889459776+892962889+895835172+898755174
1308+902434382+906204652+908475957+908654707+907965466+907941211+908714841
1298+909330458+909355717+909387865+909722189+909461777+907849289+905678375
1288+904137071+902942218+900968138+898127860+895356111+893235356+891702807
1278+890711103+890245605+889840097+888900202+887563698+886700657+887126042
1268+889001238+891584334+893520453+894127819+894378184+895742388+898388990
1258+901343221+903821907+905607692+906709403+907344754+907676924+907270555
1248+905638046+903399105+901877033+901360658+900784149+899452739+897999986
1238+897213153+897080614+897343179+897839821+898074687+897574457+896849839
1228+896991992+898036870+898566951+897575175+896028059+895563063+896272469
1218+896991418+897350499+898175723+900025302+902474352+904776871+906572990
1208+907940637+909196485+910739654+912712156+914738906+916278560+917319777
1198+918547998+920660142+923625926+926568030+928544406+929686229+931114585
1188+933529119+936483494+939398544+942490767+945953193+948992817+950695434
1178+951336956+951895382+952718884+953584006+954682272+956416749+958350286
1168+959499500+959865110+960740709+962906672+965323718+966794626+968255345
1158+971583654+976524522+980726923+982805483+983455043+983595618+983292868
1148+982538685+981889700+982118610+983691918+986438479+989396370+991196866
1138+991075307+989714404+988797042+989561558+991988938+995285744+998640963
1128+1001430149+1003277144+1004072589+1003932659+1003583984+1004460875
1120+1007567593+1012096280+1015712197+1016997968+1016946374+1017421488
1111+1019347705+1022506807+1025796151+1027773675+1028000576+1027497763
1103+1027331283+1027652833+1028149905+1028563235+1028910332+1029770144
1094+1031895275+1034944587+1037167023+1037218689+1036283172+1036870660
1085+1039570363+1042454127+1043473459+1042726236+1042221558+1043655152
1077+1046723766+1049861627+1052409274+1055050494+1057970783+1060164014
1068+1060836823+1060244383+1058733434+1056290411+1053050078+1050074320
1060+1049226420+1050994552+1054009348+1057449672+1061085036+1062856039
1051+1060708231+1056903302+1055858496+1058630675+1062624904+1065184678
1043+1065627357+1064892979+1064675192+1066263282+1069470032+1072609185
1034+1073741823+1072330259+1069677055+1068030984+1068582952+1069617639
1025+1068093414+1063177661+1057135800+1053342208+1053523183+1056421155
1017+1059177907+1060547707+1061819342+1063858937+1065429303+1065571457
1008+1065020351+1064169365+1062409700+1059921828+1057748331+1056289119
1000+1055621621+1056517742+1058758119+1059400358+1055616311+1049076516
991+1044590453+1044206114+1045482270+1045219633+1042813925+1040162372
983+1038665272+1037525027+1035604694+1033461623+1032309323+1031810600
974+1030701212+1029024356+1027855767+1027263830+1026165851+1023719815
965+1020021805+1015875951+1012250202+1009733627+1007990108+1005632478
957+1001699459+997289317+994312984+992657585+990246279+986761608+984400104
947+983645131+981870540+977571552+973055854+971271073+972277847+973672476
937+973418019+971708155+970031730+969086956+968330333+967453586+966939794
927+966929604+966907718+966496469+965628190+964376504+963117283+962541923
917+963205259+964800095+965808088+964410302+960622666+957041911+956357620
907+958620026+961684192+963305291+962220372+958865369+955330396+953821814
897+954629888+955734684+955150999+952948153+950625828+949303460+948829207
887+948344980+947447208+946808484+947497439+949820050+953111475+956109335
877+957320765+956258809+954437144+953800789+954615177+955614990+955609321
867+954552101+953004698+950845122+947503179+943564635+940801354+940314830
857+941691950+943836529+945565983+945926858+945210778+944968449+946139048
847+947740342+947969898+946562352+945071279+944490393+944153630+943477520
837+943033334+943000325+942319910+940797407+940197146+942005894+945374603
827+948027520+948734845+948179648+947564174+947327514+947202224+946544125
817+945049321+943927877+945407110+950331689+956537304+960220531+959542627
807+956345924+953702695+952671667+952492198+952965375+954716931+957547307
797+960143749+961746263+963048036+964655286+965651511+964658515+961808406
787+958825902+957341216+957652505+958891274+960386293+962421440+964651985
777+965146689+963179211+960994663+960421599+960327451+959016852+956994119
767+955838303+955994235+957012561+958355524+959332159+959336680+958407262
757+957113669+956130433+955840958+955814766+955210989+954171996+954394448
747+957684940+963884814+970258272+973461649+972489391+969199975+966216826
737+964945047+965507204+967148181+968189757+967450500+966560980+967958336
727+970149270+968613851+962914278+957909760+957062936+959628666+963183517
717+966027024+967438445+967226326+965484457+962951736+961648958+962900213
707+964844083+963711804+958416878+952361741+949114089+949120260+950654244
697+951734284+951420985+950497595+950737484+952621866+953591756+949761567
687+940684746+930895075+925221479+924448208+925924068+926719010+925469907
677+922658691+920515189+921700713+925963248+928554954+924650854+915272145
667+907262518+903989105+903625073+904445633+904097317+900124472+893981287
657+889825960+888805911+888327497+887015175+886531952+888294272+890963406
647+892109320+891391590+889977084+888041323+885541468+883639792+882598144
637+880571322+876776510+872803809+870389992+870702931+874601219+881046794
627+885803028+883790270+874494586+864252476+860189216+862311477+864528245
617+864082049+864849867+869919686+877217969+882604028+883492902+879775805
607+872332641+862635754+854460150+852624851+858543144+867755374
##END=
