##TITLE=<SNM>
##JCAMP-DX=4.24
##DATA TYPE=INFRARED SPECTRUM
##DATE=2/5/2025
##SAMPLING PROCEDURE=Instrument type and / or accessory
##ORIGIN=Admin
##XUNITS=1/CM
##YUNITS=ABSORBANCE
##RESOLUTION=4
##FIRSTX=4497.3318
##LASTX=599.83466
##DELTAX=-1.4281778
##MAXY=1.7214142
##MINY=0.27854612
##XFACTOR=1
##YFACTOR=1.6031919e-09
##NPOINTS=2730
##FIRSTY=0.30205682
##XYDATA=(X++(Y..Y))
4497+188409645+188089685+188561539+189884005+191034278+191053090+190227759
4487+189446727+189100165+189325766+190291967+191504626+191800624+190681935
4477+189001047+188003969+188204623+189236258+190249100+190356286+189218505
4467+187499324+186447444+186787741+188192447+189757169+190639997+190405920
4457+189290353+188060258+187339585+187148133+187213940+187434521+187788425
4447+188200886+188656623+188973349+188552188+186981257+184804088+183119725
4437+182535015+182870776+183639836+184478328+185182568+185532346+185380768
4427+185126001+185593263+186934709+188124094+188059960+186705744+184774438
4417+182969876+181852729+181784748+182649339+183907542+184962117+185265012
4407+184474945+182966567+181773092+181555206+181924837+182079687+181704553
4397+180963525+180070455+179205306+178527798+178095707+177954279+178273402
4387+179129480+180121408+180485128+179839166+178663314+177720536+177215184
4377+176951048+176982891+177479581+178180437+178613327+178681030+178613104
4367+178629221+178871274+179326490+179672159+179412075+178361442+176967648
4357+176003919+175899354+176426363+177030833+177401375+177653038+177957290
4347+178160435+177914851+177185738+176505256+176573535+177481142+178435539
4337+178566910+177927900+177236394+176833544+176598184+176557027+176711672
4327+176647260+176050151+175182307+174477807+174237409+174719004+175796760
4317+176634712+176398163+175213407+174034711+173744717+174549543+175952315
4307+177179121+177813260+178087323+178472253+178895774+178700010+177643632
4297+176338435+175349406+174666656+174383931+174933711+176270919+177685067
4287+178640710+179145838+179290650+178985598+178195810+177202729+176534032
4277+176535891+177088758+177844137+178491846+178794630+178809687+178915795
4267+179174875+179096818+178456693+177698917+177221133+176967128+176771642
4257+176474119+175944080+175460069+175594061+176450194+177547432+178434312
4247+178891889+178782156+178234272+177726670+177685607+178182909+178972437
4237+179583283+179560195+178844839+177773478+176604337+175403204+174509111
4227+174607189+175964622+177809021+178919773+178888078+178423642+178385329
4217+178888636+179485169+179881829+180166711+180409581+180409005+180042218
4207+179680376+179912538+180745769+181385021+181136053+180355876+180036827
4197+180444213+180723239+180097614+178883041+177950449+177716335+177988316
4187+178344079+178395813+178044418+177608944+177492649+177799057+178402152
4177+179168425+179953974+180578205+180978638+181285735+181526709+181345146
4167+180427166+179201086+178528374+178609126+178836772+178798087+178719752
4157+178823146+178879397+178648090+178339116+178359006+178807456+179455296
4147+180089360+180629567+180978917+180970106+180427668+179339205+178155285
4137+177630563+177996012+178637029+178909902+178855417+178883859+179210158
4127+179725975+180106314+180034689+179522031+178989632+178966786+179657734
4117+180682621+181302614+181100659+180392479+179816896+179663422+179778992
4107+179951000+180091145+180156914+180212812+180454772+180899373+181247069
4097+181240414+180918744+180436387+179960536+179708613+179717889+179728838
4087+179568821+179369933+179256166+179198688+179254010+179575086+180146151
4077+180769824+181238295+181362397+181070358+180611294+180354575+180304030
4067+180162286+179833645+179446057+178997068+178487552+178274741+178743211
4057+179582057+179934846+179518183+179060179+179292155+180003645+180532549
4047+180760883+181028644+181317801+181206135+180679350+180365078+180657061
4037+181068407+180918204+180324665+180002734+180330762+181007805+181504773
4027+181663768+181862842+182520143+183474781+184149445+184274087+184064603
4017+183738565+183180586+182236730+181198235+180668066+180830314+181139548
4007+180985963+180472915+180291929+180997655+182481440+183954536+184516548
3997+183981732+183079386+182681982+182984245+183601375+184134239+184354467
3987+184244604+184160209+184517905+185099678+185167083+184496825+183818220
3977+183946561+184832326+185720303+186075843+186028737+185871155+185576421
3967+185118769+184885417+185362327+186502692+187644674+188095745+187742026
3957+187042639+186552121+186621794+187479768+189285185+191715262+193576838
3947+193717987+192652686+192133523+192820623+193448386+192684140+190756683
3937+188894084+188375143+189951521+192964672+195137639+194663740+192550575
3927+191357509+192129935+193598476+194318368+194801599+196390673+198802179
3917+199961821+198298128+194562744+190849908+188583864+188027448+189305541
3907+193105598+199664391+207237234+212680814+214301361+212546116+208198490
3897+202522822+198057229+197085563+199435482+201958505+201885634+201107558
3887+202940414+206680334+208804857+208954687+209488871+209512591+206610103
3878+202879422+202327504+205439438+210054081+214687574+217980513+217931195
3868+215674297+214747785+215442172+214516867+210525842+206113693+204436337
3858+207167896+215366773+228170367+237189258+232436292+219493204+208347986
3848+202770860+202582271+205852661+210438175+215410328+220863761+225907223
3838+228009383+226162938+222582441+219279854+216245456+213331238+211499795
3828+211268004+212092331+214587972+220613195+228776213+232891713+230805280
3818+227197251+223955990+218960693+212652205+208471717+208683692+213189178
3808+219288479+223318078+225513909+228853452+232532604+232657970+229804763
3798+227384780+225209397+221659627+217939486+216407480+217531115+220460241
3788+224556185+229129392+233142167+236806113+241953639+248949022+254876260
3778+257351323+258423539+261796654+269286087+280542655+293308716+304453395
3768+312938864+319916086+326024812+331999657+339965610+351100715+363296975
3758+373625228+383045092+395760330+415170938+440241562+463089418+476811828
3748+486051375+497830081+511162524+518810301+519988681+521636740+527954076
3738+538783125+550786577+558425319+558339325+552956179+547228275+544136194
3728+544027632+545727592+547596716+548361520+547170350+543771507+539379770
3718+536249283+536159905+539949459+547365092+555708558+560082636+558357357
3708+553580410+550707051+553014327+559586300+565306545+566114105+563875238
3698+562439507+563537023+567687360+575404624+586532182+598167043+603952575
3688+600434909+592315371+585297587+581555659+581798548+586249251+594087644
3678+603277409+609568385+608548870+602825464+598117298+594534235+588044575
3668+577979102+568143989+561525245+558515515+557705911+557593520+558068924
3658+559665825+562302838+566435663+573900186+585301640+596749567+600357354
3648+593357453+582319199+573591529+568884775+566901104+565672756+565042093
3638+566552479+570654446+575887650+581417020+588422646+597069006+602609753
3628+599999769+593652281+590770669+593788281+601924066+612292322+619936233
3618+621645971+620091937+619543811+621108887+623997675+627582225+630569164
3608+631086692+629868568+630381486+634504459+640380930+644630013+646204012
3598+647203450+649528757+652301398+653880676+655632315+660584225+668152328
3588+672815731+670780047+665376564+661427439+660137411+660309474+660644455
3578+660735766+661136999+662728174+665809027+669876529+674182496+677958963
3568+679956055+678988070+675645702+672031185+669598506+668192035+667000233
3558+665801294+664853682+663992846+662514694+660181208+658149464+658119349
3548+660260027+662717690+663493981+662243215+660000668+658090424+657517351
3538+658437599+659935233+660816220+660550467+659271816+657433030+655654102
3528+654321914+653466951+653131376+653156063+652900496+651977720+650977315
3518+650700556+650907791+650726730+650334048+651127442+653532312+655539666
3508+654655184+650904221+646550146+643531530+642260389+642051965+641929424
3498+641441862+641019512+641280060+642310952+644046827+646349603+648067633
3488+647520510+644770623+641966454+640814731+640758591+640277944+639293229
3478+639060267+639909355+640451941+639345204+636936543+634791628+634428986
3468+636495752+640091084+643062929+643917296+643229192+642434608+641918642
3458+641285711+640482874+639403724+637313982+634117131+631436990+630988020
3448+632418063+633824609+634059281+633316375+631936226+630209572+628826300
3438+628310556+628477489+628960366+629594487+629981517+629594189+628783395
3428+628776332+630154250+632042781+633152789+633006007+631815544+629702528
3418+626663687+623189409+620345422+618905750+618411867+617724618+616883338
3408+617361345+619810791+622749882+624340165+624589634+624773669+625661572
3398+627026105+627981748+627657326+626236280+624810030+623854834+622888447
3388+621676866+620941917+621317460+621901277+621043081+618644569+616263197
3378+615147463+615518581+617220698+619689031+621615261+621857109+620571729
3368+619141983+618977802+620090264+621045795+620721931+619581436+618736029
3358+618528460+618661151+618911847+619154475+619266978+619323527+619656872
3348+620699177+622626114+624799620+625944353+625495308+624421438+624015892
3338+624169069+623733408+622244363+620502427+619751454+620718845+623073039
3328+625612198+627247170+627805892+627752429+627304649+626089722+623823604
3318+621254293+619643376+619390300+620057175+621343671+622918525+623662471
3308+622610090+620492389+619136481+619583592+621296231+622651507+622139965
3298+619758667+617184895+616048415+616329598+616963607+617515860+618328661
3288+619320925+619822689+619656016+619598166+620652815+623101593+626073438
3278+628096332+628496599+627938620+627351568+627026254+626830768+626484040
3268+625685366+624616775+623834311+623354445+622694225+621915033+621538822
3258+621446656+621030960+620282032+619711747+619557716+619728664+619975121
3248+620051933+620400483+621941059+624202678+624847060+622419475+618265160
3238+614706337+613089509+613778877+616049940+618189167+619232402+619891953
3228+620660920+620542989+618789752+616302420+614429467+613533200+613241012
3218+613393370+614111106+614922011+614730541+613374892+612098547+611477996
3208+610346796+608023200+605948849+605658707+606798607+608189351+609261437
3198+609560949+608461425+606488201+605478650+606353168+607854966+608267538
3188+607321154+605649226+603644065+601659799+600344341+600022671+600202095
3178+600045424+599183658+598091459+597621259+597888240+597876231+596680600
3168+594846982+593677525+593309381+592461520+590396279+588185892+587316839
3158+587851246+588727400+589004605+588191654+586270555+583968336+582328791
3148+581728801+581681026+581563504+581238227+580956078+580702333+579960729
3138+578633857+577603411+577599693+578056694+577844850+576705285+575393619
3128+574793814+575103290+575691421+575790316+575139428+573722769+571519521
3118+569035609+567339776+567045543+567714463+568387919+568428927+567937350
3108+567421569+566977023+566124663+564722133+563496015+563250784+563793705
3098+563925021+562664253+560299090+557984937+556510243+555854782+555766222
3088+556185449+556931515+557404912+557034500+555945423+554821436+554099574
3078+553702914+553523192+553534494+553355293+552471145+551068540+549957937
3068+549539342+549450224+549165919+548387433+547116664+545856342+545365100
3058+545732686+546081385+545651339+544755034+544151214+543951229+543666589
3048+542997707+542117314+541365188+540939826+540690506+540248562+539570757
3038+538917117+538097289+536564113+534584159+533295210+533210554+533542374
3028+533285729+532307891+531161485+530261871+529476061+528487739+527411489
3018+526690891+526395692+526116814+525569580+524777153+523737673+522414073
3008+521013438+519977973+519667568+520055305+520614473+520673104+520122673
2998+519485876+519082486+518623849+517839824+516911620+516065990+515314236
2988+514670932+514012757+512926766+511370576+509994814+509158181+508344933
2978+507228307+506449524+506613854+507378026+508085166+508456693+508324559
2968+507537857+506355351+505209056+504078785+502659227+500968152+499392518
2958+498364191+498149856+498607340+499075383+498841417+497749552+496189161
2948+494674425+493582188+493056295+492925500+492776413+492269109+491470547
2938+490816127+490596550+490527063+490060061+489157249+488375790+488057874
2928+487889008+487420854+486508116+485115810+483292416+481481737+480346038
2918+480101625+480256586+480051806+479181414+478063376+477219084+476529269
2908+475513138+474203851+473219061+472971004+473152771+473071573+472437973
2898+471683765+471300787+471146012+470754260+470029497+469229783+468510003
2888+467786356+466973071+466232954+465850310+465785322+465614263+465005944
2878+463950031+462638217+461479058+460896467+460830326+460854455+460795638
2868+460677038+460273575+459365150+458177215+457123792+456379102+455882655
2858+455504175+455139898+454775063+454385467+453833437+453085587+452360081
2848+451808869+451283274+450589518+449742438+448879892+448174425+447793864
2838+447600051+447018687+445734162+444360742+443768448+443890691+443873998
2828+443210246+442026104+440527169+438932833+437721773+437220566+437085422
2818+436699283+435957865+435259500+434860089+434640771+434429708+434171353
2808+433757665+433037029+432106260+431306843+430785708+430307441+429625137
2798+428793114+428014220+427379802+426776800+425929608+424674491+423309251
2788+422405585+422098674+421834482+421028261+419753997+418547510+417695857
2778+416994332+416165283+415243436+414451418+413909203+413553366+413173845
2768+412546156+411692421+410892223+410287548+409725629+409120731+408637445
2758+408379647+408192490+407866246+407325630+406567965+405589346+404466772
2748+403421343+402645125+402053760+401375657+400522071+399681497+399015477
2738+398457684+397843715+397103003+396325224+395719099+395452341+395417579
2728+395212055+394507518+393440712+392449490+391719076+391043724+390267098
2718+389535569+389001348+388566096+388056302+387425156+386703702+385960722
2708+385330617+384861124+384339655+383483317+382310180+381156933+380311451
2698+379732281+379152590+378412138+377650383+377136759+376949787+376902719
2688+376720878+376233204+375495281+374762042+374210347+373735760+373180421
2678+372617795+372182730+371768001+371156039+370355544+369568024+368894159
2668+368278442+367689680+367194348+366855203+366634733+366400210+365988939
2658+365318197+364476731+363651103+362951176+362387658+361981480+361723311
2648+361434023+360889318+360124997+359404808+358863374+358418940+358034474
2638+357761694+357519066+357132593+356592720+356016450+355409656+354686455
2628+353844840+353008281+352371744+352060521+351931734+351667319+351188048
2618+350766069+350598765+350489608+350109530+349436781+348771207+348376443
2608+348265539+348282270+348210886+347861890+347251861+346618856+346110511
2598+345621536+345056011+344512867+344092896+343725681+343269349+342678691
2588+342075763+341660440+341489715+341412718+341282555+341086698+340843735
2578+340566158+340303676+340031825+339613193+339062948+338656361+338544490
2568+338462585+338041090+337257920+336431325+335876581+335629863+335429098
2558+334993661+334377832+333936669+333894620+334081815+334117544+333752969
2548+333063304+332372783+331946864+331756397+331590394+331311851+330952184
2538+330664904+330576047+330582664+330404430+329932334+329372980+328981822
2528+328828423+328835896+328883336+328870100+328757412+328534190+328181550
2518+327729345+327278999+326926768+326725296+326684251+326712544+326640083
2508+326409760+326159064+326011167+325896843+325690501+325421364+325214650
2498+325102482+325026228+324961872+324915250+324840706+324673848+324413969
2488+324105869+323774420+323438176+323149818+322931987+322703710+322388063
2478+322066132+321883398+321827667+321736319+321505216+321174846+320834995
2468+320548942+320377734+320386545+320540763+320633598+320456925+320056584
2458+319683124+319496933+319451723+319419787+319293862+319006657+318585236
2448+318184412+317987179+318053617+318277693+318465520+318428899+318062540
2438+317440986+316831255+316510514+316540963+316730798+316817350+316722656
2428+316634468+316772364+317098942+317370792+317424516+317282233+317017446
2418+316646997+316179177+315730504+315518585+315667226+316063625+316497650
2408+316874531+317193822+317377745+317252638+316772289+316211857+315965734
2398+316097681+316294059+316334510+316324397+316383288+316440134+316412139
2388+316238291+315690053+314478882+312586113+310223367+307449908+304038982
2378+299793468+294896360+289844049+285026893+280511015+276272045+272388336
2368+268895896+265791602+263292782+261761929+261375753+262196678+264493339
2358+268636556+274643263+282173797+291046260+300947180+310384035+317052134
2348+319479645+318060755+314925175+312309391+310530649+308419325+305270788
2338+301392600+297392056+293668755+290482631+288063039+286469670+285554255
2328+285172875+285223476+285487947+285754964+286150825+287094867+288770568
2318+290761174+292410497+293522178+294479382+295670123+297070349+298456986
2308+299765212+301075354+302351384+303370955+303996431+304397032+304850557
2298+305418741+305971942+306424146+306798573+307142272+307470263+307765016
2288+308004094+308188110+308340245+308486135+308619718+308674538+308563876
2278+308257653+307811452+307371498+307131788+307163018+307306900+307353169
2268+307249328+307067227+306920464+306968257+307309056+307813516+308193594
2258+308274904+308154370+308099885+308290017+308637954+308907333+308979906
2248+308916107+308791298+308621949+308456503+308393169+308467397+308613881
2238+308762652+308904451+309061346+309254359+309485016+309699277+309811073
2228+309807671+309764544+309720357+309655648+309657525+309942816+310554202
2218+311138670+311253292+310898737+310547380+310585804+310912809+311192747
2208+311338041+311527039+311824339+312061074+312123274+312117140+312170491
2198+312259646+312307718+312315823+312345306+312464910+312735868+313159409
2188+313601984+313853759+313850933+313785759+313877181+314092520+314250307
2178+314325259+314457467+314694147+314903984+314967448+314960681+315095119
2168+315463709+315922569+316305770+316616771+316865087+316920967+316758013
2158+316639041+316832035+317288925+317741688+317993388+318059231+318115520
2148+318303309+318574417+318815409+319044765+319306726+319477042+319413355
2138+319230510+319212627+319478455+319877717+320210802+320449861+320699665
2128+320985420+321184550+321211950+321180014+321293223+321640026+322127217
2118+322548303+322719288+322637569+322499896+322487887+322592360+322723563
2108+322877409+323081892+323305299+323544730+323877443+324297116+324627003
2098+324727906+324681284+324668048+324779176+325011208+325309196+325547102
2088+325593204+325461145+325315813+325303916+325417311+325519293+325504347
2078+325434674+325460439+325603131+325722103+325704108+325608931+325646221
2068+325998601+326561152+326949335+326953946+326809506+326783370+326783816
2058+326631309+326430283+326394183+326502447+326551709+326465231+326407493
2048+326574648+326953760+327358525+327624799+327680381+327525792+327249702
2038+326990195+326844826+326864085+327056633+327337258+327564383+327676477
2028+327741280+327893750+328223116+328672718+329146859+329760159+330722865
2018+331855292+332553249+332478928+331989917+331674641+331766175+332151867
2008+332683672+333290949+333895513+334372590+334653215+334820110+335000539
1998+335225842+335585398+336354551+337576430+338650338+338838053+338117418
1988+337087679+336251455+335733555+335420696+335144792+334846433+334595886
1978+334443378+334354224+334268527+334143272+334053559+334260459+334917296
1968+335666410+335848102+335255511+334382331+333803681+333644110+333727279
1958+333897706+334015377+333910049+333558153+333167218+332983593+333099144
1948+333534433+334486989+336159214+337981121+338506196+337016444+334677307
1938+333094683+332606637+332547635+332378397+332084574+331853619+331732640
1928+331725539+332164657+333410181+335012362+336090433+336694960+337379383
1918+337551706+336139956+333770704+332270951+332448739+333551832+334281539
1908+333922876+332781154+331672894+331059705+330830907+330779340+330986574
1898+331666313+332651810+333316751+333497737+334008462+335279417+336180741
1888+335499180+333837700+332548490+331974785+331725762+331567938+331478226
1878+331493320+331712675+332229050+333381665+336012135+340516190+345167361
1868+346600787+343707352+339165189+335918779+334688795+334628157+334779660
1858+334747761+334619977+334601946+334720063+334987043+335707604+337387005
1848+340523812+345158252+349630965+350636613+347292386+342971734+340734801
1838+340586792+340906381+341011076+342159825+345737869+350625943+353492609
1828+353081189+351514403+350093469+348009452+345222460+343195512+342711185
1818+343095688+343525437+344216849+345970756+348676848+350784138+350895079
1808+349542703+348533784+349273157+352072158+355958228+358915536+359467938
1798+358424814+358269035+360960701+366081254+369918991+368563157+363544474
1788+359637584+359004319+360526379+362496480+364411668+366022586+366695446
1778+366850630+368484524+373365980+380776929+386520708+386577109+382240916
1768+377118170+373223028+371915452+373900350+377407048+379326512+379426932
1758+379676624+380329185+381017958+383410113+389243270+396775272+401311710
1748+400748824+397647114+395179152+394711258+396110628+398109431+399162928
1738+400039714+403894963+411601408+417601498+415772267+409321162+403448892
1728+399497611+397795643+398470437+400639370+404076729+410727336+422210099
1718+435382041+441948363+438459808+430739272+424574592+422183033+424138746
1708+430097976+438008421+444812315+450380016+457934438+468260682+476260430
1698+478197368+476089259+470972387+464397923+460776082+462339597+467668759
1688+475434244+487050182+502230816+512112812+509369059+501552751+497261544
1678+498893914+505307022+512905240+518552132+523509209+529739324+534272155
1668+533071765+529397986+529241241+533453033+537770302+538573697+537849158
1658+540177625+548833057+564766524+582153047+586340042+579150753+575915274
1648+579098219+580791599+574497240+564869286+558538975+557326390+561356863
1638+570140896+579455135+580264888+570513761+559704788+554440577+554566576
1628+557003084+559406392+561473455+562316817+560267897+557168455+557311891
1618+561387163+564176089+560806283+554660415+551063410+550925142+552110214
1608+552353103+551282727+550072411+549624555+549687164+549626972+549564884
1598+550187181+551547625+552745561+552989082+552387010+551432297+550398803
1588+549513465+549143091+549452046+550067057+550602282+551843457+555674019
1578+562670908+569029438+568964301+564579961+563130288+566563707+570420406
1568+570089589+567246271+565850656+567994307+575849579+592062518+612591388
1558+619675424+609171093+597055213+589984376+587125108+586896347+588051602
1548+590672851+596714061+607749787+622899749+639552216+652596226+653291245
1538+643229415+635549628+636163374+641670139+645362136+646037897+648545528
1528+655559147+665226808+675122671+685400807+695643176+702414315+704573210
1518+704954590+704320023+701847042+699560625+701183997+708880218+722717101
1508+739129728+746488068+736745678+722501093+715472305+716631686+722668620
1498+728673357+730237987+727756827+726501227+730626728+739442103+747214912
1488+748050393+742970365+737365820+734627829+734957158+737212048+741013723
1478+747050285+755597304+765461640+773452093+774887490+769050726+761983198
1468+759118353+760827459+763686876+764402492+764402195+768093002+777573058
1458+788928038+792123402+784244336+774174773+767687010+765205032+765426469
1448+765938643+764416546+760994392+757573874+755434387+755280244+757973322
1438+763070229+766836435+765507593+761286691+758647447+758566249+759031950
1428+758595843+758138396+758729984+760178170+762532030+766488368+770422101
1418+769823300+763881767+757223204+753266792+751837419+751235941+750702203
1408+750980895+752515187+754002262+754099596+753893328+755479596+759217025
1398+763788671+767613471+768947220+766615147+762516935+760567803+762418560
1388+765715050+766527257+764548456+763828527+767460740+774673340+782827975
1378+790482481+797718132+804138007+808249826+809664997+810214871+811592789
1368+813840467+816776174+820852748+825399186+827651994+825554445+820463114
1358+815281291+811633537+809410100+807774385+806216001+804733387+803460462
1348+802535975+802068936+802063805+802702759+804474846+807358131+810104227
1338+811272234+810873678+809998045+809410323+809460812+810566656+812820134
1328+815545930+817978460+820116609+822547949+825844513+830180743+834849202
1318+838349803+839947596+840722773+842138093+844337289+846573962+848546740
1308+850610680+853179136+856339179+859694858+862456940+864050867+864749455
1298+865322974+865964307+865970702+864705510+862519326+860344816+858546258
1288+856465364+853178764+848659317+843974128+840177584+837343003+834999776
1278+833060756+831811328+831316405+831266585+831234611+830976219+830665182
1268+830737755+831399165+832403436+833348371+834113138+834959846+836209721
1258+837832498+839402333+840473452+841002283+841435341+842359901+843939031
1248+845690521+847076395+848322255+850215842+852930187+855547347+857194513
1238+858188598+859480485+861465978+863898731+866437072+868739551+870417427
1228+871357083+871910600+872557212+873589591+875277283+878015942+881865131
1218+886006619+889221018+891100998+892396156+893961306+895734806+897121796
1208+898169790+899664524+901938970+904300489+906075104+907588651+909446621
1198+911624105+914054478+917116073+920677201+923734631+925719529+927206084
1188+928817187+930547336+932452226+934878733+937769305+940536370+942788434
1178+944709088+946653164+948768634+951018393+953083895+954288263+954347228
1168+954403517+956277771+960261398+964765007+968455070+971234255+972955407
1158+973128809+972337571+972397280+974314959+977014953+978856565+979740824
1148+980731191+982557187+985548737+989723091+993870155+995879591+995009758
1138+992663557+990822837+990711376+992174507+993939828+995388683+997696367
1128+1001663413+1005559075+1006949336+1005813675+1004631614+1005839551
1120+1009645017+1014011362+1016702359+1017247994+1017093033+1018435557
1111+1022297015+1026729686+1028395368+1027018863+1025706676+1026447425
1103+1028133184+1029310188+1030418412+1032001928+1032845068+1031742198
1094+1029654983+1028757638+1030291706+1034225663+1039797937+1045514167
1085+1049554826+1050538204+1047945805+1042834993+1038210331+1037138542
1077+1039820393+1043319953+1044972101+1045365378+1046487729+1048254240
1068+1049548803+1050798604+1052446588+1053598385+1054101414+1054960540
1060+1055957078+1055792972+1054590016+1053599352+1053311142+1054188337
1051+1057419690+1062758407+1067483229+1069413252+1069313687+1068887470
1043+1068715630+1069171441+1070872071+1073176111+1073741823+1071134181
1034+1067008754+1064169191+1063359513+1062964600+1061742684+1060413024
1025+1060012832+1059892596+1058912119+1057547436+1057135644+1058231376
1017+1060275314+1062231808+1063581544+1064543730+1064996121+1063939724
1008+1060925793+1057046415+1053524920+1050833477+1049363951+1048987330
1000+1048065372+1045062222+1041172063+1039251707+1040225195+1041944191
991+1041457967+1037826646+1032840011+1029300819+1028383173+1028409942
983+1026717417+1023017910+1019890212+1019535155+1021052866+1021729072
974+1020375618+1017736299+1014024449+1008412394+1001185517+994457951+990071381
964+987848241+985957703+982579717+977438568+971494358+965358826+959188643
954+953894317+950702746+949595935+949473245+949607014+949805697+949636683
944+948754878+947522626+946495228+945754851+945123482+944732287+944891338
934+945327370+945142592+944036153+943025783+943127802+943744374+943401586
924+941985894+941171383+942355228+944945321+946987177+947270033+946240480
914+944795417+943163940+941246484+939301961+937775180+936815522+936204527
904+935581263+934891077+934525015+934444411+933643135+931525732+929179903
894+928187007+928827671+930144914+930941728+930443310+928904631+927362680
884+926168648+924902489+924072437+924820473+926488683+926707963+924581860
874+921821265+920168447+919891837+920766876+922297896+923258297+922686786
864+921353333+921009653+922219821+923937552+924814822+924272459+922946591
854+922227331+922536137+922755864+922255364+922127394+923380169+925158279
844+925912487+925219698+923509105+921143571+918853435+918212028+920215515
834+923363141+924660902+923423817+922166209+922676152+923726154+923941865
824+924455304+926727445+929974263+932628379+934394889+935235352+934308560
814+931664409+929421490+929746060+932482564+935449055+936874190+936985206
804+936962750+937186343+937145595+936503816+935302943+933574652+931857069
794+931569975+933483490+936389231+938406028+939055615+939498711+940661811
784+941739027+941366720+940057954+940103758+942595923+945418012+945314506
774+941957341+938080417+935404589+932972431+929971810+927790385+928197120
764+930879119+934148469+937008331+939432608+941633366+943479513+944252756
754+943465831+942193798+941902168+942044116+941285075+940401337+941069513
744+942755866+943446349+942444308+940698023+939648393+940515550+943424265
734+947162512+950256378+951663295+951015716+949130606+947292192+945738716
724+944016299+942362887+941304334+940812310+941061780+942695934+945228400
714+946513669+944892825+941054195+937234080+935274389+935770874+938071494
704+940167854+939612850+935756523+930166998+924749164+920582097+917981222
694+916491544+915014731+913157579+911765458+911030212+909271658+905057671
684+899795096+896659962+896981855+898681444+898534811+895409492+890721849
674+886393352+882429207+876418521+866674942+857563921+857386281+865001229
664+873052730+878668801+881889074+882250898+879276599+874080350+868866702
654+865022942+862235132+859558858+857358397+857585634+861129510+866169460
644+869897520+870218967+866986276+862398198+859118290+857788332+856782796
634+854391980+850636780+847031781+845032383+845375840+847723528+849468624
624+847006276+839894505+831501183+824419601+818315671+813292080+811474784
614+813847902+818210752+820790436+820394036+819567330+821341053+826159343
604+831662018+834422688+832498763+827748436
##END=
