##TITLE=<SNM>
##JCAMP-DX=4.24
##DATA TYPE=INFRARED SPECTRUM
##DATE=2/5/2025
##SAMPLING PROCEDURE=Instrument type and / or accessory
##ORIGIN=Admin
##XUNITS=1/CM
##YUNITS=ABSORBANCE
##RESOLUTION=4
##FIRSTX=4497.3318
##LASTX=599.83466
##DELTAX=-1.4281778
##MAXY=1.8513969
##MINY=0.38834965
##XFACTOR=1
##YFACTOR=1.7242477e-09
##NPOINTS=2730
##FIRSTY=0.40940517
##XYDATA=(X++(Y..Y))
4497+237439876+238195008+238510117+237974703+237322724+237304316+237348875
4487+236310299+234415566+233310117+233942617+235444946+236425741+236456628
4477+235868704+235018889+234512651+235283511+237369357+239257401+239472970
4467+238207055+236591116+235396758+235142558+236192351+238000353+239245389
4457+239278972+238742486+238504759+238691602+238951868+239069055+239002891
4447+238736506+238429987+238385705+238569246+238557424+238252703+238183704
4437+238683599+239164205+238675700+237123972+235699854+235854531+237699866
4427+239618971+239849231+238356477+236618806+235764238+235609941+235492668
4417+235336470+235518508+236145926+236939705+237605702+237899966+237534266
4407+236483366+235222584+234346446+234050436+234123928+234326016+234629907
4397+235127279+235749149+236191971+236108506+235279812+233813624+232311381
4387+231570285+231824018+232407361+232450952+231813422+231095798+230858278
4377+231034283+231137833+230962018+230874023+231341234+232372257+233507244
4367+234123807+233721085+232285040+230465251+229045091+228270653+227986224
4357+228238055+229176192+230420191+231238790+231401107+231303278+231329895
4347+231484987+231497605+231134964+230524242+229984559+229535549+229028464
4337+228631738+228573646+228672391+228661312+228535430+228171666+227348176
4327+226538927+226789047+228353064+230131769+230848356+230362323+229505924
4317+229017972+229048289+229369378+229646773+229765948+229956178+230276801
4307+230205711+229275922+227923171+227094166+227229554+228038543+228940850
4297+229420816+229313291+229017073+229121194+229673114+230169811+230387783
4287+230709045+231306043+231577077+230940049+229725796+228759676+228415460
4277+228416567+228355380+228173809+228127246+228354603+228664492+228725177
4267+228334000+227668522+227216763+227101460+226769862+225918889+225228453
4257+225514196+226744990+228387771+230094383+231705033+232967664+233396625
4247+232536111+230696428+229130026+228897674+229773726+230732120+231254502
4237+231610557+232016408+232166747+231797573+231213693+230855823+230698502
4227+230431754+229957578+229405416+228842105+228273004+227898644+228066371
4217+228800294+229682499+230386314+231010379+231708766+232229299+232055229
4207+231119823+230206644+230160789+230783126+231261121+231541990+232175665
4197+233031184+233324376+232734068+231679193+230837104+230800617+231627720
4187+232556230+232760426+232306767+231755866+231251857+230749940+230653960
4177+231303520+232203459+232635807+232705359+232996909+233475095+233408136
4167+232384684+230966615+230105808+230088696+230375114+230523637+230860697
4157+231858811+233070229+233297672+232109104+230632735+230233348+230886969
4147+231531585+231494493+230896752+230173234+229814205+230100277+230725638
4137+231141981+231324226+231687092+232322547+232868280+233168023+233559753
4127+234258175+234782908+234383313+232978674+231361439+230439463+230473115
4117+231089835+231888436+232741586+233483461+233719615+233232874+232364669
4107+231746584+231743456+232280754+233044164+233590658+233419474+232400741
4097+231109694+230330745+230256129+230386193+230121070+229400040+228829574
4087+229032906+229922215+230949245+231824916+232496323+232781081+232569936
4077+232132766+231821511+231596540+231064306+230021253+228925968+228600834
4067+229328345+230541094+231502323+231947600+232006747+231845917+231553312
4057+231265494+231224531+231601552+232324880+233127716+233702884+233878112
4047+233726633+233420097+233066668+232846934+233014297+233499362+233833225
4037+233680397+233147904+232506521+231950106+231623330+231579169+231694852
4027+231755278+231653958+231568781+231852986+232545358+233177495+233378286
4017+233430294+233825620+234564469+235314744+235842190+235863173+235071572
4007+233798155+233059219+233525081+234783599+235798150+235922251+235390587
3997+234928234+235004785+235471132+235850054+235856259+235597359+235399350
3987+235524350+236008136+236645907+237069786+236995326+236564136+236376843
3977+236995326+238328269+239554206+239807714+239006123+237827458+236933465
3967+236572000+236873368+237940584+239426217+240517198+240689522+240187121
3957+239562330+239151656+239206119+240104537+242004888+244270956+245582554
3947+245127702+243654652+242720853+242960862+243567608+243513785+242736392
3937+241937185+241910447+243099741+245190029+247047774+247661970+247268615
3927+246948839+247238091+247631031+247579334+247505478+248164267+249395770
3917+250072483+249237636+247060858+244619856+243021132+242780432+243977401
3907+246806417+251378981+256761918+260953244+262554128+261527064+258282845
3897+253739802+249815863+248474900+250071549+252419251+252822976+251974787
3887+252568241+254980241+257140892+258400188+259785140+260301109+258332935
3878+255720162+255465029+257785819+261063016+264408572+266950998+266995730
3868+265079460+263886778+263951386+263180907+260641678+258157724+257697238
3858+260024613+265475805+273284015+278535954+275713126+267862604+260877228
3848+257443246+257805091+260735929+264595657+268754869+273484789+277962014
3838+279649976+277481754+273750690+270737493+268541892+266567893+265115515
3828+264781774+265670080+268185871+273009178+278680814+281284409+280141263
3818+278441116+276782312+273343266+268876048+266240236+267215430+271801822
3808+277711340+281386559+282477108+283778871+285900685+286441060+284997151
3798+283631212+282737443+281489020+280266920+280173066+281601506+284435655
3788+288490453+293074200+297008199+300083308+303630450+308573226+313874270
3778+318209089+322265253+327816676+336034229+347196291+360320461+373097564
3768+383837234+392547457+399757511+406623574+414734586+423607212+430074182
3758+432504416+433579842+436786381+443485271+452368716+459422659+462379994
3748+464526973+470240246+480313816+490204726+496047112+500302805+507237590
3738+519055935+534243983+547258882+553397797+553811201+552738506+553172237
3728+556280463+561867215+568074576+572060841+572311256+570194523+568820045
3718+570032777+573320898+577572096+581995273+584756812+583439821+578442946
3708+572576223+568375564+567311857+568886313+570367124+569590370+567627743
3698+566669401+567584325+570258198+574574247+580688238+587851106+592701204
3688+592232317+588668997+586096410+586239938+588588314+591788734+595217721
3678+599053026+601921312+600763821+596390630+592875015+590928255+587717672
3668+582161548+576859536+574206715+574034391+574327359+573887994+573745883
3658+574777234+575613203+575184036+575762401+580231312+587654827+591697750
3648+586756875+576109158+566151289+559523644+555987737+554823401+555563029
3638+557255329+558338464+558193414+558361348+561324801+567690727+573755043
3628+574367839+570728883+568063548+568957663+572796286+576990758+578613368
3618+577545962+576573136+577075796+577742104+577628581+578163736+580770581
3608+584214847+586084864+586016142+585942027+587743115+591260735+594956176
3598+598309596+601840630+604753855+605330526+604622840+606419641+612081891
3588+617309615+616833676+612049742+608000942+606760763+607487808+609229576
3578+611895083+615145697+617689938+618479966+618278501+619225332+622496617
3568+626360960+627316433+624577986+621280567+620314516+621536581+622551097
3558+621624800+619794260+619217312+620146789+621099221+621528561+622368092
3548+623829164+624702156+624114146+622417110+620439101+619008795+618817700
3538+619788383+620679559+619958253+617373152+614106568+611225699+608918183
3528+607611978+608314064+610731093+612712351+612693062+611225906+609313301
3518+607047474+604685271+603443916+604119315+605499428+605103411+602059379
3508+598625691+597780560+599921594+602675044+603728761+603106735+602028959
3498+600801362+598974625+596753323+595105374+594532021+594559883+594557532
3488+594269922+593713093+593160965+592478099+590501542+586555963+582325195
3478+580529846+582132372+585903932+589864998+592407994+592785897+591377646
3468+588941673+586037298+583485521+582000113+581234559+580440797+579802006
3458+579944221+580645512+581033163+580791944+580605136+581150903+581817798
3448+581123179+578774077+576263160+574836069+574111099+573183972+572138586
3438+571657047+571686845+571494126+570760409+569884513+569366193+569384825
3428+569521509+568705105+566362226+563670239+562505004+562981704+563233777
3418+561923908+559775165+558304068+557975218+557966645+557413549+556365260
3408+555393124+554873698+554909373+555182015+554830661+553458361+552002508
3398+551526604+551794130+552041778+552179741+552235569+551845775+551048764
3388+550318815+549640374+548755075+547985650+547550640+546673637+544837013
3378+543264804+543666178+545853016+547812980+548271773+548088180+548634224
3368+549814738+550205846+548646323+545550852+542763284+541863431+542553453
3358+543097319+542452029+541215480+540244935+539565076+539161454+539686757
3348+541391952+543186264+543880157+543637936+543221904+542622797+541378885
3338+539519342+537544237+536021322+535372713+535491698+535802572+536124370
3328+536838936+537802118+538006072+537054643+536095091+536430993+537834439
3318+538898630+538823547+538210337+538025119+538370631+538506278+537914431
3308+537170828+537342460+538534762+539744659+540247009+540207290+539912144
3298+539630825+539918020+540789803+541182536+540268579+538556782+536992351
3288+536011573+535912500+536993180+538882590+540549656+541208946+540832426
3278+540037904+539764260+540487502+541532887+541793154+541164387+540551972
3268+540644685+541369655+542268056+542649795+541916494+540460365+539370283
3258+538965244+538597711+537949276+537541298+537876820+538779576+539453454
3248+538991688+537431198+536081747+535915853+536355461+536610300+536914433
3238+537294341+536737857+534815158+532711631+531730127+531839398+532125487
3228+532016009+531730300+531626802+531471762+530754121+529430908+527895410
3218+526663942+526384006+527324235+528563619+528662796+527326378+525482633
3208+523965076+522982536+522391415+521743774+520496716+518676097+517073190
3198+516556149+517186817+517989601+517827717+516622659+515267298+514398833
3188+513930914+513633833+513350475+512764573+511756729+510832195+510554679
3178+510719951+510490520+509191159+506872858+504367230+502636005+501815384
3168+501177664+500200275+499214036+498675908+498357014+497724687+496697207
3158+495505182+494178824+492735589+491550063+490951198+490705969+490395440
3148+489995898+489644682+489221114+488576757+487817149+487047586+486179087
3138+485186211+484295208+483759811+483471268+482873025+481579818+480053170
3128+479073464+478608483+477950057+476971804+476364781+476512181+477025938
3118+477499837+477961050+478399897+478469518+477917667+476922336+475831182
3108+474791638+473732943+472628584+471673249+471089283+470794345+470382150
3098+469441714+467980642+466601290+465958455+465988875+466118991+466131055
3088+466188059+466200676+465953200+465564201+465175064+464673440+464145268
3078+463960396+464109870+464003503+463098534+461466625+459803224+458952147
3068+459211688+460032032+460514989+460207087+459324692+458302744+457333478
3058+456411536+455628421+455159327+454983961+454788614+454181315+453034989
3048+451649588+450449612+449550071+448849367+448359705+448173415+448358633
3038+448978446+449784445+449977130+448983908+447297830+445787117+444583996
3028+443431724+442554583+442248306+442080753+441412820+440386309+439656119
3018+439427448+439316587+438985766+438497901+438074645+437736496+437282853
3008+436637425+436057228+435791914+435629442+435063971+433933823+432616418
2998+431529032+430760297+430274334+430082720+430055895+429900233+429450255
2988+428732510+427751940+426504605+425227921+424395270+424312859+424740125
2978+425044536+424872246+424475434+424170921+423831354+423192148+422305190
2968+421410799+420597714+419788915+418959444+418240696+417751033+417379422
2958+416917690+416339740+415708415+414992225+414275067+413814131+413549993
2948+412995826+411991957+411120243+410951929+411242477+411253366+410690522
2938+409979898+409624050+409564696+409291777+408477828+407388609+406586309
2928+406235024+405860613+404898571+403341053+401754290+400767083+400514768
2918+400486042+400124006+399623454+399640254+400191795+400527800+400177103
2908+399423994+398651077+397900491+397181086+396652292+396410900+396400979
2898+396458570+396274873+395574896+394513436+393613618+393194994+393125615
2888+393101278+392868148+392314188+391625619+391143077+390886682+390526652
2878+389904592+389217163+388654629+388197323+387779148+387415453+387128258
2868+386809951+386241507+385383966+384585434+384254890+384375569+384572678
2858+384545127+384176627+383433232+382450035+381559066+380981116+380573760
2848+380065880+379496745+379194858+379228562+379147257+378567232+377759574
2838+377234133+377022470+376823390+376557213+376289134+375837808+374922849
2828+373641291+372519717+372024869+372095458+372276735+372258068+372024730
2818+371594422+371014777+370517198+370284345+370176180+369925455+369419234
2808+368654579+367646804+366514305+365520634+364900233+364627903+364434423
2798+364110274+363705719+363378770+363170046+362968546+362616535+362090022
2788+361582833+361251010+360915731+360272446+359352820+358485047+357851026
2778+357365650+356898595+356370285+355737336+355065497+354487719+354016689
2768+353594677+353307655+353289299+353444753+353482606+353159598+352424326
2758+351480917+350704647+350299539+350063990+349617779+348802101+347800272
2748+346939205+346418431+346210640+346168846+346138426+345970078+345551246
2738+344909516+344252749+343800559+343502855+343061070+342370599+341717634
2728+341325213+340988412+340400609+339592018+338863314+338436566+338243708
2718+338008159+337561257+336996961+336431075+335837327+335247000+334815655
2708+334591824+334487220+334455417+334451752+334334600+334007858+333512319
2698+332886733+332146933+331442634+330997392+330834194+330722642+330440390
2688+329997256+329580326+329329497+329217529+329147770+329078391+328980632
2678+328768830+328391515+327939048+327560005+327296178+327035532+326607574
2668+325970960+325315749+324833415+324403798+323762345+322959146+322330310
2658+322013145+321811299+321534647+321191866+320870345+320641121+320550897
2648+320562651+320538971+320364089+320051832+319699786+319375015+319063139
2638+318692080+318199652+317647144+317252372+317172795+317275325+317304570
2628+317205531+317035800+316689286+316044652+315271563+314681271+314389202
2618+314317922+314350589+314320099+314046559+313558556+313126207+312940678
2608+312890416+312764656+312539960+312308939+312057281+311713047+311339811
2598+311084316+310953578+310784918+310448359+310012105+309695215+309672815
2588+309908434+310135169+310046604+309597836+309046780+308589542+308128779
2578+307574093+307113848+306915528+306814312+306597256+306351405+306228722
2568+306086541+305698510+305180225+304860916+304811171+304802668+304657480
2558+304360986+303932821+303436659+303006523+302720884+302580398+302611060
2548+302813562+303081675+303299249+303399394+303311417+303030237+302696444
2538+302453185+302302778+302182825+302081298+302035045+302066675+302122849
2528+302091979+301926500+301694407+301479149+301304336+301176364+301127104
2518+301193440+301360821+301522947+301533422+301341705+301071206+300916685
2508+300928853+300954226+300844333+300623994+300368394+300084103+299825289
2498+299733371+299845615+300021327+300108681+300050641+299839185+299515002
2488+299220720+299121405+299203540+299227599+298995023+298630187+298449808
2478+298564334+298756154+298754219+298508506+298182352+297951089+297824603
2468+297675336+297470345+297380674+297533294+297771505+297842025+297709559
2458+297512449+297341473+297207278+297083662+296915348+296717132+296608967
2448+296623624+296627219+296544842+296467686+296457522+296425305+296249178
2438+295914417+295549961+295365193+295492578+295858762+296239464+296440618
2428+296420880+296264181+296078306+295945909+295918980+295999732+296155359
2418+296366227+296599772+296771335+296824778+296812264+296815687+296843549
2408+296852295+296818176+296767948+296784264+296971798+297356614+297801200
2398+298082207+298100252+297960526+297815649+297738354+297782809+297958590
2388+298057007+297730715+296818245+295317868+293017785+289540229+284868297
2378+279508210+274024230+268660065+263446652+258400983+253532719+248843434
2368+244418201+240499482+237434346+235476645+234664943+235016228+236815725
2358+240512825+246253719+253851458+263268953+274112052+284340263+290908865
2348+292071299+288761401+284110884+280947660+279471343+278424402+277356875
2338+276572792+276100708+275506908+274407681+272939056+271703976+271248087
2328+271599199+272280233+272777293+273084849+273719267+275094212+277050667
2318+279092040+280868930+282336985+283619562+284871270+286235464+287768265
2308+289319302+290600929+291469496+292052459+292561895+293086576+293563068
2298+293858179+293901978+293806672+293808504+294050899+294459187+294834082
2288+295028876+295038106+294956524+294871485+294770269+294538695+294108939
2278+293627020+293350541+293314624+293255028+292962752+292551421+292253060
2268+292107735+292000849+291906338+291937208+292142130+292371181+292435513
2258+292341279+292253752+292274839+292369349+292468699+292542018+292590103
2248+292625121+292646692+292640089+292606627+292561377+292494383+292377680
2238+292217801+292076830+292045650+292194190+292508003+292857007+293068600
2228+293076862+292967453+292841589+292705769+292547204+292413666+292331635
2218+292239752+292086648+291940216+291928670+292086475+292316321+292516230
2208+292673206+292788319+292811584+292722431+292583535+292470946+292419127
2198+292411522+292379961+292281994+292174936+292132209+292149770+292217593
2188+292379650+292646312+292927111+293085677+293044783+292868552+292717903
2178+292673310+292670717+292645240+292611743+292574651+292513603+292490373
2168+292616998+292873046+293081356+293118102+293064556+293096255+293281300
2158+293539907+293760592+293893093+293930116+293864194+293715584+293580283
2148+293575997+293721910+293914249+294038903+294083877+294125013+294210882
2138+294294192+294299135+294223153+294132307+294097082+294175241+294397240
2128+294712712+295005508+295208563+295363568+295540282+295745584+295935504
2118+296072602+296156535+296228022+296342098+296513074+296705586+296894641
2108+297091336+297297018+297483342+297636135+297786232+297985139+298257296
2098+298573010+298866290+299081582+299226217+299393770+299683592+300064537
2088+300389619+300560284+300586625+300527444+300473448+300511370+300625860
2078+300744811+300885643+301104772+301349725+301520355+301630836+301822172
2068+302225448+302768865+303141963+303113962+302846886+302685313+302748435
2058+302915954+303058791+303117488+303083715+303015407+303017620+303183894
2048+303539016+303990757+304389712+304675041+304880550+305009698+305030474
2038+304981352+304971777+305070089+305229485+305342040+305378440+305427147
2028+305552424+305701898+305818808+305951932+306207116+306655401+307264083
2018+307835638+308098531+307975191+307675897+307451824+307369724+307370173
2008+307419295+307527183+307680737+307822502+307907610+307950613+307974430
1998+307998110+308182153+308787862+309743577+310487422+310590228+310274929
1988+309978331+309807667+309694766+309662756+309732307+309836151+309911752
1978+309954479+309999660+310061123+310076886+310077163+310382886+311272230
1968+312396916+312966466+312681034+312052130+311668143+311623204+311761167
1958+312035191+312412783+312729396+312872682+312947834+313099279+313304131
1948+313551780+314155035+315485127+317181990+318083537+317502198+316114723
1938+315026265+314645147+314746536+315006042+315253103+315475932+315711032
1928+316034662+316712827+317947406+319336333+320240541+320760037+321361598
1918+321676447+320920642+319420162+318429187+318671063+319804252+320932188
1908+321380368+321158369+320765118+320608523+320703206+320873110+321122937
1898+321674235+322534161+323304693+323817516+324528486+325627453+326335278
1888+325944412+324966607+324338083+324306557+324612453+325004287+325298741
1878+325410536+325455475+325716467+326683624+328954256+332477027+335738392
1868+336595483+334762108+332147693+330470741+330017168+330199586+330405510
1858+330400429+330315978+330383732+330716316+331402535+332568461+334239467
1848+336484310+339449043+342402125+343310758+341343603+338497994+336866500
1838+336647819+336951020+337376903+338600905+341342048+344862330+347158127
1828+347470972+346996278+346372593+345037731+343135807+341847612+341789848
1818+342454047+343133318+343849646+345127056+346951788+348394954+348651867
1808+348094346+347801793+348607100+350708277+353445583+355456743+355856528
1798+355339141+355572064+357737400+361443108+364214602+363506224+360311888
1788+357832290+357656371+359105482+360895646+362522163+363829509+364476804
1778+364758537+366019457+369490514+374730994+379009571+379692886+377448769
1768+374408608+371853547+370855520+372090065+374480027+375979884+376382676
1758+376869435+377503110+378093748+379923251+384163214+389401827+392340841
1748+391775404+389620404+387977260+387724979+388819072+390379943+391251034
1738+391952291+394729385+400207765+404600833+403746680+399680976+395855246
1728+393226969+392051641+392399365+393661910+395687209+399735110+406824831
1718+414934669+418882909+416565679+411649591+407771144+406195754+407161771
1708+410513220+415080375+419016447+422344080+427157016+433772008+438686887
1698+439575228+437824853+434064527+429360550+426665487+427324639+430244605
1688+434626196+441520190+450607763+456121195+453636239+447957708+444516656
1678+444893418+448290775+452292596+455028658+457532972+461022523+463448540
1668+462219077+459388955+458685970+460632383+462770306+463194358+463154881
1658+465255297+471392207+482166100+493969823+497524535+493482372+491655566
1648+494271087+496669311+494352841+489642262+486839829+487365132+491336015
1638+498560587+506707724+510124059+506686568+501876121+500264365+502110460
1628+505490084+508789473+511808686+514254303+515202240+515381823+517128051
1618+521081269+524421553+524160423+522023640+521211661+522446137+524619734
1608+526495974+527734805+528770650+530101606+531779871+533452260+534880976
1598+536277025+537911319+539606143+541013565+542254297+543749143+545520294
1588+547133847+548264064+548983089+549575662+550444748+552308578+556056528
1578+561673113+566694083+567704278+566039598+566006516+568608313+571145883
1568+571310567+570453026+570808287+573503039+579975643+591914494+606422891
1558+612059352+606349329+599454643+595717927+594557809+594875839+595971038
1548+598167589+602886949+611004322+621653423+632974327+641813422+643125434
1538+638061288+634446807+635648546+639359543+641847575+643236814+646799166
1528+653774327+662281288+670367411+678391311+686454896+692357051+695413666
1518+697792048+700063958+701251593+702199530+705153546+711394404+720863751
1508+731471300+736665009+731886882+724119204+720304986+721397074+725849979
1498+730946827+733705877+733767132+734114061+737325267+742928750+747575309
1488+748237641+745807960+743331750+742611757+743612031+745562316+748321366
1478+752480025+758200350+764616953+769969608+771892515+769789367+766845031
1468+766795805+770623298+775863743+778807250+779444486+781257672+786361364
1458+792827401+795233783+791654907+786375468+782642348+781092227+781272675
1448+781909980+781707339+780630669+779539826+779209420+780532771+784409351
1438+790110456+794081961+793386996+790282399+788404915+788457598+789057845
1428+789119100+788926346+789159753+790160373+792298226+795634777+798425699
1418+797759772+793718093+789316279+786368693+784753100+783760085+783170209
1408+783455744+784899186+786806745+788282543+789426414+790665211+791812193
1398+792826986+794158426+795390862+795315157+794287574+794359407+796437388
1388+798829252+799167193+798032586+798652468+802740953+808779999+814229930
1378+818460560+822676326+827275042+830792178+832133228+832168143+832116082
1368+832512237+834135505+837754411+842425444+845623790+845979223+844545737
1358+842786477+841350364+840736842+841411826+843006748+844339017+844575051
1348+843893429+842906222+842037032+841707111+842407053+844072287+845814954
1338+846750377+846815850+846334380+845402759+844301960+843903385+844942237
1328+847026372+848782728+849229284+849013092+849812592+852363816+855705621
1318+858680033+861262714+863721363+865695708+866997281+868210843+869730681
1308+871196385+872410361+873728735+875112304+875887883+875976378+876431714
1298+878152326+880619963+882395194+882691446+882037341+881265495+880373421
1288+878876329+876801044+874509084+872022849+869424266+867309435+866023348
1278+865064142+863780199+862128931+860520114+859325012+858606056+858191580
1268+858071074+858536435+859761474+861557791+863669234+865866546+867798164
1258+869295464+870576641+871667000+872159740+871972240+871683870+871932901
1248+873177989+875808098+879524764+882900239+884551161+884597691+884356057
1238+885028207+886876031+889269415+891556674+893666735+895531497+896709108
1228+897195141+897749343+899135263+901818262+905991301+910879286+914560070
1218+915768377+915600097+916370352+919031573+922522092+925370190+926986405
1208+927382007+926780723+925979010+926216358+928235089+931972772+936817477
1198+941510357+944473776+945049756+944186166+943739196+945178697+948391700
1188+951618115+953259082+953652610+954568121+957186892+960771299+963410050
1178+964201600+963994604+963894908+964570100+966820094+970713197+974360657
1168+975795181+975839705+977121228+980587480+984262871+985648031+984760104
1158+983841758+984343830+985577096+986351845+986903627+988496889+991607362
1148+995006828+996638046+995680982+993748465+993794995+997634379+1004106430
1138+1009583324+1011057186+1008953624+1006389472+1005975203+1007802701
1130+1009590790+1008686894+1005158488+1002377798+1003444513+1007770275
1121+1011820182+1013261964+1013743365+1016337869+1021085851+1024840266
1113+1025515665+1024565654+1024623383+1026386653+1028415685+1029512336
1104+1030509430+1032890023+1036285686+1038770815+1039244196+1038307459
1095+1037392708+1037645403+1039100599+1040622719+1040871197+1039759267
1087+1038870649+1040047084+1043146979+1045524600+1044799422+1041558764
1078+1038184534+1036875217+1039101014+1044585097+1050264217+1052240083
1070+1049960152+1046833501+1046103760+1047643441+1049289040+1050255021
1061+1051843375+1054653586+1056885950+1056469676+1054142663+1053501072
1053+1057356565+1063936263+1067895600+1066634956+1063305664+1061700580
1044+1061895616+1062189793+1062340650+1063461983+1066207551+1070046520
1035+1073251711+1073741823+1071057856+1067531386+1066302753+1067677196
1027+1069047214+1068395183+1066221586+1063933290+1061630199+1058886083
1018+1056351866+1055228667+1055717811+1056914365+1058144519+1059018964
1010+1058660143+1056742214+1054711799+1053948112+1053895360+1053493951
1001+1053229156+1054458412+1057354145+1060449754+1061463993+1058598404
993+1052794630+1047515261+1045422899+1046682783+1048723015+1048577689
984+1046679464+1045480283+1045509528+1045723922+1045894759+1045977585
975+1044555092+1040542520+1035521100+1032250783+1031812593+1033157584
967+1034426109+1034211508+1032068953+1028349659+1023764425+1019018033
958+1014821142+1011899827+1010193596+1008263222+1004611752+999842683+996330455
948+995442805+995999220+995325756+992089800+988222761+986524273+986825295
938+986311815+983212957+978740278+975551265+975159397+976751760+978107329
928+977646876+975848900+974649581+974986762+975410710+974014143+971034961
918+968206774+966434033+965256146+963965843+962435703+961036716+960252011
908+960180454+960240742+959620652+958380888+957748215+958913243+961656253
898+964485822+966094294+965933965+963536087+959102056+955050628+954539430
888+957732521+961182733+961663788+959390634+956482663+953949415+951631390
878+949904763+949591503+950376139+950741320+949619365+947496445+945441141
868+943904571+943091589+943391367+944728062+946438373+947999762+949063435
858+949197146+948360450+947240362+946665488+947232826+949291034+952139339
848+953665607+952487651+950086800+949089983+950173567+951644802+951506874
838+949915617+949336111+951335345+954060310+954568951+952621984+949943134
828+947472316+945234629+943162870+941323273+940104249+940456502+943281854
818+948081275+952589421+954346607+952909733+950115700+948239460+948575742
808+951218435+954787701+956918433+956500846+954758732+953477624+953278717
798+953937869+955270138+956803044+957625221+957532231+957400871+957964476
788+959065759+960044185+959952786+958329519+956187448+955204735+955695262
778+956271242+955891956+955131864+955127924+956432124+958725397+960706103
768+960801097+958946498+957191040+957790942+961030632+965253312+968422067
758+969290773+968036490+966178226+965013268+963900577+961784916+960130676
748+961293352+964322728+965439567+962724211+957965928+954135324+953283556
738+955910831+960685500+965193024+967716801+968111988+967343046+967102311
728+969188589+973900551+979063424+981447129+979462137+974474595+969076172
718+964691090+961390697+959160960+959061887+962568999+968932989+974219203
708+975320901+973677307+971729719+969363713+966086205+963769978+964664195
698+967377615+967428085+962690196+956087476+950990283+947032882+942421306
688+937208378+932276284+927804573+923940645+921124073+919999837+921002461
678+923241670+924412436+923022160+919770371+914762779+905929976+893809295
668+886736858+892308884+902283346+905627156+902469048+898624202+897907044
658+899518835+900570616+899480533+896931521+894532330+893430770+894003708
648+895793181+897425367+897609963+896289170+894461395+892769337+890740581
638+887566087+883311950+880248076+881985488+889332261+896843372+897068827
628+890588825+884842643+883158743+882112838+878726025+874882009+873771669
618+876711926+882606546+888294100+890904159+889490239+884642007+877839550
608+871948388+869796015+870163893+869745753+869096349+869914931+869927583
##END=
