##TITLE=<SNM>
##JCAMP-DX=4.24
##DATA TYPE=INFRARED SPECTRUM
##DATE=2/5/2025
##SAMPLING PROCEDURE=Instrument type and / or accessory
##ORIGIN=Admin
##XUNITS=1/CM
##YUNITS=ABSORBANCE
##RESOLUTION=4
##FIRSTX=4497.3318
##LASTX=599.83466
##DELTAX=-1.4281778
##MAXY=1.7554303
##MINY=0.19051161
##XFACTOR=1
##YFACTOR=1.6348719e-09
##NPOINTS=2730
##FIRSTY=0.20776996
##XYDATA=(X++(Y..Y))
4497+127086385+127186955+127512172+127840242+128058153+128039870+127741057
4487+127277955+126888261+126887514+127457239+128407615+129282596+129647188
4477+129290271+128427357+127699522+127651944+128232925+128927602+129260311
4467+129050521+128444101+127903397+127879726+128258483+128400524+128043078
4457+127809599+128267770+128862970+128656571+127872444+127587203+128051536
4447+128566537+128852753+129167087+129261551+128571058+127325178+126460697
4437+126522840+127192679+127686534+127416688+126471980+125495600+125072912
4427+125280213+125658614+125610544+125043216+124427937+124034588+123635516
4417+123208717+123176187+123653216+124186920+124455937+124569787+124560253
4407+124246849+123729442+123409958+123415937+123493201+123480194+123402684
4397+123166298+122668788+122148227+122012794+122327310+122665999+122626423
4387+122489468+122936036+123935732+124613646+124466410+123806122+122849876
4377+121558013+120377675+119934188+120096837+120257409+120236846+120263041
4367+120387893+120398056+120170301+119858701+119620108+119297434+118672156
4357+117931351+117509939+117551939+117815177+117994032+118031757+118192766
4347+118664856+119090661+118905790+118146491+117461349+117349960+117752815
4337+118297000+118649169+118697878+118597918+118533861+118361121+117765147
4327+116913609+116529994+117047110+118075243+118935267+119314114+119266673
4317+119052261+119047996+119354628+119545478+119220990+118641768+118453224
4307+118941437+119822233+120620014+121001368+120813790+120101859+119184359
4297+118434157+117899960+117494663+117482759+118213474+119454105+120589753
4287+121321918+121612463+121257323+120197088+118972062+118292407+118364585
4277+118922288+119561593+119826435+119423252+118671691+118365624+118900659
4267+119800632+120336578+120368588+120276239+120284625+120284506+120222053
4257+120266004+120595386+121231082+122009613+122672178+123076391+123224604
4247+123090437+122708764+122391103+122444906+122772803+123083565+123239861
4237+123187516+122940912+122713841+122637224+122438927+121860872+121230563
4227+121190504+121927736+122896524+123342975+123086235+122683079+122756060
4217+123335191+124027233+124586895+125009000+125204891+124942364+124170924
4207+123285726+122971674+123641085+124936457+125943645+126089779+125724841
4197+125616414+125989409+126347421+126234537+125811074+125463535+125272402
4187+125241950+125616815+126448128+127168407+127160742+126565596+126097663
4177+126247935+126961078+127912366+128776282+129268633+129303487+129238627
4167+129627719+130517548+131226252+131037334+130007223+128941784+128578924
4157+128795641+128807955+128316533+127992182+128407971+129092120+129310906
4147+129218976+129404595+129753255+129608187+128840767+128064898+127836396
4137+128106205+128420868+128418197+128175640+128101129+128407843+128857875
4127+129144246+129199736+128952922+128252686+127316309+126768942+126924483
4117+127416897+127787186+128069437+128566282+129331669+130132740+130767688
4107+131176431+131314937+131199500+131063055+131181262+131521354+131806504
4097+131867107+131734088+131509250+131320569+131283455+131412526+131659641
4087+131974996+132266917+132468632+132666755+132956754+133207970+133229672
4077+133138207+133248393+133584830+133780547+133484925+132700370+131785367
4067+131241455+131365586+131972061+132551310+132779384+132724451+132569567
4057+132406407+132290497+132233449+132138803+131921785+131662293+131551177
4047+131686957+131925795+131972134+131719295+131433508+131416582+131581757
4037+131560529+131172047+130639446+130363457+130524821+130897735+131130831
4027+131220464+131506315+132146778+132822770+133079254+132846112+132520230
4017+132520020+132788134+132901046+132712110+132583211+132809645+133154804
4007+133229307+133069401+133058555+133424733+133985716+134347565+134351685
3997+134277602+134423900+134571118+134248599+133490440+132836141+132658306
3987+132961867+133653982+134504199+135042333+134987764+134707062+134922950
3977+135948959+137298162+138096863+137920268+137070899+136054953+135216703
3967+134923715+135527137+136850582+138092279+138570056+138372561+138035887
3957+137864095+137886791+138240454+139258206+141102914+143213412+144350983
3947+143915352+142945124+142757364+143097146+142739508+141515585+140459005
3937+140423085+141728502+144378819+147553070+149426625+148825091+146841222
3927+145532141+145567633+145964864+145924715+146081303+147354445+149335106
3917+150309727+148914687+145668686+142446329+140719336+140852755+142921991
3907+147424709+154440698+162201211+167572685+168766676+166217986+161060668
3897+155102708+151116622+151093973+154240050+156926006+156577610+155578616
3887+157269042+160680463+162359677+162194849+162294599+161654063+158584712
3878+155695648+156509142+160861004+166402738+171530908+174472199+173313627
3868+170096839+168938796+170073232+170032107+167069761+163472075+162293870
3858+165399825+173728359+185587203+192444334+186605192+174655201+165028188
3848+160415411+160858416+165078172+170921289+176781358+182117212+185742443
3838+185507433+181604645+177056782+173644195+171034309+169114579+168597674
3828+169389840+170777059+173674637+179774912+187072314+189840793+187382866
3818+184423291+181799387+177097178+171263450+167800750+168694926+173701471
3808+179938027+183740500+185996630+190168516+194941710+195321058+191737919
3798+188672596+186873835+184806959+182871552+182622561+184324798+187304389
3788+191222963+195760873+200026566+203914206+208981471+216015006+222993561
3778+227895872+232269208+239257134+250404641+265018493+280209043+292484551
3768+301329152+308544230+314766568+320436817+327232790+335554906+343072498
3758+348220409+353704685+364164789+382370932+406350574+427471485+438861094
3748+445655425+455319061+467457669+475826343+480456036+487883940+500926677
3738+517084556+531556750+541370230+547077667+550659366+553646176+557083610
3728+561484418+565839726+567959156+566916412+563270364+557434339+550400257
3718+544600763+542595192+545591955+552205016+557513745+556670063+550823939
3708+544133586+539106826+537316395+539191482+542641494+545088684+546738422
3698+549319852+553608624+559364514+566212950+573977473+581571116+585607305
3688+583663422+578629442+574864248+574187254+576724788+582412756+591407674
3678+602378121+609020349+605065535+596761648+592884709+591278831+584909347
3668+574210040+565327049+560805893+559434222+559535941+560529211+562402948
3658+564149337+564117363+563366067+565891825+573749098+583910098+588267594
3648+581590512+569552493+560051899+555857226+556165335+559253498+563380942
3638+566783413+568618978+570189857+574145473+582125246+592447283+598593495
3628+595359243+588453677+585899154+589591869+597677663+607184966+614627307
3618+617859700+618423782+618874188+619509802+619930166+620823978+621682425
3608+619897573+615404087+612438934+614277964+620158395+627488482+634325433
3598+639037522+640042021+637736617+635390599+636826618+643506945+652693779
3588+658117024+656468817+651803395+648899345+648092742+647571680+646622816
3578+645757151+644989193+643302268+640324573+638357429+641483363+651352624
3568+662934769+667072129+661955572+655097402+652137207+651656030+649346397
3558+644342423+640205354+640091240+642776393+644379027+644045361+644840224
3548+647649409+648736377+645563557+640915270+638213054+637130461+635867036
3538+634291016+633465746+634079339+636020890+638419773+639915000+639966188
3528+639927979+641433197+643785267+644543818+642887737+640388448+638395346
3518+636760774+634840005+632425154+630162625+629399334+630538145+631695623
3508+630736551+628161939+625979327+624755057+623538079+622055102+621350873
3498+622168779+623812391+625088067+625439890+625048838+624659245+625227557
3488+626917107+628357137+627815002+624934140+620952311+617603398+615577629
3478+614332505+613883849+615394317+618709688+621278394+621513477+620977467
3468+621263665+621376831+619990250+618120814+617847960+619388979+620400405
3458+618552188+614599817+611514133+610953514+612233966+613950787+614850723
3448+613753475+610565197+607053606+605151212+604996884+605586087+606501518
3438+607811720+608977401+609127245+608025803+605916581+602821710+598870396
3428+595178775+593359834+593732802+594976504+595633811+595265254+594175078
3418+592743287+591245143+589884592+588760073+588075240+588287573+589464411
3408+590825800+591407856+590923180+589819697+588655875+587420558+585727545
3398+583813192+582620277+582454209+582306735+581279960+580126785+580432888
3388+582522240+584741967+585083764+583387505+581532070+581376575+582830313
3378+584335275+584908509+584944566+585152925+585529284+585498185+584593035
3368+582781094+580467414+578540812+577894224+578447734+579152692+579294952
3358+579226848+579435535+579698655+579756295+579914707+580328435+580391435
3348+579507540+577986464+576624564+575908633+575884133+576308252+576800986
3338+577369261+578634875+580679018+582216501+582043835+580608435+579106900
3328+577798849+576302528+574872087+574221087+574348473+574431962+574052614
3318+573794635+574165124+574652134+574606853+574397217+574623259+574863154
3308+574269176+572985917+572032970+571866246+571901574+571584679+571169127
3298+571188340+571953637+573724999+576430351+579151890+580881034+581739955
3288+582577803+583534396+583756135+582591402+580704831+579662379+580304737
3278+581838647+582802167+582575798+581475158+579967863+578618687+578183083
3268+578771338+579174166+578009323+575565779+573472927+572645141+572589724
3258+572555891+572473532+572720172+573438328+574377493+575354867+576349268
3248+576956225+576551101+575369123+574380702+573885525+573273172+572161303
3238+570953367+570328982+570544851+571078054+571019794+569882040+567779526
3228+565082633+562382677+560474122+559852435+560340721+561210288+561739772
3218+561996256+562717000+563988082+564646592+563483900+560588528+557266120
3208+555012924+554513081+555308492+556333918+556711516+556233913+555436643
3198+554989956+554738466+553915603+552625745+552177636+553429213+555504419
3188+556546725+555452356+552691442+549565180+546933839+544888747+543402743
3178+542631723+542435906+542271989+541838245+541230777+540400366+539117472
3168+537455046+535803668+534496091+533669035+533167441+532525046+531517266
3158+530605991+530280090+530196601+529639080+528659191+528024561+528070827
3148+528233722+527779488+526502208+524548153+522128562+519696247+517913873
3138+517165676+517270749+517690238+517990764+518092701+517944352+517145041
3128+515397923+513236274+511690296+511204453+511245505+510992776+510253220
3118+509526642+509261007+509438851+509810507+510024517+509678819+508747237
3108+507702852+506852754+505946911+504692163+503253737+502171728+501954181
3098+502528509+503065795+502716159+501511359+500215558+499385694+498899632
3088+498313383+497357957+496093984+494865959+494082106+493760762+493381195
3078+492515529+491431624+490763088+490822442+491430931+492116347+492306441
3068+491569254+489924876+487986607+486602066+486187864+486491853+486924321
3058+486908462+486151004+484952037+484030736+483782199+483974335+484197970
3048+484183605+483753470+482937133+482037889+481219436+480197365+478692949
3038+477095055+476198145+476094676+475800166+474448730+472477940+471027775
3028+470515973+470384031+469988786+469240626+468428663+467776934+467255289
3018+466687743+465967436+465176218+464525729+464174162+464029605+463757954
3008+463141955+462417310+461997675+461789935+461156655+459759536+458056897
2998+456711695+455840415+455111905+454291958+453415793+452642002+452131075
2988+451895081+451715742+451405847+451067660+450840780+450602196+450231890
2978+449900265+449742583+449567437+449147255+448455058+447490371+446185565
2968+444548078+442743538+441120560+440090467+439710025+439542900+439236140
2958+438924276+438704469+438209292+437168189+435899914+434883093+434276645
2948+434004739+433895146+433704906+433276302+432621985+431819903+431001013
2938+430312790+429696134+428992343+428399969+428352063+428784640+429005578
2928+428439781+427094434+425323764+423602495+422401267+421867335+421690111
2918+421477741+421087382+420508060+419733358+418877536+418174583+417777516
2908+417706167+417900964+418133422+418030646+417455188+416709251+416160190
2898+415819232+415399560+414653186+413578906+412371334+411221950+410218472
2888+409415623+408813588+408220520+407400318+406469356+405861122+405724622
2878+405626440+405106945+404293780+403595931+403030791+402359995+401683548
2868+401268251+400960069+400415565+399727196+399241462+398990045+398753285
2858+398451265+398138124+397774672+397192214+396288923+395222372+394234790
2848+393305249+392349385+391660397+391535709+391600641+391184178+390264372
2838+389417409+388943743+388574129+387976687+387169281+386384735+385753241
2828+385227658+384739992+384303222+383898535+383351150+382521395+381597433
2818+380888866+380333424+379600138+378678144+377880947+377293166+376755370
2808+376317725+376154100+376100506+375758527+375006465+374089248+373292087
2798+372726108+372307822+371813411+371059709+370093200+369114367+368243488
2788+367479395+366809000+366217901+365666944+365146939+364703169+364379382
2778+364121039+363691232+362827389+361631302+360583527+359971647+359556169
2768+358988294+358273639+357645134+357221306+356921947+356563270+355983584
2758+355168522+354263736+353439925+352767087+352195530+351604578+350897724
2748+350098267+349326116+348666258+348098456+347526243+346818588+345877672
2738+344736345+343549153+342494050+341728207+341326619+341136854+340826776
2728+340245594+339610017+339180976+338913007+338562096+337981643+337173327
2718+336237333+335408490+334880938+334460683+333732356+332691034+331790332
2708+331279989+330949130+330552974+330095167+329690188+329402824+329196288
2698+328942064+328533294+327980695+327356967+326707170+326055770+325468937
2688+325038292+324735251+324356011+323796304+323273601+322988825+322713456
2678+322090675+321223514+320536458+320142745+319783412+319333261+318902506
2668+318455819+317834862+317181019+316835758+316791607+316688503+316336353
2658+315847884+315310635+314659818+313852631+312977669+312207232+311681686
2648+311386228+311168462+310912634+310634385+310390697+310156599+309826359
2638+309333881+308735017+308133965+307560513+307009591+306563998+306330519
2628+306257967+306157853+305886530+305399556+304708836+303910053+303172684
2618+302623075+302302625+302200979+302199703+302055365+301630279+301095655
2608+300734006+300576853+300407030+300082570+299671685+299280961+298951086
2598+298725063+298635941+298605863+298486097+298196381+297770804+297312013
2588+296914107+296582537+296259316+295954579+295766363+295718931+295652850
2578+295344322+294727794+293979961+293381845+293095920+293058387+293067064
2568+292965418+292725194+292376635+291960609+291596263+291466800+291619524
2558+291844562+291854789+291583320+291258368+291168844+291360487+291554044
2548+291409396+290902662+290358467+290052728+289915700+289712755+289361552
2538+288957393+288609545+288353717+288181488+288098071+288103631+288107459
2528+287974788+287712415+287469694+287334726+287258145+287144413+286933684
2518+286684857+286594167+286779357+287080338+287229708+287158377+287021494
2508+286967171+286953244+286810984+286472870+286028808+285541269+284982947
2498+284396588+283929758+283664414+283538724+283434836+283256282+282958600
2488+282586689+282254554+282010174+281745523+281362984+281010232+280951881
2478+281187164+281409560+281382034+281153659+280871672+280563527+280186129
2468+279796499+279538320+279424260+279273869+278958997+278559177+278195943
2458+277909800+277760340+277802795+277904386+277838925+277626866+277519842
2448+277566965+277467251+276997304+276354070+275899873+275759454+275816493
2438+275918120+275948417+275865401+275766344+275780581+275871672+275876868
2428+275723670+275475425+275200183+274935186+274769465+274822475+275075332
2418+275317433+275374290+275322355+275339472+275420136+275418970+275305438
2408+275171272+275043066+274889504+274767624+274780694+274919309+275078358
2398+275205634+275315009+275393850+275437381+275556417+275910901+276527612
2388+277314710+278282368+279635189+281569958+284032661+286783567+289756304
2378+293267420+297750952+303292376+309499693+315810952+321795910+327115212
2368+331445327+334733574+337262686+339005064+339303840+337940737+335978041
2358+334484126+333013909+330506088+327236508+324768391+324188157+325426974
2348+328129591+332256378+337598758+342960388+346618687+347794540+346969962
2338+344995199+342367978+339316965+336212468+333481559+331094015+328547294
2328+325545536+322307821+319093876+315866952+312526351+309146558+305905743
2318+302942996+300281176+297827332+295482882+293235756+291111659+289116297
2308+287266968+285585001+284032807+282555335+281171761+279913712+278719466
2298+277526059+276410325+275507636+274834889+274277825+273701911+273050420
2288+272393460+271877429+271580476+271421007+271211390+270826427+270368475
2278+270103131+270129764+270206837+270034444+269623304+269250208+269105012
2268+269105432+269056887+268886554+268654862+268426724+268251578+268196873
2258+268267912+268340136+268289860+268160086+268106237+268196344+268340391
2248+268411794+268381024+268318425+268298573+268324951+268361609+268426323
2238+268575492+268800239+269061372+269405465+269878767+270389146+270846024
2228+271323937+271890718+272445577+272931493+273511435+274327682+275245392
2218+276031724+276694882+277486337+278606099+280016981+281523948+282955610
2208+284292573+285680832+287283538+289074333+290834959+292397926+293809300
2198+295219762+296737758+298418722+300242786+302068453+303740795+305233671
2188+306590175+307823268+308937287+309902375+310630155+311142504+311654305
2178+312318284+313024044+313545908+313734762+313550392+313062580+312424633
2168+311757045+311060874+310289343+309460610+308580251+307471955+305909863
2158+303934771+301815815+299763231+297846838+296003852+294056487+291949453
2148+289832520+287808228+286119206+285608535+287164156+290639087+295041937
2138+299680963+304463471+309349448+314184292+318902835+323549189+328225367
2128+333068523+338157555+343468435+348937434+354533418+360316689+366345396
2118+372452307+378371457+384212914+390499273+397713276+406216991+416565423
2108+429501702+445782993+466204415+491199822+519899028+550031591+579107338
2098+605204915+627001690+644353360+658367638+669992584+679284929+685773121
2088+688493857+686489526+679583377+667827180+651212843+630513645+606896617
2078+581093148+554011780+526949734+500818943+476221223+453843047+434075687
2068+416867845+402053308+389312191+378226134+368692946+360733115+354048195
2058+348367154+343738919+340054152+336938353+334277444+332262795+331050775
2048+330766619+331604613+333854382+338002352+344617892+354147325+367139203
2038+384416789+406602829+433646646+464766682+498281044+531640276+562426828
2028+589355291+612188466+631299030+647244139+660352719+670956396+679551585
2018+686167891+690230877+691334105+689604450+685403361+678974232+670202511
2008+658786835+644763516+628692116+611308034+593052381+573921728+553814103
1998+533095910+512751087+493717122+476032806+459017428+442396491+426677679
1988+412344027+399440597+387924296+377772301+368828388+360910375+353897841
1978+347600837+341818916+336537202+331871707+327946825+324891438+322632044
1968+320591911+318003591+314732589+311410399+308622871+306408394+304607810
1958+303221811+302215325+301306329+300186366+298858154+297665038+296959643
1948+296820591+297228705+298193009+299201409+299058019+297235541+294798450
1938+293079277+292322202+292029442+291810911+291597667+291450758+291378662
1928+291435573+291999364+293374571+294993429+295956347+296412386+296991945
1918+297135481+295783334+293503251+292057169+292292781+293533037+294494588
1908+294472604+293787790+293172793+292939441+292923053+292988806+293292048
1898+294040281+295052874+295786998+296188660+297032432+298611860+299748211
1888+299242042+297661976+296399279+295997509+296179709+296525990+296726893
1878+296726292+296748787+297108192+298329946+301249326+306022702+310662713
1868+311837691+308734871+304146138+300859241+299503357+299353714+299595505
1858+299801166+299928369+300127577+300469921+301004764+301964565+303701584
1848+306629623+310842598+314802406+315366890+311827701+307584028+305579369
1838+305715723+306314660+306628128+307852143+311390165+316253337+319257792
1828+319124610+317809924+316550399+314628938+312054216+310205963+309817937
1818+310285333+310822400+311554227+313211257+315790827+317937601+318298320
1808+317245331+316414556+317136138+319725990+323343965+326232082+327050790
1798+326444452+326625066+329371032+334177475+337463498+335752036+330841250
1788+327325211+327107446+328966783+331187166+333235903+334825667+335411662
1778+335615719+337493831+342633540+350144569+355950479+356261323+352250655
1768+347318577+343608143+342667191+345077996+348823685+350808657+350979938
1758+351317140+352059067+352945441+355596652+361479562+368730607+372961811
1748+372464447+369828622+368060613+368354358+370338527+372514140+373418196
1738+374181524+378018723+385457528+390889449+388862004+382834645+377510020
1728+373886868+372297979+373012926+375301851+378941665+385613314+396684605
1718+409203947+415435472+411998147+404313576+398095942+395731986+397837489
1708+403835608+411340913+417357917+422279241+429565103+439712067+447325616
1698+448722698+446096097+440803701+434621249+431517190+433100318+437854152
1688+444841275+455646311+469730990+478423705+475201192+467564820+463486741
1678+464927354+470478348+476716472+481319186+486075463+492617868+497578493
1668+497121743+494796871+496360713+502251900+508041185+510294673+511148526
1658+514996371+524780210+541206423+558502713+562737198+556203871+553837837
1648+557819302+560055982+554057681+544966768+539823450+540318226+546110392
1638+556542241+567974359+572049230+566081627+558653067+556388204+559375123
1628+564653482+570068524+575538107+580061779+581409533+581061830+583691349
1618+590731664+597366345+598062042+595259785+594131838+595792295+598442631
1608+600307764+601279378+602257590+603634329+604985364+606001420+607147960
1598+609148427+612031695+614904973+616832596+617853283+618695907+619703396
1588+620666405+621509758+622450237+623521746+624720276+626929722+631839488
1578+639832605+647263535+648800252+646578702+647413816+653003966+659019877
1568+661145906+661118781+662730602+667837170+678466149+697818942+723911197
1558+740423451+740282868+738203068+741551325+748833432+757640079+766655487
1548+775508509+785210281+796794613+809500985+821326817+827711467+821581734
1538+807311592+797378237+795073490+795680156+793595179+789319787+787318810
1528+789177818+793284408+798516976+805389729+812394024+815296761+813442784
1518+810050339+805912249+800890630+797540695+798976788+806293749+818852684
1508+832879212+837340249+825506323+809924631+801446108+800794161+805021209
1498+809868704+811081453+808241570+805848156+807877133+813552231+817505988
1488+815442302+809654621+804835855+802902398+803103794+804061845+805706770
1478+809392194+816063625+824679960+831459380+831232463+824010221+816760489
1468+814696439+817205644+819916319+819635371+818852757+822370983+831626796
1458+841815578+843123118+834226492+824484835+819091559+818156987+820385027
1448+823419523+824674418+823692086+822115264+821576484+823165555+827535009
1438+833335888+835950969+832435223+826958457+824428252+824706064+824610033
1428+822717410+820791245+820321152+820934891+822500483+825705896+828909778
1418+827642561+821337098+814679157+810729703+808924142+807604789+806461895
1408+806548228+808127966+809448923+808991736+808178570+809344798+812417503
1398+815598344+817946039+819073038+818030404+815180386+812814461+812230035
1388+812059264+810238391+807431102+806639520+809542183+815186001+821665223
1378+827942248+833779878+838616362+841684182+843430826+845292824+847629145
1368+849620205+851436776+854295836+857583864+858285613+854942898+849964882
1358+846343479+844841981+844576200+844539669+844381221+844228242+844205200
1348+844279575+844392159+844629137+845363116+847081250+849765309+852425307
1338+853634337+852888254+851170120+849950080+849915736+850797298+852115557
1328+853698212+855593314+857928687+860778923+863862785+866567626+868526895
1318+870027518+871616079+873443879+875335554+877368979+879834217+882611172
1308+885229097+887595167+889979613+892219100+893663796+894074390+894069140
1298+894496212+895541544+896472179+896326637+894887774+892689631+890088623
1288+886943584+883353973+880019133+877520646+875713117+874050108+872141953
1278+870064997+868401916+867593416+867212208+866609844+866180220+866930386
1268+868939894+871286423+873325244+875078596+876617939+877819021+878541332
1258+878812072+878835624+878675207+878088010+877047344+875985679+875074951
1248+873967202+872555318+871239611+870321518+869868487+870069737+870971423
1238+872048474+872732870+873252546+874360660+876292366+878438885+880045018
1228+880905945+881300423+881579840+882049131+882982974+884477181+886414502
1218+888654426+890953705+892695391+893349380+893400713+894141473+896309210
1208+899435947+902578871+905184837+907262231+909160614+911259883+913887359
1198+917331356+921413883+925209775+927973897+930134562+932539861+935124536
1188+937078700+938032522+938498678+939279250+940684134+942493268+944844682
1178+948402137+952992164+956908951+958496637+957924898+956858639+956978076
1168+958847147+961469009+963242414+963971288+965102006+967600201+970672614
1158+972982904+974319611+975421526+976987046+979284866+982075311+984748507
1148+986900713+988431524+989164846+989074502+988901617+989747522+991555562
1138+992959352+993121081+992892050+993803799+996466859+1000217324+1004038300
1128+1007151401+1008702118+1008411691+1007893473+1009258253+1012014208
1120+1013590446+1013301113+1013334290+1015507351+1018968118+1021546303
1111+1022680010+1024012342+1026629829+1028655671+1027593932+1024493810
1103+1022827374+1024391289+1028483077+1033264728+1036261017+1035934205
1094+1034401571+1035569403+1039966857+1044292051+1046236372+1046943663
1085+1048072484+1049434785+1049578941+1047376204+1043712510+1041365616
1077+1042259136+1045489852+1049234337+1052455209+1053570979+1051311294
1068+1047559224+1045470529+1045424227+1045882799+1046748975+1049082817
1060+1053009156+1057728172+1061964627+1063833843+1062726022+1061280961
1051+1062581355+1065855237+1067730652+1067398079+1067245027+1068356933
1043+1068939390+1067845933+1066913549+1068310485+1071479440+1073741823
1034+1072866022+1068665734+1063241907+1059498514+1058079558+1056433174
1025+1052755042+1049643399+1050837627+1055539435+1058875588+1058159912
1017+1055745935+1054541426+1054417905+1054298759+1054476967+1055461779
1008+1056581997+1056854778+1056058528+1054585540+1053090021+1052012168
1000+1051178512+1050018847+1048115943+1045640133+1043458979+1042882646
991+1044466248+1047104298+1048673536+1047572349+1043907999+1039149827
983+1034841841+1032187021+1032030907+1033759468+1034730425+1032740239
974+1028634160+1024836008+1022285531+1020014106+1016907203+1013263780
965+1010338074+1008352483+1006304766+1004050695+1002325780+1000548657+997425129
955+993420769+989927699+986623265+982337592+977913305+975396735+974689590
945+973494924+970870583+968475346+967647815+967652847+967186180+965679505
935+963034310+959765605+957386992+957351920+959748251+963417705+966837348
925+968751627+968574367+966563254+963543195+960483760+958090419+956570764
915+955823296+955889067+957013514+958964689+960841781+962072831+962441425
905+961350666+958469148+954808224+952267373+951669894+952219831+953017611
895+953749694+953721767+952031050+949341376+947702429+948060085+949265178
885+949789302+949423626+948987074+948955793+948891189+948379241+948091804
875+948895345+950204708+950430895+949106876+947377003+946029066+944649995
865+943427840+943739048+945829129+947495784+946568212+943776235+941339873
855+939785656+937956616+935533525+934052079+934949171+937299200+938713563
845+938500720+938070074+938120824+937622439+935929681+934262589+934610765
835+937767471+942297997+945676223+946955909+947300440+947417325+946392556
825+943611079+940165697+937789273+937090878+937439492+938471626+940704332
815+944148037+947610263+950250791+952591560+955731202+960229573+964854600
805+966832827+964648027+959629615+954041944+949469928+947061420+947080742
795+948451064+950175031+952153039+953719725+953509288+951854446+950935770
785+951725894+952946518+953322184+953329549+954041215+955341390+956296306
776+956354275+955408547+953608309+951954706+952241998+955087495+958549283
766+959843552+958317627+955883015+954738006+955706192+957801305+958612429
756+956561212+953003101+951097936+952449227+956052546+959892042+962315571
746+962817602+962291873+961718019+961019916+960339823+961000228+963597299
736+966584910+967974409+967318451+965547672+963593872+961510426+958902491
726+956501712+956142452+958371877+961352707+962617737+961541999+959235793
716+956504264+953416246+950193698+947061930+944014162+942036664+943315402
706+948342637+953770038+955420505+952915893+949358146+947332669+946668691
696+945477598+942903570+939889854+937123982+934090214+930604363+927379627
686+924585463+922141663+921326821+923140037+925377191+924386328+919834801
676+914946108+912450246+912231569+911887622+908453104+901802017+897838709
666+899924707+903576078+903795265+899457311+894119452+892504058+895342045
656+899193645+900397279+898473156+894891785+890126394+885597398+884436129
646+887083949+889755759+889271884+886619178+884164952+881328423+875483721
636+867526260+862423484+863016150+866190355+866530147+862700932+858206645
626+856469480+856564198+855287137+853292795+853659785+855368366+854954419
616+852986983+852877827+855791064+860222351+864057982+865387908+864243409
606+862970504+861750756+857118875+847807791+838692268
##END=
