##TITLE=<SNM>
##JCAMP-DX=4.24
##DATA TYPE=INFRARED SPECTRUM
##DATE=3/5/2025
##SAMPLING PROCEDURE=Instrument type and / or accessory
##ORIGIN=Admin
##XUNITS=1/CM
##YUNITS=ABSORBANCE
##RESOLUTION=4
##FIRSTX=4497.3318
##LASTX=599.83466
##DELTAX=-1.4281778
##MAXY=1.7144151
##MINY=0.18012342
##XFACTOR=1
##YFACTOR=1.5966735e-09
##NPOINTS=2730
##FIRSTY=0.20127408
##XYDATA=(X++(Y..Y))
4497+126058388+126544907+127359403+127964568+127805866+126822497+125579073
4487+124754517+124648255+125112684+125673678+125832034+125513455+125060048
4477+124719790+124520436+124635591+125325823+126381455+127078183+126909215
4467+126109474+125323247+124973861+125115512+125627155+126215120+126463648
4457+126250164+125919005+125776636+125598410+124909886+123687685+122619575
4447+122539893+123497076+124482508+124349051+122979432+121305084+120304794
4437+120233651+120635243+120836959+120507405+119828774+119094006+118328834
4427+117535653+117050357+117245045+117937778+118409719+118024534+116738330
4417+115172800+114250904+114518666+115687018+116882407+117336672+116911403
4407+116106595+115532918+115364949+115349812+115211997+114903525+114608400
4397+114650676+115229719+116128433+116830508+116988341+116651433+116070020
4387+115443110+114886605+114516371+114443912+114648474+114862639+114673579
4377+113984093+113323763+113296223+113756116+114069086+114111624+114330297
4367+114866596+115311315+115340320+115049124+114651395+114317194+114294581
4357+114736462+115359723+115654970+115475177+115106575+114795127+114496240
4347+114069571+113569995+113301608+113463538+113813782+114012343+114184782
4337+114642417+115223261+115467123+115241460+114736789+114123439+113614027
4327+113534503+113904999+114213004+114034191+113635501+113531601+113740101
4317+113947789+114062301+114062198+113744021+113143345+112811682+113251529
4307+114367132+115688950+116815585+117535252+117873401+118115480+118463046
4297+118648989+118304914+117662680+117373014+117706608+118420825+119167034
4287+119550223+119212298+118292642+117371586+116760821+116367563+116252445
4277+116678993+117574888+118489467+119121286+119475804+119558099+119365399
4267+119195405+119487881+120211934+120743493+120590690+120090339+120072645
4257+120814383+121687843+121996463+121776493+121579911+121852377+122609934
4247+123407482+123694461+123417328+122969213+122486090+121796381+121063191
4237+120759461+120987065+121381872+121646966+121770679+121852069+122015259
4227+122363450+122818547+123084433+122907505+122382694+121898947+121755616
4217+121952189+122416544+123174120+124089809+124730074+124772725+124357843
4207+123921290+123869055+124324702+124989064+125385169+125353223+125140318
4197+125025079+125033833+125020683+124919219+124840041+124915299+125158200
4187+125479354+125672539+125537860+125244358+125225394+125525102+125785772
4177+125998528+126558542+127503303+128396146+128949039+129239526+129411144
4167+129495240+129429688+129164828+128799129+128476612+128181897+127903691
4157+127835227+128067899+128368363+128576760+128833603+129149401+129246591
4147+129062878+128862003+128738849+128536443+128214421+127872641+127594100
4137+127548099+127948245+128733539+129519412+129914574+129834519+129579505
4127+129541941+129796087+130153321+130519674+130866791+130990309+130703610
4117+130196699+129901527+130046239+130493318+130967136+131359648+131789443
4107+132373675+133006959+133481122+133803966+134142348+134391137+134170990
4097+133421599+132646356+132353395+132522717+132732916+132605460+132130625
4087+131732103+131986203+133092045+134519797+135320723+135010861+134079381
4077+133432611+133492751+133999242+134452686+134555989+134317008+133876994
4067+133403941+133120341+133143906+133317213+133483110+133779122+134353751
4057+135040698+135564781+135850135+136013326+136159456+136176283+135871824
4047+135475794+135584631+136292735+136884797+136757342+136180454+135841801
4037+136000979+136345614+136500890+136441152+136402655+136556410+136822241
4027+136971563+136995006+137299754+138208155+139343777+139987906+139966282
4017+139726331+139608506+139473669+139051815+138366707+137715000+137327556
4007+137199671+137266670+137600731+138329656+139374360+140322145+140706733
3997+140512101+140228762+140303087+140688618+140972703+140827889+140419363
3987+140342322+140931061+141769626+142192599+142022512+141516133+140987029
3977+140791921+141253681+142256407+143140403+143242175+142530609+141624224
3967+141218450+141594723+142594985+143824839+144847574+145409809+145542416
3957+145355082+144852268+144120842+143649413+144138471+145609723+146936981
3947+147103037+146675369+146838961+147504508+147630125+146960462+146200852
3937+145980928+146621968+148182141+150027155+150950105+150461878+149553440
3927+149520402+150479778+151407787+151627355+151748101+152598472+153866487
3917+154255051+152866775+150284791+148030336+147119052+147552114+149179640
3907+152358922+157130993+162202232+165643602+166554373+165038791+161485225
3897+157293232+154852740+155640647+158595208+160415594+159178292+157363973
3887+157938807+160009792+160889785+160978556+162134291+162891727+160895701
3878+158029334+157702561+160307690+164072491+167587607+169638303+169259641
3868+167957758+167878617+168283485+166869387+163579504+160663674+159938416
3858+162452627+169093931+178634957+183958905+179094925+169985272+163195485
3848+160154467+160419140+163206610+167459657+172205056+176805296+180142774
3838+180631188+178421950+175530850+173068194+170872058+169161275+168685423
3828+169438249+170904088+173692920+178738438+184036161+185301814+182794585
3818+180421503+178306225+174245337+169381618+166897217+168243728+172791014
3808+178051332+181404284+183601820+186783369+189558203+188816613+185904086
3798+183837544+182103840+179341587+176577318+175415182+175902438+177445029
3788+179916477+183024522+185886597+188383075+191649514+195943326+199382941
3778+200471611+200554970+202129067+206656774+213862851+221562139+227398616
3768+231672382+236195907+241471157+247500036+255116319+264407568+273562578
3758+281287009+289223047+300023325+314676505+331326102+345411130+354853063
3748+363453118+374363260+385322379+391554075+394497287+399724455+409577397
3738+423797823+440820090+457220730+469132300+475647745+478932718+481448198
3728+484444382+487831567+490551580+491732008+491418357+490366047+490091370
3718+492550443+499147529+510025529+523508976+535850034+543847276+548337540
3708+552089406+557271703+565234003+574574845+580591554+580848724+579079966
3698+579837515+583947679+590012917+597524079+607106785+617066343+621791826
3688+618648485+612378152+608004397+607240167+609712492+613903403+618898562
3678+624575301+628027478+625440623+620821270+620547899+623153793+622444998
3668+617997888+614939735+615579729+618499349+621609914+624651717+629258191
3658+636211447+643125731+647125322+649585329+653908576+660554304+665727193
3648+665638496+661471589+656779740+653819431+652907969+653271717+654678854
3638+657470430+661032956+664419804+668527057+674951863+682280888+685834753
3628+683861910+680836421+680464609+683292470+688842398+694990212+698149941
3618+698258050+699853258+704987324+710170741+711646790+710551587+709953403
3608+710186718+709538287+707478837+705278054+704164261+704358902+705799711
3598+708309815+710710018+711624988+711685165+712904604+716086508+720157102
3588+722759412+722217597+720147769+719651497+720998756+721287993+718558908
3578+714600529+712374809+712635526+714308157+716548510+719582287+724069713
3568+729384832+732216651+729384758+722439639+716442940+715129129+718203895
3558+722708269+726029043+727279914+727324934+727716532+729371244+732138107
3548+734920575+736385349+736254991+735615296+735038987+733587353+730654742
3538+727156350+723983704+721575960+721151288+723878283+728665399+732061953
3528+731710001+729287325+727914383+727948802+727698986+726850837+726477830
3518+726650671+725948110+723503111+720670845+719736014+720923871+721785459
3508+720563109+718673289+718449828+720195179+722291661+722993475+721930376
3498+720353983+719335009+718262728+716439804+715223128+716342446+719129617
3488+721483829+722962864+724492892+725524185+724567404+722292034+721386844
3478+723220593+726275872+727731090+726519865+724352977+723487656+724386351
3468+725449225+725512463+725900103+728290600+731743524+733307000+731379178
3458+727165085+722582391+718607587+715558206+714069913+714691392+716648780
3448+718510826+719992848+721830778+723743818+724434955+723948464+723756436
3438+724137954+723997889+723261732+722679376+722051028+720925513+719673746
3428+718804991+718253395+717587269+716710973+716627875+718842620+722993400
3418+726579519+728443730+730118228+732760108+735316950+736204819+735012781
3408+732123474+728528321+725833431+724691416+724105551+723075303+721687653
3398+720162403+718430192+717243157+718176569+721885057+726832022+730175343
3388+730523488+729258133+728333306+728029884+727920356+728329573+729532363
3378+730725894+730980712+730577169+730433223+731061196+732297359+732866202
3368+731148998+727599986+724776753+724529476+726495301+728917081+730097621
3358+729545130+728164946+727304552+727593863+728632622+729846685+731491468
3348+734005081+736600821+738159146+738940997+739560310+739400759+737534383
3338+734267067+730899481+728573715+727632090+727617083+727890342+728721394
3328+730987805+734430873+737272173+737605087+734919604+730832136+728353390
3318+729573127+733630208+737236858+737699682+735226685+731741732+728477327
3308+725925637+725166783+727196219+730984893+733724356+733418768+730518560
3298+727071236+725187016+725626097+726893020+726889586+725912870+725964312
3288+727320305+728723261+730428892+733550246+736910067+738177662+737428439
3278+736391173+735638216+734768042+734142980+734846735+736893119+738360582
3268+737423436+734981125+733450275+733432879+733417051+732284443+730458607
3258+728916110+728294109+728575955+729117994+728974943+727470673+725318046
3248+724564567+726250338+729118890+731593903+733609975+735386907+736112314
3238+734929833+732019620+728379820+725286016+723713804+723797051+724997825
3228+726718314+728448732+729441948+728861309+726955885+725175145+724356710
3218+724148705+724402552+725355152+726622971+727416991+727658147+727991657
3208+728785454+729554686+729553342+728960832+728620005+728484346+727446856
3198+725109294+722342057+719770209+717514923+716226497+716853650+719558470
3188+723182143+725572864+725082864+722309953+719537042+718098921+717287580
3178+715871708+713715124+711644550+710498279+710642076+711710251+712644410
3168+712520548+711339634+709810800+708652882+708400080+709213437+710405251
3158+710416152+707957340+703842546+700824225+700853343+703162907+705383923
3148+705981884+705341889+705009424+705975313+707409104+707438371+705317774
3138+701959670+698586484+696053385+694880012+694836783+694943175+694318934
3128+692877529+691502944+691388041+692541479+693714479+694362312+695218301
3118+696419821+696838670+695793788+693819228+691450234+688660897+685576725
3108+683011148+681998819+682630974+683732821+684141964+683673914+682549071
3098+681157090+680564954+681410117+682369884+681707790+679873219+678664606
3088+678414044+677906573+676707069+675916259+676614414+678395752+679591672
3078+678886723+676473902+673579294+671389785+670507665+670721643+670962201
3068+670184084+668789490+668242747+668836900+669109413+668096412+666790441
3058+666451704+666813138+666980304+667066239+667705113+668460235+667881089
3048+665174403+661104406+657306399+655244411+655496691+657277132+658834785
3038+658884211+657547629+655865143+654772031+654407088+654224541+653948519
3028+653948370+654257392+654040950+652687868+650543528+648166993+645700790
3018+643012918+640137423+637786048+637045635+638008912+639387602+640006542
3008+639830342+639200726+638105448+636443344+634357240+632372078+631324435
2998+631700502+632912176+633632207+633088600+631854379+631106648+631255000
2988+631588063+631045352+628983214+625824716+623296096+622941158+624222565
2978+625066235+624139393+621829380+619536839+618700075+619700869+621227799
2968+621486425+620110497+618096702+616342504+615235990+615103989+615981966
2958+616940688+616437846+613861518+610361297+607594545+606052944+605176834
2948+604592985+604383038+604377028+604072000+603312623+602424119+601543642
2938+600242263+598017663+595118836+592716991+591923755+592620529+593609041
2928+593862291+593199488+591928607+590452036+589178207+588406025+588185551
2918+588180474+587700777+586242610+584033054+581790946+580090466+579093443
2908+578600195+578295167+578145808+578289231+578435082+578019406+577044968
2898+575986275+574846872+573222360+571319400+569972776+569494236+569196750
2888+568228508+566506675+564767148+563815593+563697852+563683667+563232864
2878+562703591+562650582+562847874+562618739+561776189+560693604+559716030
2868+558858996+557881982+556531513+554868812+553315863+552278597+551830967
2858+551604221+550898077+549287788+547241740+545725075+545150745+545064587
2848+544717599+543628930+541800406+539718409+538010985+536923510+536212252
2838+535509841+534596288+533361694+531866121+530452713+529459908+528740176
2828+527873324+526959697+526498366+526345274+525780239+524769291+524053255
2818+523913004+523887395+523631943+523197005+522577169+521587910+520179131
2808+518628720+517321517+516302506+515265502+514139725+513270746+512755398
2798+512106034+510946996+509595818+508501922+507541258+506429182+505370937
2788+504643962+504005461+503155034+502292662+501635272+500906431+499732125
2778+498122134+496431584+495051923+494048330+493135710+492214879+491604711
2768+491361764+490832604+489386607+487286355+485459436+484596616+484638464
2758+484928895+484735934+483747123+482128322+480131700+477904710+475767426
2748+474187935+473207598+472369789+471418533+470563366+469971154+469503179
2738+468978125+468302854+467357234+466030246+464434591+462923974+461712524
2728+460605003+459385825+458249298+457425973+456748798+456040750+455438870
2718+454971044+454388688+453619866+452815729+451881048+450512996+448730987
2708+446932141+445420778+444228964+443394253+443055442+443097140+442921014
2698+441906595+440142579+438423284+437392290+436912145+436415836+435623421
2688+434703522+433956464+433494686+433058889+432189349+430788223+429297392
2678+428120734+427229393+426471808+425842938+425330875+424811048+424114311
2668+423100265+421852753+420793911+420297788+420224732+420100272+419634052
2658+418813863+417696262+416414071+415247529+414408302+413804817+413190170
2648+412500377+411930862+411668167+411565508+411158419+410119324+408638908
2638+407216839+406181589+405550965+405184827+404889282+404470433+403823458
2628+402996363+402202604+401722161+401618979+401559997+401110873+400226849
2618+399281603+398639257+398344794+398173671+397824108+397087726+395999392
2608+394882725+394125699+393809734+393634691+393272921+392674699+391968107
2598+391227694+390457789+389696732+389016010+388431153+387893332+387442305
2588+387290855+387530629+387782908+387477619+386546372+385520642+384894497
2578+384684177+384598055+384360185+383851818+383138694+382446026+382047075
2568+382068204+382331981+382466520+382278972+381951359+381754105+381666042
2558+381431569+380923351+380279064+379702158+379277598+378996126+378830976
2548+378741196+378653843+378497726+378287630+378154920+378191877+378272325
2538+378169031+377843173+377454674+377131243+376888781+376715082+376600963
2528+376527832+376449177+376264578+375946074+375727429+375917889+376433125
2518+376778059+376628737+376168937+375730751+375401981+375135441+374981266
2508+375020090+375193080+375311455+375199687+374824516+374308123+373799942
2498+373356045+372967024+372604582+372188944+371630890+370994703+370531357
2488+370450723+370675565+370886258+370824401+370506905+370147487+369950905
2478+369973004+370058566+369922533+369436042+368835394+368516965+368624925
2468+368917409+369018911+368768125+368333336+368002812+367883951+367832174
2458+367639847+367242725+366786583+366533893+366602059+366750261+366589926
2448+366056137+365476730+365173569+365188725+365335098+365334949+365019282
2438+364524018+364167885+364103751+364224478+364346176+364319298+364053840
2428+363609234+363205392+363005935+362914438+362707963+362361872+362098244
2418+362087455+362252382+362425446+362580442+362790426+362986934+362945012
2408+362599182+362156144+361789371+361520815+361453807+361713030+362141883
2398+362475917+362693815+362836156+362783819+362539005+362354331+362326968
2388+362183320+361600479+360508412+358994211+357060976+354610713+351648947
2378+348354604+344901008+341385407+337968843+334834573+331949298+329117181
2368+326340462+323957805+322349643+321547635+321293339+321611096+323116897
2358+326470372+331599100+337820007+344736866+352323323+359884470+365855075
2348+368844242+368558290+366120831+363353333+361166437+359156002+356623612
2338+353204622+348935019+344244514+339770862+336072043+333495229+332118293
2328+331680070+331688768+331741591+331772463+332018658+332758474+334022896
2318+335530302+336892530+337881938+338549930+339161889+339995218+341120062
2308+342370783+343534413+344515384+345320491+345965936+346436860+346721655
2298+346862839+346951686+347085217+347313456+347571671+347704418+347673695
2288+347689225+347973534+348447221+348797680+348823139+348591690+348296443
2278+348046888+347811258+347545017+347337608+347335966+347507313+347617886
2268+347520528+347328686+347212701+347158646+347038890+346828980+346652257
2258+346623625+346704446+346757604+346736027+346726545+346792471+346895018
2248+346996706+347114559+347236816+347304235+347312074+347335481+347425410
2238+347575180+347810623+348168922+348546445+348759378+348810559+348893768
2228+349109464+349379476+349633286+349902178+350247186+350669805+351048187
2218+351196576+351089699+350958407+351070436+351485999+352082765+352724253
2208+353316912+353748490+353903374+353820687+353761556+354015142+354651590
2198+355491564+356274870+356868164+357355364+357917450+358615045+359320555
2188+359864274+360220892+360541935+360994530+361587301+362189517+362682728
2178+363046252+363354565+363726377+364211039+364732546+365215230+365714264
2168+366364562+367292599+368591029+370241336+372067246+373923021+375913297
2158+378301181+381247119+384702917+388437798+392104102+395412557+398299400
2148+400839630+403099619+405255158+407669434+410546087+413627683+416517663
2138+419187728+421940891+424994154+428294545+431676204+435074476+438592541
2128+442378975+446428963+450485484+454136371+457057446+459169495+460506301
2118+461005671+460575997+459277492+457281280+454755273+451897510+448939291
2108+446042405+443291408+440788621+438659475+436965490+435643132+434453221
2098+432951004+430647562+427331007+423181907+418549675+413751733+409066006
2088+404667576+400528443+396561366+392845150+389551815+386724700+384279813
2078+382152608+380319493+378729400+377329580+376146501+375245902+374616771
2068+374185119+373894314+373646850+373260106+372648445+371939539+371308690
2058+370841051+370569882+370452179+370309427+369975207+369521268+369244686
2048+369403789+369981254+370739475+371506355+372331322+373375121+374774455
2038+376616268+378933112+381721291+384995327+388745625+392763397+396544866
2028+399496552+401305179+402010165+401724288+400555209+398791304+396748989
2018+394391754+391495466+388187683+384962327+382216107+380024246+378234882
2008+376599507+374911533+373133294+371383650+369823645+368537049+367435686
1998+366363703+365415658+364915055+364840880+364594984+363701142+362397635
1988+361168714+360167136+359368450+358797928+358418052+358129487+357923124
1978+357831478+357809864+357736957+357447123+356911841+356484332+356613458
1968+357150308+357344651+356763079+355786326+354999100+354581259+354446944
1958+354526831+354690078+354680110+354352199+353863804+353516518+353446075
1948+353592038+354001554+354843693+355836796+356114498+355261048+353949515
1938+352965072+352356472+351884503+351593586+351627183+351871773+352029457
1928+352050847+352391264+353442940+354759550+355566747+355931765+356322205
1918+356369279+355447514+354074684+353359842+353613988+354251855+354517163
1908+354090102+353283762+352658887+352416798+352352553+352312982+352431320
1898+352892240+353551907+353974078+354109140+354528511+355399843+355829853
1888+355067228+353682639+352653922+352221896+352114907+352084034+352012434
1878+351928329+351925006+352077315+352757738+354717553+358103991+361343085
1868+362017759+359727569+356536109+354287953+353278947+352993331+352951707
1858+352920014+352900042+353007965+353243483+353577591+354200563+355449119
1848+357643855+360766403+363588217+363853413+361209666+358183430+356802873
1838+356861183+357150943+357308291+358350372+361226390+364970267+367165526
1828+367108149+366384422+365705118+364301080+362256824+360835987+360632797
1818+361057170+361437942+361910173+363042183+364807170+366276985+366620985
1808+366128148+365834842+366628526+368812399+371825606+374309429+375212006
1798+375065297+375623314+378252017+382487948+385529900+384786798+381672612
1788+379605509+379965824+381890174+384217471+386603525+388825811+390428634
1778+391697050+393975182+398450103+404572681+409392163+410184317+407924663
1768+405151304+403343276+403572373+406365666+410317325+412968875+414038842
1758+415086037+416591353+418454109+421714817+427296439+433698996+437613735
1748+437834619+436376154+435575078+436483815+438965212+441835667+443735156
1738+445345594+449246932+456178798+462082096+462445322+459419087+456687799
1728+455187635+455114169+456636545+459341402+463258754+469757400+479766197
1718+490694705+496435915+494746448+490150426+487010519+486871388+489930363
1708+495691694+502491895+508262670+513378482+520394976+529570742+536796474
1698+539485130+539441752+537477271+534531109+533770873+537047037+543469416
1688+551851349+562769107+575627491+584083338+583547459+579846175+579173778
1678+583051373+590262808+598015609+604317486+610262371+617047901+622573340
1668+624514826+625352709+628894666+635332164+641485129+644851222+647003774
1658+651426470+660656515+675464336+691645547+698387513+696339710+696741162
1648+702071512+706936798+706372809+703298417+702464602+705042275+710814468
1638+719447524+728298216+731067319+725749139+718859792+715464581+715572093
1628+716925772+718114824+719215850+719399666+717290566+714548565+714285833
1618+716050372+715206777+709146392+701588007+696147084+692966300+690668383
1608+687992532+684683853+681503293+679192161+677643542+676407827+675638968
1598+675802550+676609785+677012731+676313232+674697194+672705685+670759571
1588+669072754+667610891+666225257+664948553+664219339+664972594+668238342
1578+673872115+678921515+679476470+677232533+677381482+681373383+686076879
1568+688142227+688632825+690361825+694819761+703454160+718298042+737586869
1558+750097893+750948282+749585047+751487260+756721969+764205991+772748333
1548+781681974+791569335+803038538+815436675+827629568+837258004+838768845
1538+832213606+825703089+823299452+823468709+823623556+824091904+827036834
1528+832850465+839821043+846558380+853266076+859392910+862804844+863347257
1518+863001352+862293715+861071887+860508868+862163954+867000197+875367608
1508+885267064+889859390+885042334+877873681+874359834+874792121+877633645
1498+880524222+880897900+879136796+879042275+883230983+890201636+895011150
1488+894082665+889368120+884915037+882915092+883591521+886014421+889067833
1478+892405928+896498025+901860927+907540167+909935965+906673353+901260503
1468+898570092+899673284+901743783+901724297+900969623+903298151+910125306
1458+918289863+920810046+915729363+908914229+904315408+902322481+901976800
1448+901718847+900745864+900038525+900556225+901472241+901702869+902072068
1438+904081794+906815582+907385320+905671103+904240672+904320634+904927628
1428+904824372+904186095+903943073+904742842+906872026+909991812+912317951
1418+911569026+908157465+904674602+902688245+902152553+902124405+901773051
1408+901314184+901375182+901566613+900987691+900040093+900027102+901316050
1398+903077155+904315781+904111509+901507257+896846766+892320217+889863421
1388+889138612+888019592+885726677+884194782+885179561+888170184+891787361
1378+895700869+900117666+904294204+907074805+908675463+910282542+912189384
1368+913989537+916029127+919009446+922307298+924095355+923539803+921842981
1358+920654900+920371039+920254568+919841319+919690802+920526857+922275119
1348+924329791+926222822+927799663+929314311+931512108+934971079+939026591
1338+941873790+942321532+940920891+939100730+937905332+937469759+937347913
1328+937401743+938174933+940120375+942763824+945039866+946264157+946508971
1318+946343821+946400787+946856891+947244233+946990982+946286705+946104457
1308+946865552+947438650+946405789+944084130+942270165+942213124+943666476
1298+945581606+947026521+947564454+947080650+945502615+942948311+939923644
1288+937008802+934476972+932316879+930396299+928525592+926467336+924017260
1278+921250770+918590672+916409151+914732563+913390382+912052755+910166294
1268+907434895+904291292+901385933+898841485+896376626+893841436+891315280
1258+888839893+886320830+883835812+881884994+880922837+880673021+880434330
1248+880071552+880030265+880332268+880405959+880103731+879975015+880292847
1238+880742531+881197067+881841392+882433603+882439501+882067988+882393286
1228+884181642+886906919+889180945+890263156+890866418+892184259+894565050
1218+897515804+900430272+902749617+904010418+904377153+904683935+905410163
1208+906027535+906001702+906187683+908345685+913017301+918426866+921992303
1198+922980741+923136185+924412739+926842359+929294451+931571090+934386856
1188+937753471+940848246+943136831+944566664+945175002+945405555+946118941
1178+947592750+949309506+951146018+953781030+957360802+960647008+962335392
1168+962579459+962399825+962363764+962612609+963373927+964874390+967233007
1158+970439400+974172675+977659868+980024906+980907623+980898141+981278315
1148+982895846+985525035+988264199+990203593+990780126+990099143+989228595
1138+989816252+992722955+996690517+999387572+1000412071+1001503690+1003280324
1128+1004311468+1004171777+1004644232+1007004342+1010518935+1013610201
1120+1014956190+1014439162+1013704945+1014393544+1016166669+1017725517
1111+1018708653+1019182452+1018596438+1016890060+1015548476+1016168461
1103+1018804219+1022595656+1026803552+1030413786+1032369084+1032910227
1094+1033277260+1033817134+1033584117+1032339145+1031507719+1032866102
1085+1037168743+1043138116+1047949647+1049595624+1048687820+1047336456
1077+1046828686+1047094255+1047194152+1046076849+1044331274+1044225704
1068+1046746633+1050211353+1052588337+1053810388+1055056033+1057034998
1060+1059149399+1060159040+1060144854+1060614472+1062394615+1064397547
1051+1064867538+1063735229+1063105164+1064647736+1067433488+1069250290
1043+1068870639+1066819775+1065437127+1067158288+1071242470+1073741823
1034+1072231281+1068398856+1064869778+1062673549+1061323379+1059576908
1025+1057260176+1056360287+1058260634+1061266711+1062888498+1062798158
1017+1061640912+1059239664+1056004975+1053987932+1055084778+1058453707
1008+1060873621+1060520101+1058958341+1058555022+1059307456+1059083921
1000+1056648478+1053344802+1050782212+1048313843+1044850467+1041502293
991+1039992722+1040433894+1041932639+1043315362+1043020600+1040338104
983+1036417354+1032514822+1028639989+1024729916+1021407873+1019143703
974+1017676688+1016281946+1014600878+1012952362+1011156540+1007874143
965+1002189750+994987275+988253821+983782745+982144383+981876425+980408141
955+976545477+971309126+966474451+963108209+961042413+959350370+957510573
945+955997865+955476582+955565055+955022942+953360539+951797436+951918088
935+953533230+954847339+954885416+954476423+954341212+953935877+952852321
925+951717100+951123396+950715149+949786590+948544828+948287620+949702970
915+951280856+950664156+947798367+945259817+945138642+946929835+948705722
905+949226632+948255143+945814250+942323324+938913405+936502078+934937332
895+933811966+933437466+934090452+934919861+934647050+933155024+931534133
885+930661719+930372258+930024636+929474086+929243831+929944002+931539658
875+932952394+932864742+931368460+929934669+929416746+929413535+929662530
865+930413545+931494040+932428199+933132103+933339959+932341592+930451398
855+929315580+929732637+930507096+930359565+929667159+929413685+929732263
845+930169553+930405482+930343812+930021948+929686048+929796024+930703753
835+932071916+932975613+933029444+932802997+932625378+932020027+930834783
825+930021500+930638723+932553853+934500490+935233139+934453379+932835922
815+931625592+932126120+934865359+939196744+943769284+947121490+948651593
805+948894092+947849958+944472442+939022336+934027662+931721308+931894372
795+932904387+933912759+935456973+937949307+940446047+941898428+943016925
785+945056739+947145680+947193015+944967220+942287636+940563265+939385412
776+937829476+936716654+938089073+941683628+944144381+943469595+941414102
766+939801573+937987982+935374771+933517951+934369236+937781245+941413803
756+942999305+942287188+940635238+939638364+940193543+941910000+943386497
746+943506029+942316828+940871764+940372207+941452926+944182309+947964264
736+951249050+952428396+951556803+950344980+949789950+948637482+945309691
726+940607539+936968635+935618838+935897398+937131620+939624925+943315569
716+946828744+948641588+948572676+947379444+945697928+943966912+942617414
706+941624795+939921702+936481322+931946486+928585694+927865514+928203056
696+926227898+921065760+915927065+914232036+915865395+917944705+918025712
686+915586835+910968229+904229249+896090898+889174151+886499867+888093581
676+890496920+890788397+888916570+884936017+878257438+872537881+874686774
666+881659144+884088540+879531081+872797626+869077342+868300120+867280624
656+864689289+860980427+856272601+851357740+848809634+850904697+857090961
646+863546527+865108585+859682595+850876923+844164672+841988005+844396196
636+850719015+857524294+858811151+851786668+840044354+829726722+825314255
626+827740738+832982465+833809635+826925589+817034421+810966868+811178084
616+816279747+824028293+831889055+836662582+836166759+832450506+829781896
606+828745974+826973148+823621391+819668985+815632137
##END=
