##TITLE=<SNM>
##JCAMP-DX=4.24
##DATA TYPE=INFRARED SPECTRUM
##DATE=3/5/2025
##SAMPLING PROCEDURE=Instrument type and / or accessory
##ORIGIN=Admin
##XUNITS=1/CM
##YUNITS=ABSORBANCE
##RESOLUTION=4
##FIRSTX=4497.3318
##LASTX=599.83466
##DELTAX=-1.4281778
##MAXY=1.709283
##MINY=0.17604229
##XFACTOR=1
##YFACTOR=1.5918938e-09
##NPOINTS=2730
##FIRSTY=0.19966
##XYDATA=(X++(Y..Y))
4497+125422938+126643371+127516008+127411974+126286487+124677746+123387474
4487+122886436+123017813+123515837+124480096+125867757+126945748+126983041
4477+126220101+125502916+125292311+125545245+126018229+126174542+125455392
4467+124206176+123613038+124187688+125043982+125150983+124599276+124155675
4457+124214179+124593398+124955814+125127498+125177820+125316405+125686516
4447+126195304+126475703+126089370+124937486+123453373+122305037+121880981
4437+121949576+121832717+121136360+120241463+119814580+120026121+120519399
4427+120878670+120866211+120458696+119832440+119202000+118691096+118385826
4417+118329840+118390497+118346680+118162566+117980623+117828559+117542769
4407+117082637+116747460+116851157+117278452+117623345+117672695+117464570
4397+117012310+116390520+116010674+116298252+117025396+117404606+116981373
4387+116086448+115319184+114877848+114463611+113770988+113036365+112862584
4377+113393895+113972439+113807879+112867995+111991669+112032295+112859186
4367+113521958+113549497+113451013+113645696+113737683+113359298+113015837
4357+113472168+114678326+115766183+115996277+115403888+114521085+113781603
4347+113352502+113288896+113518728+113720563+113587838+113329016+113499895
4337+114116219+114391740+113687950+112315145+111098766+110586701+110877836
4327+111763803+112765383+113287314+113072197+112529467+112331339+112589066
4317+112808601+112728165+112608499+112628259+112661433+112738687+113122089
4307+113808103+114371849+114425298+114067899+113790065+113983279+114630174
4297+115346882+115642969+115390858+115091692+115321047+115961324+116395574
4287+116273427+115750766+115238570+115066652+115136501+115053856+114833207
4277+114993873+115695997+116410916+116735881+116943406+117405055+117934344
4267+118057239+117716409+117336816+117200281+117146364+117055444+117227895
4257+117972207+119103844+120100155+120567635+120480300+120169639+120063012
4247+120213746+120171230+119638291+119083017+119214001+119981939+120651104
4237+120761962+120509056+120282706+120303150+120584203+120918032+121030042
4227+120947013+121026541+121415260+121684435+121364507+120719109+120527084
4217+121100143+121997989+122704812+123091004+123179106+122895975+122224442
4207+121490997+121308774+121944568+122795030+122956810+122367267+121870001
4197+122075898+122629730+122795338+122443210+122108838+122202837+122631387
4187+123221604+123975660+124734275+125076594+124811529+124246174+123817250
4177+123695159+123814002+124104978+124548448+125015207+125244515+125120290
4167+124869967+124816256+124946790+124893041+124457846+124002947+124050751
4157+124606568+125173084+125421937+125544646+125851357+126290952+126575899
4147+126617254+126535967+126348651+125999283+125615740+125393949+125371960
4137+125611490+126313380+127380325+128176149+128201123+127786652+127629693
4127+127868202+128113517+128137733+128022120+127868698+127806965+128043181
4117+128581456+129154543+129550189+129740295+129695149+129373975+128930880
4107+128703172+128920939+129541381+130402729+131330389+132032756+132248266
4097+132109943+131959611+131758957+131208279+130429538+129945228+129996084
4087+130318006+130547801+130588136+130573121+130609497+130697730+130946864
4077+131543577+132253124+132378416+131612500+130542372+129969556+130101064
4067+130588791+130959688+130898151+130436147+129923005+129700587+129887744
4057+130396383+130921038+131102925+130983314+130999171+131324913+131632925
4047+131665331+131605180+131706378+131874738+131805058+131413848+130962421
4037+130703609+130638271+130787639+131370574+132428664+133556005+134252812
4027+134364924+134106289+133827211+133730637+133713966+133611832+133583918
4017+133982410+134772440+135382633+135290842+134604547+133894991+133582037
4007+133655602+133896667+134187437+134619833+135329080+136177726+136738935
3997+136742960+136349326+135876398+135549720+135531205+135814758+136140677
3987+136330885+136500622+136707052+136765266+136597458+136390447+136341556
3977+136562880+137126578+137871864+138315165+138087907+137407734+136882424
3967+136902989+137399038+138075907+138666508+139020406+139119947+138988524
3957+138634279+138204176+138036311+138428448+139460665+140877484+142014195
3947+142373644+142373868+142720783+143173829+142873680+141768749+140739564
3937+140563472+141510292+143454246+145725421+147093311+146733413+145354355
3927+144546213+144921856+145524148+145435175+145261844+146063602+147551693
3917+148137913+146688950+143874259+141439395+140503751+141022649+142793207
3907+146271259+151709553+157785214+162077934+163254156+161520151+157466166
3897+152371922+148618611+148204533+150816248+153323507+152975151+151516537
3887+152161963+154586428+156072712+156413130+157230802+157487078+155419647
3878+153051375+153493197+156746697+160769259+164137670+165731452+164596117
3868+162365287+161646876+162077653+161131909+158213782+155481886+155044819
3858+158039262+165171610+175088956+180727550+175753319+165733754+157790775
3848+154160911+154783460+158498533+163477351+168328414+172500194+175119154
3838+174915148+172384159+169693384+167790401+166062088+164349539+163527955
3828+163907791+164986400+167384711+172533443+178877137+181461575+179514260
3818+177151407+175118742+171073743+165806056+162756263+163773503+168203992
3808+173291562+176439923+178721394+182372871+185636200+184844794+181224076
3798+178357340+176326191+173732336+171118955+169991596+170753946+172916986
3788+176009239+179479120+182539360+185186702+188523530+192920059+196910766
3778+199194634+200600996+202894730+207330237+214195356+222201595+229227643
3768+234727605+239601396+244379147+249979792+258248784+269704123+282010645
3758+292552029+302233599+314320632+330805711+350128189+366788536+377393853
3748+385885723+396872056+409646834+418963040+423707130+428774536+437769896
3738+451232234+467043869+480686455+488135923+489745992+489513211+490962876
3728+494875403+499480394+502328952+502877261+502431769+502225573+502989439
3718+505321140+509938374+518052560+529943094+541670267+547150515+546743215
3708+546149038+548937201+555537920+564243137+571521567+575084343+576667902
3698+579070557+583106794+588575960+596197326+607125136+619058767+624297885
3688+619206478+610805070+605633273+604133136+604862330+607545317+612473849
3678+618341517+621047830+617906359+613775429+614145287+616919484+616103685
3668+611030662+606247819+604389131+605015246+606957656+610286864+615944629
3658+622912060+627526411+628808858+631153738+638343241+648207120+652832030
3648+648365352+641527585+639016384+641300009+645559928+649709841+653966316
3638+658923791+663538816+665941883+666249136+667510353+672165517+677447544
3628+677763185+674197227+672434879+675662730+683737901+692996483+697541715
3618+695883906+693045233+692840647+694379088+695843693+697294893+698859470
3608+699618506+699490527+699984470+702415918+706285236+709715952+711871073
3598+713699170+715084996+714347976+711928585+711349647+715168044+721670850
3588+725349136+721987315+713818388+706710284+704785959+708224388+713270378
3578+715762407+715412768+714440309+713955353+714172295+715972535+719273400
3568+720484369+715799775+708231877+704782739+707831166+713123078+714941740
3558+713058378+711953821+713910421+716528932+716474940+714222843+713496905
3548+716551697+721679312+725233588+725784144+724887094+724232298+724285991
3538+724969917+725867866+726109745+725338877+724256561+723297132+722044003
3528+720918328+721255012+722664801+723091048+722305427+722065045+722562208
3518+722276671+720737256+718634105+716457642+714510626+712658191+710055182
3508+707232683+705988915+706051669+705837198+705711615+706943552+708270742
3498+706924531+702751104+698755978+698196586+702456655+710030994+716544359
3488+717721254+713942173+710025078+709670197+712204087+714500742+714932754
3478+714694844+715370982+716868462+717846537+717194512+714895836+711989691
3468+710074951+710535420+713468973+717182680+719510187+719749445+718511818
3458+716421772+714022525+712168816+711441232+711627097+712462591+713967259
3448+715627689+716380809+715845156+714828289+714200826+713948463+714001407
3438+715128130+717799060+720678396+721267144+718465763+713929667+710796845
3428+711387240+715248096+719203457+720554761+719936434+719394939+718927430
3418+716786987+712550881+708645093+708022048+710577131+713049317+712989783
3408+711203247+709435656+708279504+707949784+708826765+710710652+712543093
3398+713164565+712416312+711730214+713094023+716769538+720657353+722475192
3388+721651679+718924735+715643115+713632073+714451168+718013082+721990385
3378+723587387+722070512+718824388+715598409+713812621+714781861+718420383
3368+722443141+724999272+726869380+729267953+731355004+731840859+731369981
3358+730796061+728928499+724808465+720228860+717506858+717068480+718080479
3348+719679428+720794094+720092494+717333574+713981263+711714039+710692380
3338+710036910+709692438+710558036+712560990+713944719+713308494+711414722
3328+710108275+710475288+712427021+714866930+716171880+715681157+714484866
3318+713887207+713691981+712878129+711239716+709674465+709418807+710967583
3308+713799367+717201327+720598344+722705988+721744387+717927264+714310234
3298+713747471+716162219+719182864+720740701+720505561+718964648+716509612
3288+713877697+712416387+712968890+714844689+716596404+717484243+717555608
3278+717076718+716680425+717105249+718148924+718923536+719362439+720121175
3268+721324281+722712503+724277828+725704691+726094768+725279118+724433065
3258+724326204+723744496+720759122+715774913+711471710+709424873+709261398
3248+710414930+712371081+713796147+713664873+712589372+711619983+710797668
3238+709795180+708940515+708843314+709597109+710631273+711147682+710774005
3228+709936189+709586924+710388645+711955543+713329163+714282676+715158009
3218+715811233+715699728+714428328+711842841+708263179+705192811+704905476
3208+708274037+713281835+715896901+713306173+707035511+701700464+700343395
3198+701881162+703146573+702933000+702828535+704080616+705622652+705893886
3188+704966807+703834768+703044279+702665735+702340583+701190796+698961089
3178+697146995+697466530+699242208+699773069+697655990+694432856+692413726
3168+692260211+692977911+693342303+692991540+692302522+691513007+690609742
3158+690036046+690314319+690863902+690522800+689154647+687416262+685605987
3148+684073312+683577422+684029654+683911036+682045271+679392238+678044978
3138+678842656+680623575+681412042+680070473+677154743+674408328+673165384
3128+673069830+672660433+671117798+669005286+667585837+667832884+669716546
3118+672183564+673979760+674303489+672848919+669953408+666811300+664593799
3108+663141775+661416869+659333788+658112111+658600512+660225596+661711692
3098+662107685+661254668+659922460+659160728+659102917+659054017+658872046
3088+659140584+659731204+659559042+658276783+656886914+656039363+654942445
3078+652572553+649135696+645979809+644622815+645629871+647881294+649455681
3068+649559846+648776322+647632526+646226631+644955455+644388649+644415982
3058+644333833+643820420+643321535+643154690+642590430+640588225+637419233
3048+634707265+633884651+634869766+636028764+635705859+634103166+633005275
3038+633422310+634336134+633963206+631775959+628989331+627161421+626812231
3028+627454896+628377669+628851318+628100256+626053794+623725912+621991197
3018+620542917+619006984+618252441+619134588+620596610+620654758+618922139
3008+616713550+615168219+614462351+614290864+614214556+613812759+612878866
2998+611369967+609370120+607281983+605672289+604730457+604089403+603254657
2988+602081393+600761954+599491227+598453243+598030666+598477506+599393651
2978+599998274+599814057+598814115+597285258+595746817+594583887+593762546
2968+593219404+593102995+593124300+592252486+589923594+587204175+585859462
2958+586493140+588075427+588972926+588195730+586068391+583860738+582504455
2948+581827643+581158244+580114644+578670857+577168548+576242143+576009437
2938+575682413+574659931+573489962+573107748+573522237+573759511+573049150
2928+571737760+570803081+570651775+570675402+569908128+567970323+565420333
2918+563215974+561823522+560963877+560245129+559722505+559619388+559697606
2908+559208193+557627928+555346588+553359584+552283783+551904190+551599670
2898+550963745+549993981+548825847+547471324+545957819+544541215+543527307
2888+542947808+542537063+542019157+541432806+541037562+540773404+540154328
2878+538955940+537565622+536447286+535675332+534963922+533969784+532788507
2868+531959004+531551441+530754588+529085584+527416318+526861119+527145046
2858+527012050+526024202+525035193+524770324+524732732+523902555+522051505
2848+519865531+518036460+516740759+515892047+515459585+515432701+515635491
2838+515670911+515052322+513530692+511430687+509526618+508419365+508123494
2828+508266487+508409069+508156443+507349181+506235301+505153172+504117173
2818+502958699+501724441+500776769+500456448+500556981+500346703+499438383
2808+498285788+497346877+496281336+494616525+492643899+490982309+489727458
2798+488566026+487422791+486621519+486448010+486697041+486773124+486277197
2788+485307209+484119230+482830606+481572384+480522456+479663149+478799385
2778+477837186+476843159+475884254+474954442+473973858+472782884+471248935
2768+469453338+467731615+466465082+465745734+465258194+464641552+463909961
2758+463227645+462367775+460911558+459067622+457697709+457233983+457050065
2748+456270585+454866038+453459993+452324659+451188126+449898341+448661275
2738+447623291+446732943+446024754+445601278+445315067+444787538+443757193
2728+442243988+440516910+439005802+437959506+437120043+436074758+434925195
2718+434122650+433682700+433124655+432175597+430986870+429719550+428438938
2708+427315660+426495330+425869440+425266202+424736277+424404386+424117613
2698+423477831+422308798+420925781+419765510+418905416+418190562+417616117
2688+417188673+416616550+415594104+414257778+412986901+411911849+410894422
2678+409831052+408780412+407885946+407218831+406689805+406202190+405802902
2668+405510251+405130433+404455717+403537849+402589278+401726114+400899606
2658+399977021+398877668+397698451+396650021+395838827+395213573+394719593
2648+394354415+394035067+393553106+392775161+391865493+391194709+390931338
2638+390774940+390249658+389268025+388206153+387394547+386755215+386006438
2628+385038921+384026398+383253096+382823105+382535022+382137456+381651002
2618+381274517+381073450+380934425+380730288+380404837+379961704+379417326
2608+378781102+378115073+377510150+376918707+376184382+375331627+374597303
2598+374089581+373657831+373150446+372600938+372149268+371876611+371682883
2588+371362300+370893368+370507710+370322930+370120778+369661469+368978367
2578+368213789+367451345+366838784+366582901+366680402+366868963+366921083
2568+366810365+366551188+366063685+365294651+364390001+363649049+363305513
2558+363397622+363821697+364396328+364859082+364935165+364501879+363674622
2548+362749715+362073053+361867717+362053882+362248958+362110158+361741948
2538+361580832+361795528+362075187+362139925+362104355+362114539+361979858
2528+361456560+360695801+360151386+360066429+360189840+360091029+359685750
2518+359270961+359068284+358972019+358783758+358503500+358305353+358290376
2508+358318159+358145885+357723907+357242995+356877105+356606620+356332840
2498+356043146+355761878+355423846+354966147+354497965+354190374+354060561
2488+354028622+354037346+353962349+353628024+353054328+352495123+352177797
2478+352141291+352269457+352360068+352230516+351845981+351363870+351060585
2468+351123189+351444521+351744249+351910906+352022785+352047047+351793973
2458+351213463+350521074+349964527+349596429+349331822+349118362+348953652
2448+348797666+348574396+348253401+347897247+347645557+347603435+347674313
2438+347568126+347079463+346350605+345786607+345673006+345913088+346193122
2428+346325818+346299496+346103334+345746656+345392861+345252264+345347967
2418+345527018+345681955+345834796+345990145+346027026+345804018+345319623
2408+344755139+344401755+344488847+344989979+345636762+346167548+346505505
2398+346704550+346792166+346689610+346311964+345746843+345242117+344978596
2388+344915168+344816020+344356674+343265971+341426416+338847520+335625434
2378+331955573+328087602+324245655+320614846+317292377+314212386+311274883
2368+308570928+306347717+304755452+303739410+303287796+303782113+305834623
2358+309625592+314682253+320536591+327303629+335092664+342926255+348940585
2348+351679436+351107388+348779207+346528607+344630380+342222783+338913606
2338+334937614+330664028+326532724+322973130+320177404+318087583+316553185
2328+315438256+314637022+314096089+313885362+314181795+315120444+316643159
2318+318417040+319950052+321014995+321924588+323133909+324667708+326199185
2308+327499529+328513138+329195716+329585531+329895780+330309297+330780399
2298+331188636+331564036+332022520+332569968+333067581+333331027+333271006
2288+333032347+332938853+333183241+333614991+333895549+333813699+333435342
2278+333023773+332839967+332967759+333288829+333610910+333814823+333878737
2268+333806398+333615815+333367758+333088998+332716294+332259420+331924645
2258+331892295+332059738+332166974+332102348+331964671+331893718+331945875
2248+332097480+332286940+332450564+332565625+332670427+332814319+332990037
2238+333154897+333328106+333616676+334076771+334596025+335034178+335423506
2228+335856305+336258626+336508219+336688505+336996508+337471954+337984393
2218+338426815+338809516+339205584+339703495+340432016+341514032+342887427
2208+344290775+345565846+346836760+348270474+349830371+351376188+352842403
2198+354211529+355454811+356629348+357930216+359480939+361120475+362549959
2188+363653205+364573919+365542409+366661681+367806825+368782879+369576475
2178+370305819+370986151+371548240+372009907+372449782+372869327+373198260
2168+373441749+373753833+374283983+375002357+375796140+376632083+377498056
2158+378350250+379241496+380348711+381786207+383457308+385153607+386798873
2148+388430734+389950117+391358333+393283632+396533200+401045782+406000599
2138+410837771+415499749+420024088+424520570+429210705+434196712+439418644
2128+444741184+449973750+455046998+460042627+464790836+468738484+471409190
2118+472734770+472937821+472286432+470966805+469269907+467900481+467842183
2108+469898568+474502922+481762181+491322924+502072994+512069158+519001805
2098+521109973+518028485+510922778+501598559+491313227+480566302+469663316
2088+458818404+447980606+437150671+426564562+416399158+406861704+398486169
2078+391733396+386472074+382207287+378550493+375355216+372677845+370617866
2068+369111924+367944239+366846385+365585955+364188934+362952018+362043098
2058+361326035+360661429+360086648+359693875+359530513+359600381+359947773
2048+360723621+362054481+363995693+366761128+370739929+376268179+383715287
2038+393577818+406040063+420644025+436605432+453085829+468961380+482629239
2028+492346530+497063174+496995740+493167946+486711157+478821177+470569277
2018+462310376+453814275+445085095+436585287+428705867+421391305+414282677
2008+407137169+400107770+393602006+387928553+383114483+378942030+375087913
1998+371349756+367882609+365119457+363222802+361662494+359695298+357251419
1988+354868759+352911859+351378847+350224080+349394539+348722257+348090563
1978+347553823+347129636+346650483+345986064+345325277+345046741+345232270
1968+345417124+344992337+343877110+342622970+341830385+341641300+341793279
1958+341982402+342061780+341977646+341684546+341211983+340775215+340658394
1948+340972051+341696602+342773377+343730147+343612540+342117532+340286402
1938+339231157+338932552+338790645+338620505+338601522+338710667+338717594
1928+338688763+339145263+340355858+341693495+342422951+342891583+343742541
1918+344357910+343611230+341886960+340682806+340695462+341383133+341840307
1908+341618347+340922926+340248996+339871949+339732850+339717723+339883931
1898+340369337+341057532+341517889+341659646+342079153+343030120+343589513
1888+342856761+341382084+340269028+339798450+339641041+339555934+339486890
1878+339471463+339587985+339899545+340732867+342817933+346368016+349835351
1868+350646245+348244564+344794603+342362257+341334233+341113846+341109053
1858+341046861+340915288+340824602+340882750+341251634+342148197+343719589
1848+346176198+349606464+352798221+353205035+350287058+346816840+345111929
1838+345035396+345337670+345587488+346709380+349571493+353186950+355180881
1828+354912155+353999342+353161863+351653339+349565277+348096179+347755152
1818+347989955+348330832+349072570+350677173+352825292+354399267+354626131
1808+353955235+353523259+354273422+356541133+359716340+362300554+363131405
1798+362795994+363199513+365768899+369967039+372892953+371955353+368670813
1788+366555905+367002933+369029214+371313624+373481289+375382324+376638823
1778+377656401+379932724+384723018+391384431+396660243+397460503+394737191
1768+391323624+388982600+388885137+391456957+395134157+397466719+398308354
1758+399131829+400127165+401156949+403616104+408772400+415164900+419186834
1748+419264266+417352484+415989723+416404100+418462994+420888975+422329429
1738+423638872+427500889+434450273+439940070+439305904+435166175+431544203
1728+429465465+429191010+430870910+433885114+437985716+444435765+454264448
1718+465047280+470749975+468992270+464107808+460455245+459798052+462631671
1708+468603354+475892642+482098902+487502244+494888733+504582884+512077620
1698+514572720+514229671+512058187+508938095+508050593+511248453+517577788
1688+525990466+537388930+551105053+559978088+559005404+554597175+553197009
1678+556297368+562987163+570914772+577979442+584778569+592226988+597869138
1668+598974107+598420406+600920486+607212340+614008472+618165012+620795842
1658+625464447+635070084+650746777+668067798+674935595+672039635+672103661
1648+677876711+683147356+682145842+678117018+676434497+678394767+683691847
1638+691883539+700142328+702141388+696365044+689655554+686852227+687715803
1628+690043010+692589631+695315078+696937092+695601889+692983078+692856822
1618+695687857+697098020+693269289+686888471+681891382+678780276+676148061
1608+673078817+670053754+667970972+667042021+666923852+667409558+668598061
1598+670455738+672470299+673912064+674379872+673872450+672458243+670257816
1588+667662295+665281919+663629652+662797603+662598333+663362986+666132166
1578+671093685+675520224+675757161+673701337+674270390+678412515+682848564
1568+684800822+685974123+689166854+695412654+705708320+721879031+742014987
1558+754969303+756828029+757661875+762377321+769892426+778368382+786741446
1548+795071152+804970975+817913534+832871553+846697458+854726200+851899658
1538+842199928+835537841+834832048+836574177+836340236+834595710+835076848
1528+839029513+844883589+851367973+858613042+865440775+868902792+868780355
1518+867561748+865999268+864102127+863558910+866401851+873348951+883723322
1508+893946725+895564245+885725228+875218910+871356556+873560427+878583277
1498+882553091+882839677+880557476+879466024+881778030+886357409+889453388
1488+888146866+883672326+879338345+877316145+877873890+879881562+882228689
1478+885019735+889007222+894162170+898576128+898937524+894731372+890261250
1468+889553884+892961236+897377590+899113055+898879488+900825530+907007078
1458+914106046+914564418+907344661+899686975+895457833+894437972+895310834
1448+896040440+894873429+892339913+890481562+890414390+892092642+895323190
1438+899231448+901039402+898839125+895499769+894676331+896203765+897200187
1428+896361548+895524930+896383564+898802281+902449490+907076422+910274919
1418+908494074+902545568+896483311+892179284+889331775+887547410+887038415
1408+888109349+890100621+891154106+890271584+888919681+888784439+889659248
1398+890717151+891818712+892223766+890403082+886707947+883441230+881625264
1388+879956971+877078384+874035124+873065885+874742490+877846856+881308050
1378+885285428+890139411+894949962+898139622+899759089+901339017+903275698
1368+904785759+906288180+909267413+913494233+916498852+916613277+914986246
1358+913659206+913437770+913792950+913861695+913588963+913840952+915336409
1348+917823796+920363827+922260145+923761369+925725458+928301808+930232873
1338+930382194+929744696+930435363+932980486+935856901+937554100+938164339
1328+938686738+939638080+940833248+942096261+943671696+945650762+947304377
1318+947705537+947057780+946521602+946664783+947052089+947396411+948173794
1308+949688048+951252400+951933780+951598594+950642760+949309878+947883465
1298+946859185+946279948+945565992+944466303+943438204+942842043+942412202
1288+941532526+939602659+936416668+932712247+930026414+929367050+929953252
1278+929583843+926590906+921560493+916961194+914809892+914673076+914416220
1268+912908481+910802335+908709593+906362841+903705614+901133383+898434520
1258+894829621+890114250+885057926+880879482+878513634+878011454+878573317
1248+879178689+879013642+877630438+875311842+873099584+871992032+872175575
1238+873136352+874291906+875354901+876294860+877226282+878213868+879034610
1228+879408287+879602764+880425603+882402422+885261689+888211342+890469131
1218+891820509+892826892+894188305+896070993+898306391+900660932+902615735
1208+903717446+904436943+905774093+907859571+909872710+911432120+913196864
1198+915845254+918993278+921582284+923395854+925571644+929054105+933266023
1188+937101194+940366713+943139936+944795573+945131808+945377431+946821293
1178+949499862+952831504+956344594+959414512+961237293+961404287+960192345
1168+958528920+957625879+958031607+959348014+961292259+964380524+969021235
1158+974360775+978673338+980802849+981135789+981318134+982706805+984950815
1148+986843913+988392689+990811630+994574986+998333699+1000181267+999635429
1138+997800966+996344523+996865425+1000255403+1005475576+1009251812+1008828111
1128+1005355684+1002774991+1003536723+1006882668+1010914263+1014497520
1120+1016717941+1016925148+1016133761+1016389719+1018212874+1019903033
1111+1019917711+1019043576+1019468624+1022138581+1025760853+1028510787
1103+1029959666+1030612291+1030683132+1030693691+1032032189+1035215634
1094+1038822030+1041860572+1045066557+1048279058+1049409899+1047804435
1085+1046025462+1046401910+1047929344+1047963042+1045512274+1042425581
1077+1042105671+1046212825+1052146204+1055467288+1055861633+1057236226
1068+1060768636+1062649902+1060631821+1058227407+1059276099+1062246645
1060+1062706365+1059872185+1057097763+1056408595+1056503400+1055956813
1051+1055818425+1058148328+1063189001+1068945351+1072926248+1073741823
1043+1071181124+1066047593+1060999058+1059377718+1061950250+1066240198
1034+1069455918+1070744393+1070439086+1068968191+1067159039+1065899620
1025+1065090486+1063824401+1061618733+1059409994+1058932301+1060693152
1017+1063122802+1064820150+1066451973+1068480763+1069071158+1066531951
1008+1062230021+1058859063+1057379332+1057151905+1057605260+1058722323
1000+1060669937+1063198810+1064675547+1063136880+1059151490+1055185570
991+1052455780+1050571144+1049114926+1047996740+1047015370+1045746141
983+1043550506+1040294648+1036864157+1034089360+1031814872+1029328983
974+1025998838+1021803395+1017803477+1014988767+1012606594+1009095526
965+1004058897+997931116+991289997+985606735+982598896+982011646+981639242
955+980030633+977689422+975105733+971438155+966537368+962488625+961093064
945+961113208+959979971+957395607+955304813+955212928+956883692+958678016
935+958743316+956988606+955588103+956244247+957745546+957701663+955962230
925+954316702+953521571+952809937+951867881+951246484+951007825+950882018
915+951374388+952827910+953833992+952583934+949776862+947991749+948185626
905+948997681+949445420+950054387+951022652+951393858+950402603+948259763
895+945503164+942650861+940367012+939191015+939147806+939792343+940507123
885+940638022+939619059+937520626+935655460+935733491+937532233+938724630
875+937977950+936323586+934870813+933810064+933681711+934981194+936880058
865+938140151+938392739+937537400+935552568+933592897+933403363+934983965
855+936255665+935609855+933839419+933070648+934158131+935803883+936559849
845+936714636+937128377+937381115+936735305+935774378+935464728+935726227
835+936041493+936328603+936479572+936179881+935530252+934847074+934117767
825+933518686+933813134+935391565+937364640+938325567+938212640+938867811
815+941553943+944667445+945898483+945764588+946348018+947785515+948654408
805+948344682+946686499+943021318+937981095+934732425+936036551+940468931
795+943614783+943363394+941854682+941607111+942571034+943739542+945031162
785+946331693+946472627+944959197+943494892+943984267+945995084+947660756
776+948140695+947664051+946267217+944026427+941756058+940446316+940402882
766+941248411+942464172+943806864+944896069+944714248+942758097+940371505
756+939581167+940818271+942896110+944943247+946858211+948224791+948365725
746+947417005+946495992+947006334+949853020+954285026+957567094+957564174
736+955300319+953288903+952474227+952484411+953007709+952711388+949970815
726+946470830+946011634+949079756+952268742+953050319+951931609+949950820
716+947462535+945355265+945160414+947702542+951848187+954381328+952563565
706+947366083+942397150+939926163+939368942+939029188+937848398+935474612
696+931826280+927532288+924174960+922662578+921627964+919141326+915341277
686+911673624+909047101+907644801+906664553+904462928+901044868+899131551
676+900546208+902721848+900539992+892001132+881386006+877613214+884341649
666+892186998+893544966+889511125+884026907+880160210+878192002+875644557
656+870103427+862282566+855435363+852116076+852851898+856522771+860790628
646+863252255+862895052+860469521+857819558+856760457+857859022+859831424
636+859880249+855664212+848411955+842329854+839949403+840143431+840337159
626+838599073+834497536+829264633+824920467+823376335+825971481+832096566
616+838358467+841380609+841256150+840806090+842177687+844342918+844055658
606+838926471+829836381+820274365+813981537+814547295
##END=
