##TITLE=<SNM>
##JCAMP-DX=4.24
##DATA TYPE=INFRARED SPECTRUM
##DATE=2/5/2025
##SAMPLING PROCEDURE=Instrument type and / or accessory
##ORIGIN=Admin
##XUNITS=1/CM
##YUNITS=ABSORBANCE
##RESOLUTION=4
##FIRSTX=4497.3318
##LASTX=599.83466
##DELTAX=-1.4281778
##MAXY=1.8476626
##MINY=0.38361695
##XFACTOR=1
##YFACTOR=1.7207699e-09
##NPOINTS=2730
##FIRSTY=0.39733776
##XYDATA=(X++(Y..Y))
4497+230906976+231861314+233235643+234203751+234355727+233763185+232631983
4487+231159905+229849726+229477814+230296215+231636442+232651381+233174524
4477+233613201+234302522+235296972+236502404+237494308+237455946+236031600
4467+234055845+232704776+232247861+232212340+232270012+232420378+232735171
4457+233293074+234047359+234677188+234849410+234566674+234082291+233584486
4447+233146882+232950067+233160755+233411571+232891996+231420836+230042246
4437+230034764+231517840+233309094+234128568+233826383+233261432+233120298
4427+233311726+233480935+233535889+233532217+233353050+232716882+231756585
4417+231357759+232200840+233616250+234283471+233924773+233318914+232930860
4407+232555363+232074306+231737569+231725411+231863168+231742020+231049876
4397+229955962+229146291+229206440+229891552+230327614+230111021+229708731
4387+229516748+229291512+228856541+228544449+228558218+228534265+228027662
4377+227101987+226348238+226360726+227064473+227741064+227888502+227696970
4367+227544162+227414615+226942269+225821389+224220699+222945609+222933329
4357+224277436+226034086+227281500+227950037+228350059+228420565+227846174
4347+226636586+225309919+224539198+224536895+224751999+224538402+224100850
4337+224131851+224557314+224506777+223727466+223165493+223684358+224916219
4327+225885453+226242990+226263357+226010566+225344713+224626729+224541069
4317+225107094+225557531+225316310+224586532+223898302+223562881+223639761
4307+224034535+224603833+225297969+226050955+226581684+226528566+225801212
4297+224716547+223769032+223305224+223327981+223596602+224040285+224893687
4287+226195154+227366260+227609975+226772905+225581622+224899437+224968922
4277+225517472+226230814+226752693+226586429+225593555+224434729+224039471
4267+224706986+225950105+227094903+227830726+228255548+228533365+228532828
4257+227991171+227127463+226674168+226933904+227256075+226969581+226384176
4247+226283794+226887055+227800781+228558962+228893309+228795491+228472782
4237+228083967+227526480+226599817+225393657+224444220+224374146+225281412
4227+226550388+227339779+227228763+226462199+225719518+225602215+226205615
4217+227138911+227959234+228514764+228859035+228950185+228577373+227624420
4207+226405859+225660130+225936579+226880266+227451522+227101727+226361609
4197+226002600+226093317+226201112+226139075+226124007+226298463+226374079
4187+225953552+225152730+224556119+224473645+224614260+224620010+224568589
4177+224780697+225400412+226302048+227243398+228026692+228599489+229050602
4167+229430654+229601854+229403238+228907009+228339961+227873296+227676897
4157+227888121+228257314+228217619+227606858+226916585+226628497+226710867
4147+226845230+226818939+226733815+227021262+227942971+228970103+229251574
4137+228803042+228485165+228717225+229065185+229215394+229422878+229750661
4127+229723729+229068423+228153815+227448526+227027583+226795143+226823269
4117+227189622+227621441+227647731+227254690+227019686+227292671+227650935
4107+227527155+227020898+226745540+227130736+228024839+228792373+228866447
4097+228302396+227638396+227264146+227171055+227162898+227043656+226807231
4087+226812444+227482264+228631045+229346050+228872284+227568496+226617933
4077+226723320+227406510+227690267+227186573+226340012+225874732+226187776
4067+227050479+227773503+227857414+227507221+227284756+227392412+227619934
4057+227805336+227924041+227837220+227383891+226715682+226300559+226566720
4047+227585451+229053131+230479971+231371182+231378092+230493740+229134600
4037+227919365+227304188+227285691+227360527+227031116+226476002+226385544
4027+227094262+228219697+229158085+229666056+229881888+229946714+229860066
4017+229774682+230005616+230427078+230407612+229773886+229189277+229164822
4007+229433443+229612488+229784104+230193391+230886089+231659217+232098501
3997+231951599+231587550+231599933+231941450+232082671+231975656+232168470
3987+232930808+233790203+234056157+233559702+232811341+232532779+233012763
3977+233858354+234464560+234723776+234975338+235193005+234816728+233737778
3967+232868009+233224836+234748370+236292063+236724263+236021364+235122481
3957+234758623+234850830+235079703+235580262+236767578+238520833+239860247
3947+240028260+239692580+239982797+240626101+240340560+239005026+237989723
3937+238436939+240322894+242754091+244542141+244816043+243601952+241887041
3927+240975966+241491402+242820441+244014789+245190744+247018402+249071071
3917+249669466+247645131+243869187+240501888+238989871+239234384+240817651
3907+244409406+250804444+258678748+264708507+266710188+264866579+260048158
3897+253869835+249160698+248128666+250405791+252916345+253071005+252589757
3887+254501344+258074724+259998608+260092928+260634447+260702390+257994571
3878+254575678+254244189+257364863+261799560+266054294+268808667+268305164
3868+265738686+264460288+264938592+264345445+261184660+257670044+256610976
3858+259350264+266405873+276597292+283018361+278537508+268040440+259032405
3848+254605329+255179996+259415644+264945087+270214447+275164026+279157136
3838+280002139+277245168+273662471+271407219+270022672+268388434+266682980
3828+265647102+265633005+267621316+272991768+280157891+283817797+282516468
3818+280196824+277646159+272524930+266048544+262155868+262908680+267790247
3808+274015903+278333887+281171773+285202309+289444660+289994024+287199090
3798+284492223+282274623+279438348+276862345+276250649+277912580+281246921
3788+285808515+290795573+294677771+297144161+300259604+305705655+312137998
3778+317293087+321677645+327653697+336754233+348957015+362553611+374988401
3768+385568930+395318762+404102115+411413649+418267888+425146754+429984694
3758+431172997+431279545+434737077+443626388+455585351+464872969+469816832
3748+475282904+484103285+493008773+496498795+496355115+499193383+508212034
3738+523022669+539922967+552637219+558003116+558907247+559419029+561358153
3728+564785134+568483887+570810026+571677163+572285551+572847905+572556077
3718+571335871+570516362+572131029+577030417+582418033+582938925+577099244
3708+568863593+562903370+561301866+562577146+563429215+562876907+562916013
3698+564618039+567416091+571419661+577710057+586519700+595261106+598613683
3688+594255554+586610868+580670597+578347125+579911013+584927582+592492669
3678+600766111+605196149+602206235+597125273+596892919+599737005+597902003
3668+588973481+578250138+570425714+566813937+566711581+568821403+571731095
3658+573323559+571894623+569733050+571892995+580442400+591493283+595987403
3648+589020589+576409733+565455906+558831320+555552141+552936633+549313841
3638+545826867+544653839+546392581+550393623+556596037+564893171+571585787
3628+570941894+564106118+557433350+555511752+559803965+568117344+574751317
3618+576067679+575256275+576267369+578503171+579913022+581105759+583163312
3608+584268137+582529499+579687907+578875395+581228344+585561880+590273459
3598+594899966+599071671+601378725+601342839+601509935+605046165+611425027
3588+615474320+613009801+606932085+602958303+603236103+606136234+608982191
3578+610354771+610373406+609755666+609601941+611486544+616342842+622767080
3568+627122231+626888907+623410800+619234383+615402272+612561650+611706082
3558+612888705+614888724+616430200+616506128+614344763+611086264+609990167
3548+612572526+615775882+615323574+611395445+607690665+606405236+607165340
3538+608914715+610762811+611811521+611436734+609865885+607948305+606275619
3528+604866877+603792603+603585327+604504767+605766643+606177177+605429542
3518+604187688+602886255+601103627+598544822+596058411+594768687+594643504
3508+594937306+595380400+595984839+596324295+595913554+594943333+594147067
3498+594262412+595208247+595604025+593942700+590468473+587084859+585112828
3488+584251442+583932007+583995949+583886284+582999334+581891946+581678851
3478+582321739+582738369+582404455+581977433+582410898+583810287+585130979
3468+584814731+581914461+577178012+572961519+571247959+571700197+572482955
3458+572757499+573002496+573168033+572391025+570756926+569769732+570405831
3448+571563480+571406395+569830904+568067707+566688962+565695673+565260996
3438+564945544+563749620+561916662+561000374+561809006+563357549+563843386
3428+562537589+560671205+559868946+559840508+558754422+556006042+553179378
3418+552016499+552682768+554028018+554688364+553897847+551852487+549742179
3408+548985435+549748276+550706234+550664530+549703869+548515982+547611193
3398+547201664+546937200+546172627+545167457+545035346+545786271+545734902
3388+543917185+541852981+541569016+542866534+543811088+543225319+541299599
3378+538601271+536021267+534889736+535907827+538473213+541384047+543339833
3368+543018320+540222588+536737381+534815263+535244537+537129556+538778203
3358+538892960+537595615+536335991+536394599+537538843+538441761+538232926
3348+537353909+536839495+536967518+537149335+537078222+537109154+537451485
3338+537789694+537585189+536330380+534046569+531715546+530543280+530860567
3328+532248041+534165205+535759748+535885970+534388138+532679254+532194733
3318+532873679+533647951+533890904+533893883+534139746+534622189+535007853
3308+534926799+533963506+532081327+530228764+529788926+531119974+533115975
3298+534449171+534861229+534824443+534294753+532671391+530124571+528076336
3288+527835461+529188678+530770023+531506573+531434525+531388629+532030443
3278+533200111+534118547+534120487+533186914+531849077+530813736+530571753
3268+530878510+530675114+529243510+527363756+526527412+527206948+528578107
3258+529692943+530219238+530280617+530301158+530627382+530833549+530079195
3248+528477691+527221565+526997109+527160948+526776566+525653383+524182950
3238+522984878+522754325+523730122+525308593+526501538+526693988+525880610
3228+524505571+523193609+522307421+521740807+521150119+520268919+519155123
3218+518153797+517410458+516680801+515945671+515716607+516223609+516764799
3208+516334521+514702881+512696246+511454634+511340743+511594781+511214244
3198+510058639+508819764+508033126+507520444+506886735+506346308+506480947
3188+507021686+506742259+505074075+503049740+502054719+502191021+502206885
3178+500862778+498391851+496334852+495685002+495803049+495515482+494579657
3168+493503720+492664675+492204228+492151612+492200868+491855523+490980454
3158+489813730+488492658+487030296+485581546+484383475+483603350+483148791
3148+482504240+481100763+479054052+477168339+476070199+475636977+475301505
3138+474730145+474087153+473692934+473715068+474232080+475140887+475889872
3128+475802999+474684284+472754408+470363530+468170333+466974478+466963463
3118+467605693+468318169+468781146+468776435+468212834+467231217+465954378
3108+464331710+462563733+461366597+461271480+461804668+461937957+461330919
3098+460537147+460086363+460024187+460199527+460421974+460433786+460144833
3088+459860279+459956712+460315634+460379057+459810676+458785069+457581906
3078+456269320+454911080+453738676+452940539+452530282+452413585+452280470
3068+451586976+450127973+448506136+447556144+447449216+447716485+447954243
3058+448140043+448347770+448486946+448385941+447974957+447309727+446459148
3048+445478743+444510809+443712256+442932374+441691489+439861579+438193846
3038+437617568+438101050+438772099+439089698+439197701+439135178+438499980
3028+437099447+435413875+434235340+433995573+434399768+434670121+434215561
3018+433087598+431867150+431226894+431413006+431845085+431460703+429861243
3008+427845221+426502222+426146244+426321756+426381819+425835261+424586479
2998+423109499+422085554+421732416+421676545+421460332+420939717+420178401
2988+419222417+418157599+417257313+416812037+416772827+416753360+416464684
2978+415976976+415445069+414759611+413727561+412558481+411782444+411545413
2968+411383237+410937926+410501101+410487419+410692963+410490156+409612731
2958+408401186+407324383+406556797+406076536+405911138+406091361+406422192
2948+406446647+405793263+404567620+403221712+402084500+401253318+400793147
2938+400684833+400664119+400429548+399965879+399470100+399023058+398446294
2928+397518056+396336784+395298880+394658139+394348853+394230009+394194643
2918+394060628+393629276+392885902+392058219+391483949+391352497+391479065
2908+391460707+391154192+390812381+390617124+390308531+389586218+388693726
2898+388173804+388073630+387791570+386810888+385358467+384185301+383719727
2888+383594162+383184980+382424668+381690992+381156453+380781077+380704215
2878+381098261+381753064+382132008+381767266+380576538+378983381+377712777
2868+377269441+377554965+378042499+378287427+378173432+377694211+376790531
2858+375637108+374776379+374554832+374629790+374431485+373898782+373339061
2848+372849655+372365307+371973270+371707282+371364674+370894354+370558224
2838+370434807+370211979+369683224+369048649+368577152+368235306+367756154
2828+367008208+366219319+365733724+365599223+365518931+365107705+364137554
2818+362788389+361684846+361355782+361655022+361955441+361825339+361311029
2808+360676281+360064152+359430997+358752293+358169330+357826514+357635691
2798+357331774+356754422+355998509+355280317+354733828+354392848+354259352
2788+354252320+354163369+353805520+353183311+352486041+351923341+351527563
2778+351143631+350653845+350070535+349367757+348503288+347631371+346953810
2768+346425887+345944760+345631733+345594566+345635266+345435611+344858501
2758+344008302+343163715+342589481+342279918+341985457+341535020+340986279
2748+340450423+339930398+339394750+338911476+338593045+338426712+338250853
2738+337883236+337223583+336343977+335527031+335032222+334804094+334600940
2728+334336684+334059092+333714786+333204944+332577436+331952283+331360902
2718+330825255+330468653+330331658+330162865+329650633+328855198+328180997
2708+327898660+327883765+327822074+327494361+326892796+326222024+325748137
2698+325528149+325344739+324998771+324576148+324276180+324061041+323693875
2688+323121822+322592479+322303456+322124029+321816441+321407674+321115430
2678+320952387+320673825+320153626+319561137+319111427+318842703+318649352
2668+318378653+317930848+317382142+316967209+316852175+316927721+316876872
2658+316492421+315887531+315311011+314839375+314393025+313961154+313651175
2648+313537423+313511652+313313139+312812580+312224871+311844854+311650117
2638+311396530+310996630+310591499+310358626+310381383+310584191+310731819
2628+310597492+310172929+309638910+309126020+308597681+308001762+307439305
2618+307074528+306923263+306823920+306602581+306234202+305877219+305726265
2608+305789237+305867208+305779469+305526020+305235924+305032389+304910878
2598+304704433+304254793+303625344+303030050+302592706+302302540+302124603
2588+302027615+301960036+301860000+301661384+301341811+300985035+300686972
2578+300429783+300192995+300077199+300138716+300249247+300270931+300190189
2568+299991053+299608057+299056510+298434786+297814240+297257151+296887837
2558+296838928+297107860+297494424+297749293+297809356+297788469+297734087
2548+297567407+297288741+297041839+296901104+296748452+296457802+296107262
2538+295888070+295838607+295813944+295717061+295594545+295479199+295303444
2528+295027064+294755292+294678395+294903925+295329908+295676014+295674802
2518+295275144+294696164+294251200+294064395+294000418+293911779+293837029
2508+293859544+293913372+293859232+293663837+293401798+293132693+292860470
2498+292618590+292508648+292563065+292637468+292576262+292414466+292273904
2488+292180623+292130432+292172032+292273523+292266699+292051525+291734723
2478+291494229+291395510+291374727+291345457+291298591+291291872+291343587
2468+291399250+291438323+291531604+291717473+291872965+291781346+291326960
2458+290624702+289979563+289661946+289669705+289774313+289825768+289873119
2448+289959542+289976965+289809142+289521228+289327911+289364351+289515114
2438+289541491+289377565+289182638+289107784+289153472+289254166+289367745
2428+289461044+289486745+289407129+289246373+289093946+289014365+288991729
2418+289020652+289162894+289426613+289696515+289874920+289971007+289996484
2408+289934013+289848145+289844490+289896535+289890958+289835796+289852284
2398+289991651+290210566+290485196+290809879+291107665+291260212+291238459
2388+291113138+290891972+290390322+289291576+287327598+284438187+280807827
2378+276741007+272506450+268309337+264311950+260583269+257089401+253780382
2368+250662721+247918705+245963837+245084872+245067414+245582971+246871657
2358+249672099+254494832+261277872+269689053+279034517+287678640+293479907
2348+295127550+293074327+289550255+286992472+285903476+285188852+284090903
2338+282698147+281210481+279529724+277596869+275779498+274656263+274477459
2328+274975317+275594685+275870320+275799103+275885717+276652800+278111110
2318+279779830+281150383+282085100+282805803+283556762+284372132+285185752
2308+285998507+286816145+287528622+287991200+288189920+288233183+288226706
2298+288243072+288342190+288535974+288787813+289058217+289259951+289253872
2288+289057801+288939321+289084559+289290294+289200269+288759565+288246917
2278+287915394+287759036+287612446+287356382+286993875+286587532+286199877
2268+285922424+285882728+286110960+286440077+286645811+286647075+286495048
2258+286267214+286054933+285944817+285932330+285923393+285844349+285698019
2248+285536275+285422402+285393080+285431252+285486898+285520826+285526975
2238+285541488+285627478+285793482+285922753+285880044+285724171+285684908
2228+285865011+286109367+286234775+286226964+286144213+285999892+285818058
2218+285673495+285601309+285545437+285458477+285410018+285527546+285815564
2208+286096499+286179475+286052473+285854359+285680492+285497757+285279068
2198+285130989+285186705+285424688+285701708+285916743+286030928+286012709
2188+285914543+285901156+286025940+286087856+285902992+285608600+285499974
2178+285657890+285908932+286077240+286131674+286124712+286087960+286002785
2168+285855901+285707614+285669512+285790209+285994679+286161844+286255385
2158+286351783+286525945+286736962+286875637+286916077+286942454+287006275
2148+287056587+287068416+287119716+287244171+287331495+287301723+287265024
2138+287365804+287563693+287709226+287779109+287893900+288097314+288251282
2128+288218756+288061948+287980462+288131277+288551510+289142198+289682400
2118+289961897+289942240+289760995+289621004+289672996+289908797+290176395
2108+290374717+290579083+290901255+291318266+291717092+292027971+292246158
2098+292381768+292441034+292453088+292496871+292655030+292898641+293078380
2088+293119565+293158948+293361756+293668479+293867303+293886285+293873780
2078+293990512+294232703+294489823+294696614+294851968+294950825+295032676
2068+295245632+295664064+296084851+296232549+296118450+295982079+295973765
2058+296084019+296271725+296499333+296707510+296854099+296961236+297092342
2048+297274367+297458643+297597335+297724180+297885941+298049331+298159169
2038+298241158+298382759+298631497+298921005+299107082+299115084+299029769
2028+298999184+299101159+299321113+299590079+299863653+300218385+300760648
2018+301350816+301603642+301337896+300851574+300578554+300645579+300881882
2008+301087634+301174715+301161275+301130759+301170870+301304955+301437828
1998+301449951+301519713+302166584+303565697+304981713+305445729+304891688
1988+304026838+303401442+303139645+303173695+303327351+303401546+303354265
1978+303292643+303327835+303478166+303638057+303755100+304094313+304982302
1968+306158655+306832787+306640233+306067141+305694709+305577943+305565508
1958+305717501+306102714+306520211+306710929+306696173+306743524+307065003
1948+307703665+308757121+310370195+312106720+312781025+311781396+310066832
1938+308952378+308698721+308798479+308883828+308944861+309080782+309325952
1928+309722527+310539750+311991478+313579162+314530712+315053163+315858747
1918+316511368+315877625+314199050+312986326+313125434+314186892+315129263
1908+315286175+314827078+314346956+314175357+314270890+314556171+315089256
1898+315958090+316996132+317733964+318103347+318846652+320357577+321617236
1888+321422603+320144482+318987630+318469613+318465283+318782571+319210943
1878+319558158+319831247+320249540+321357690+324019475+328459697+332886029
1868+334181227+331504374+327413896+324535136+323475410+323548047+323980057
1858+324338079+324507772+324609297+324836040+325416198+326616694+328632369
1848+331675003+335822080+339827383+340859260+338000591+334146450+332096275
1838+331990524+332455232+332807400+333998544+337202073+341596503+344456384
1828+344620328+343693024+342644694+340762446+338171289+336377368+336150556
1818+336766599+337313747+337915588+339311860+341514063+343367112+343766353
1808+342998005+342375658+343099045+345610950+349208178+352143606+353035163
1798+352488535+352622204+355107541+359547728+362789394+361583252+357256643
1788+353874935+353314105+354600297+356223762+357795270+359199786+359951681
1778+360449261+362405982+367208244+374016137+379115215+379188856+375503993
1768+371133671+367740185+366543880+368273789+371421169+373187448+373281665
1758+373391053+373742390+374137475+376223778+381533873+388291817+392144364
1748+391374942+388512325+386372782+385958750+387013557+388526318+389370144
1738+390298971+393968455+400983762+406298637+404494325+398491393+392914721
1728+388953098+386941406+387090455+388713643+391554923+397113861+406682984
1718+417580108+422623661+418708418+410980877+404728030+401945219+403013985
1708+407519224+413614120+418642779+422590478+428353920+436623793+442940271
1698+443949321+441177110+435472968+428449695+424127555+424346920+427787929
1688+433388328+442371752+454171933+460901057+456635239+448205441+442950871
1678+442851078+446851704+451793247+455056977+457867742+461843359+464236039
1668+461646336+457148268+455886808+458316482+460661879+460190590+459005196
1658+460973867+468614881+482573759+497868188+501855340+495823901+493190901
1648+496537729+499138896+494923616+487583089+483112455+483284538+488137026
1638+497261878+507363394+510869038+505346056+498430507+496013027+498138263
1628+502117380+506024968+509868197+512897461+513202902+511964788+513144882
1618+518001838+522522214+522128306+518893049+517203736+518148913+520352813
1608+522235304+523422014+524514196+525912720+527283984+528217972+529027679
1598+530432056+532580327+534837120+536586600+537858763+538988493+540101042
1588+541144107+542097597+543012016+543994602+545322117+547741710+552415326
1578+559578434+566186256+567447265+564876060+564496042+568038923+571816894
1568+572088978+570426129+570188129+573049015+580803470+595808877+614637111
1558+621574759+612668197+602145687+596146531+593933833+594054929+595469906
1548+598284965+604079270+613961732+626903524+640694994+651521837+652491919
1538+644594373+638491025+639218915+643933473+647015040+647696169+650330208
1528+657261483+666751839+676450095+686450674+696514641+703402964+705621204
1518+705754354+705117147+703501753+702765965+706005205+714801617+728659454
1508+743781661+749968419+741390991+729428010+723592486+724453665+729690569
1498+735818303+738607314+737124238+735909402+739389102+747137911+753962707
1488+755051459+751476781+747375391+745339418+745666196+747437948+750346046
1478+755240516+762491086+770846690+777758844+780143487+777448207+773628358
1468+772576322+774480185+776455610+776289346+776206976+780304070+789831767
1458+800353099+802452877+794543761+785631312+780953332+780414082+782016037
1448+783042233+781814996+779188992+776947821+775927237+776628802+779871992
1438+785270033+789347384+788533175+784859707+782652690+783104513+784498706
1428+785167781+785376027+786053137+787541479+790106518+793716944+796335812
1418+794933789+790246942+785869139+783410923+782342884+781897019+781966642
1408+782924185+784632480+785814964+785594179+785248696+786490343+789164078
1398+792085754+794705176+796393173+796019148+794041159+792638582+792991201
1388+794104270+794210817+793226534+793101282+795508578+800342015+806436496
1378+812988480+819614590+825185755+828048546+828436495+828760433+830320337
1368+832092436+833430238+835567772+839057101+841906522+842204204+840981747
1358+840293067+840312465+839716616+837982758+836265319+835805806+836497742
1348+837412611+837893530+837826331+837706552+838618441+841186806+844307307
1338+845814214+844918882+843021808+841880613+841914489+842355504+842492395
1328+842462121+842976155+844566263+847192821+850509582+854065833+856988895
1318+858287695+858183572+858180385+859257500+861145637+863473057+866230617
1308+869011385+871108460+872434763+873485067+874650925+876031887+877457325
1298+878612306+879500919+880473079+881479670+881682374+880166322+877029056
1288+873585865+871241887+870140318+869243877+867680510+865429293+862820609
1278+860259033+858451811+857930989+858238231+858366463+857991398+857635940
1268+857770752+858322887+859053688+859983728+861220386+862544749+863551340
1258+864263990+865243909+866921791+869005981+870657122+871304167+871276872
1248+871391040+872012452+873084440+874885704+877797682+881408592+884792898
1238+887483537+889462842+890692711+891427876+892412922+894008364+895627015
1228+896725120+897895897+900142264+903360652+906428641+908667041+910311185
1218+911740503+913192127+914908804+916896492+918950754+921017140+922960976
1208+924304598+925046413+926130039+928128950+930546291+932991898+935754307
1198+938801998+941413938+943166431+944348708+945433927+946881049+949167665
1188+952409885+956042410+959202467+961353094+962462630+962763568+962577352
1178+962577768+963706355+966059269+968539653+970283417+971471167+972486001
1168+973114895+973175859+973589510+975481804+978413664+980990758+982704317
1158+984264775+986646509+989645706+991634918+991711815+991162104+991730935
1148+993232162+994120289+994024133+993976609+994554238+995455736+996510959
1138+997720600+998424798+997592923+995480191+994264592+996143446+1001304700
1128+1007838326+1013203670+1016118141+1016932420+1016480112+1015428907
1120+1014706836+1015466594+1017886637+1020689573+1022494855+1023128322
1111+1023428151+1024679635+1028162522+1033652356+1038169821+1038836471
1103+1036842479+1035854455+1036640330+1036208875+1032927652+1029501710
1094+1029543138+1033027272+1036287504+1036770085+1036631947+1039356809
1085+1044265549+1047651310+1048313526+1048030185+1047880755+1048024573
1077+1049105498+1050951792+1051924229+1051220447+1050083408+1050076480
1068+1051142441+1051594125+1050211639+1048727247+1050488469+1055970266
1060+1061432736+1062969363+1060669653+1057447038+1056182253+1058840054
1051+1065268588+1071708136+1073604101+1071216271+1069344068+1071014260
1043+1073741823+1073279886+1069926685+1067130330+1065280642+1062093913
1034+1058322557+1057747076+1060453509+1061869802+1060024894+1058096715
1025+1058620932+1060737752+1063417444+1067006948+1070962441+1073111474
1017+1071349282+1066460216+1062061768+1060817143+1062501398+1065069556
1008+1066582905+1066300395+1064245786+1060190950+1053920645+1047181683
1000+1043687158+1045544051+1050819681+1055391667+1056505983+1054115798
991+1049847451+1045840971+1044266311+1046117039+1049809141+1052126101
983+1051525888+1049660196+1048816822+1049140760+1048737431+1045775920
974+1040130006+1033406493+1027692688+1024479633+1024232939+1025746912
965+1026555995+1025240084+1022622186+1020066152+1017975034+1016187834
957+1014376386+1012129396+1009173774+1005247239+1000577018+996844804+995792629
947+996401710+995272499+990510349+984080499+979729021+979221915+980854144
937+981543239+980164217+978104897+976780188+975784543+973562977+969697128
927+966135266+965212154+967020276+969614066+971330881+971956588+971865836
917+971272481+970447534+969957747+970046837+969888956+968467328+966128200
907+964007916+962476070+961652092+962390305+964962134+967552806+967601923
897+964471170+959997626+956446847+954267263+952160489+949687102+948905176
887+951992562+957686277+961575957+960775950+957091883+954156836+953217236
877+952977469+952119754+950978905+950832593+951874584+952399009+950737753
867+947547976+944732986+943074362+942039230+941003958+939928853+939420085
857+940252375+942257244+943803015+943518495+942685235+943858713+947357603
847+950622754+950936092+948261110+944866551+942502968+940783243+938731197
837+937018261+936956397+938281938+939960028+941985194+944525710+946471623
827+946955313+947300796+949471513+953166941+955806107+955580334+953620565
817+952541442+953451738+954969799+955188020+953893238+952366033+951520926
807+951235853+951373575+952317054+953967641+954754348+953427491+950820469
797+948807496+948862848+951484625+955534473+958310599+957981950+956142723
787+956193849+959251377+963187403+965715449+966777946+967176010+966742476
777+965113850+962862010+960924617+959395680+957471866+954920958+953092538
767+953414259+955327405+957245539+958560342+959624016+960703902+961565289
757+961586002+960728426+960523020+962699972+966708531+969741950+969767513
747+967664480+965530341+964507194+964705810+965884969+967237943+967510270
737+966049501+962991973+958809599+954252022+950681570+949775361+952421801
727+957852888+963653704+967168944+967588968+966181404+964273939+962182406
717+960156269+958960137+959131320+959726892+958486493+954547141+950138509
707+948076211+948901574+951370388+953890537+954170414+949795451+941378676
697+933242680+929629691+931372208+936339834+942136563+947685559+951779883
687+951782585+947419814+942376815+938783986+935279346+931215574+928472493
677+927545640+925904058+921658850+915413554+908119824+900887265+898095691
667+902944368+908562433+908901820+906764079+906528053+907575794+905953403
657+900757718+895603045+894141653+895882577+896521447+893929666+892482683
647+897091455+905021631+908259694+903890550+896847532+893323079+896018913
637+904040880+914605026+923299739+924713469+916803730+903934402+893202122
627+887581355+884772184+882135374+880253264+881128229+883234241+880780737
617+872404835+866146030+869812223+880795632+889554426+891972945+890851147
607+886187161+875876915+864582455+858775611+858894420+862290434
##END=
