##TITLE=<SNM>
##JCAMP-DX=4.24
##DATA TYPE=INFRARED SPECTRUM
##DATE=3/5/2025
##SAMPLING PROCEDURE=Instrument type and / or accessory
##ORIGIN=Admin
##XUNITS=1/CM
##YUNITS=ABSORBANCE
##RESOLUTION=4
##FIRSTX=4497.3318
##LASTX=599.83466
##DELTAX=-1.4281778
##MAXY=1.765969
##MINY=0.18928447
##XFACTOR=1
##YFACTOR=1.6446868e-09
##NPOINTS=2730
##FIRSTY=0.21196797
##XYDATA=(X++(Y..Y))
4497+128880447+128440032+128913816+129894988+130432457+130141108+129490451
4487+128969156+128708195+128957260+129893059+130872156+130923935+130068129
4477+129296944+129285102+129712734+129804840+129176833+128115714+127228577
4467+126985918+127534123+128715471+130129566+131193267+131357365+130588790
4457+129581869+129045995+128788260+128023834+126677183+125754087+126036013
4447+126848077+126823777+125762703+124813894+124789005+125338578+125917270
4437+126521430+127143348+127352856+126858940+126003976+125438312+125490173
4427+125831361+125753706+124970825+124038397+123633497+123616763+123367481
4417+122906100+122890254+123436375+123826325+123633651+123245114+122981318
4407+122618122+122150825+122158871+122870902+123625153+123742419+123308599
4397+122793238+122471601+122425757+122632773+122914698+123028032+122786352
4387+122081515+120973935+119737809+118642877+117765707+117163132+117027918
4377+117447531+118159734+118744949+118995481+118993851+118910923+118810273
4367+118565540+118029739+117348884+116866946+116628355+116373655+116099086
4357+116113347+116495641+116955971+117241077+117372866+117539402+117867416
4347+118250254+118499726+118643946+118797045+118818101+118454326+117761385
4337+117079797+116652274+116443944+116257141+115931011+115530080+115415604
4327+115927903+116824363+117319212+116968302+116206232+115671319+115403618
4317+115156927+115088459+115512802+116182522+116473009+116335231+116448130
4307+117220682+118207844+118720985+118571900+118125586+117922828+118137274
4297+118259170+117748057+117017888+117066116+118110175+119359338+120144312
4287+120510253+120651719+120444757+119709750+118539057+117292358+116469385
4277+116481788+117282518+118264569+118776778+118733352+118585046+118773380
4267+119331632+119940603+120266072+120177908+119705863+119063360+118713710
4257+119022599+119808461+120508369+120704413+120347569+119799645+119726865
4247+120462560+121493509+122100061+122241799+122277632+122272386+122127849
4237+121924674+121713445+121401213+121092913+121147963+121760767+122767054
4227+123802832+124402870+124153497+123108831+122015303+121755149+122429779
4217+123239361+123493273+123460937+123842253+124617070+124971903+124400604
4207+123412483+122958523+123397941+124213104+124704791+124800367+124962635
4197+125400323+125772180+125741240+125410144+125068258+124835058+124687350
4187+124624762+124685855+124850914+124966123+124875485+124708270+124866117
4177+125579071+126605617+127453424+127764242+127484971+126877767+126426225
4167+126534268+127152372+127737859+127707281+126988156+126112027+125759731
4157+126145831+126809707+127173364+127288791+127666129+128346948+128710451
4147+128357258+127628149+127052094+126770630+126659589+126646524+126745823
4137+126936866+127125699+127244142+127332534+127476427+127731970+128110984
4127+128476517+128490370+127894464+126868960+125990440+125787918+126274522
4117+126928622+127262797+127313516+127404073+127625295+127824221+127936313
4107+128102287+128567418+129474986+130547521+131109959+130770564+129915301
4097+129208045+128891809+128881399+129122880+129422255+129321162+128642165
4087+127872394+127646070+128084067+128801461+129306294+129324224+128943688
4077+128521302+128413821+128742071+129262760+129459357+129016794+128249161
4067+127783314+127811455+127916897+127663448+127144553+126835429+126979196
4057+127280311+127305462+127066173+126964763+127215222+127620448+127952594
4047+128255322+128631247+128946795+128929427+128483503+127816918+127258974
4037+126938724+126687947+126365178+126176482+126428563+127010942+127460201
4027+127595261+127766154+128316705+129078195+129636918+129888248+130049301
4017+130247819+130318606+129992512+129223094+128322331+127728953+127652956
4007+128000196+128561864+129194700+129876868+130609665+131210799+131364405
3997+131030818+130540300+130110784+129645661+129156964+128938768+129201241
3987+129924651+130991986+132059221+132543180+132192179+131478246+131108120
3977+131350199+131998808+132703889+133176441+133288461+133121509+132862814
3967+132687445+132798496+133369169+134228854+134824524+134776460+134289149
3957+133792235+133471269+133393813+133834509+135070508+136716961+137683854
3947+137401956+136706215+136660525+137070625+136976771+136145028+135182719
3937+134699222+135125422+136607659+138496054+139562311+139367145+138915831
3927+139339911+140485380+141164459+140712927+139911273+139923758+140809245
3917+141459096+140944895+139606715+138417774+137790420+137610512+138160184
3907+140214309+143943651+148171214+151257202+152543304+151996250+149473660
3897+145736544+142819038+142311786+143808981+145049628+144496187+143804777
3887+145266692+148230558+150213089+151044904+152240114+152920280+151339052
3878+149038038+148779061+150844692+153907514+157056525+159022693+158257343
3868+156020076+155134480+155710925+155468148+153509953+151427008+151022090
3858+153399872+159304374+167690550+172655711+168902984+160950989+154620079
3848+151661341+151845498+154172143+157411974+160953146+164782776+167987833
3838+168508377+166121762+163226889+161259398+159532618+157508392+156070795
3828+156052149+157399688+160351169+165305711+170339457+171681415+169658023
3818+167992798+166947072+164054283+159718152+157010626+157797956+161614865
3808+165974135+168580749+170502142+173890958+177429339+177803543+175743113
3798+174392675+174042100+173440540+172974376+174055998+176896311+180470444
3788+183991810+187503500+191312274+195906148+202120363+210073155+218246454
3778+225230639+231782020+239479170+248939413+259685096+270032458+277870384
3768+282908661+286290102+288665772+291154441+295976903+304187947+314073873
3758+323170839+331676791+342300724+357591737+377057972+395166013+407153285
3748+416418082+428196535+442474366+453959596+460587807+466478774+475287517
3738+488236546+504238783+519621522+530579050+536733994+540381877+543681957
3728+547693045+552330045+556413107+558427004+557359932+553173766+547154181
3718+541371031+537813968+537759933+540498246+542663665+541409519+537911854
3708+534603221+532468388+531895205+532986087+534798558+535966270+536573448
3698+538125602+542095773+548876993+557762856+567614934+576015063+578534700
3688+573951226+567660344+564865966+566685867+571620078+577109243+581405255
3678+584420266+585486939+583289265+580356412+580448790+582372991+581000011
3668+574742651+567250968+561705630+559032587+558917703+560783630+563947554
3658+566866019+567706043+567131483+568270601+573170637+580543016+585091734
3648+582018593+573588203+565634560+561493441+560923591+561824318+562458712
3638+562568558+563046174+565190937+569861243+576548962+582824116+585243583
3628+583656275+582052768+582549194+584915351+589365349+595806196+601424958
3618+603301249+603397324+605791458+611170343+616795049+620404118+621990809
3608+622096922+621008758+620049394+621242366+624991759+629602304+633763029
3598+637804160+641283270+642208206+640556281+639581913+641960391+646456271
3588+649006966+647894520+645881783+645449866+645913457+645622444+644314951
3578+642739495+641470127+640555918+639646204+639063525+640774740+646261803
3568+652607699+653542565+647633587+640094284+635317611+633779265+634025702
3558+634721814+635254335+635389223+634959408+634138411+633628431+633807895
3548+634114782+633713089+632572594+631362588+630254057+628851541+627274707
3538+626184803+625805218+625877555+626509810+628045475+629940720+630778895
3528+629571282+626410728+622346983+619250068+618730956+620461161+622207239
3518+622240363+621025356+619757366+618467123+616610221+614454840+612796247
3508+612046209+612093322+612210235+611368145+609502472+607654775+606374898
3498+605248174+603956917+602674828+601796462+602008361+603871352+606450641
3488+607290194+605234873+602274803+601311090+602917170+604834921+604635053
3478+602333187+599602303+597511757+596305158+596114387+596562323+596616756
3468+595840335+595245480+596086156+598174636+599881756+599488326+596457080
3458+592176941+589229302+588953800+590297171+591309918+591022565+589625413
3448+587849400+586733620+586994010+587969683+588019514+586396002+584047494
3438+582534697+582677921+584364854+586842632+588629336+588355646+586138511
3428+583379505+581105689+579029204+576455352+573685618+571889057+571570609
3418+571858107+571601124+570759433+570173928+570099272+569812318+568828346
3408+567618268+566778571+566253189+565755676+565309951+565115121+565269869
3398+565667611+566138378+566732037+567527195+568056709+567487802+565615316
3388+563144278+560856002+559076329+558059596+558275228+559844488+561965983
3378+563437937+563839955+563759899+563856553+564212800+564526173+564504864
3368+564019963+563048494+561700230+560371899+559504151+558921400+558013026
3358+556927979+556592680+557110523+557454122+557385844+558127076+560073746
3348+561358915+560171343+557437777+555522564+555378615+556381541+557736727
3338+558724939+558567437+557243817+555687423+554731428+554528698+554854719
3328+555353211+555594936+555374955+554890598+554360722+553727850+552932801
3318+552180806+551798032+551972603+552588587+553172642+553088709+552063314
3308+550558055+549373781+548937225+549217801+550040103+550979426+551285225
3298+550538594+549140680+547814560+547058687+547111381+547899073+549132309
3288+550733352+552671904+554349161+555070352+554944125+554310130+553006370
3278+551309797+550503549+551259748+552389299+552269886+550861209+549371969
3268+548597468+548371942+548193565+547837500+547523076+547699532+548480737
3258+549261434+549237081+548289205+547101415+546332930+545855495+545151446
3248+544182333+543369562+542883357+542408966+541661501+540861342+540474363
3238+540602184+540811003+540576417+539752122+538481739+536985396+535692109
3228+535104683+535132625+534972550+533929904+532167626+530639862+530248934
3218+530811607+531156872+530630403+529832419+529333420+528546054+526773810
3208+524687975+523567847+523576436+523865637+524018283+524220724+524039448
3198+522380673+519174420+516012344+514606422+515265894+517079815+518953823
3188+520004840+519526571+517508543+515060627+513475820+512822109+512101897
3178+510719314+509084132+507855100+507311200+507312903+507330081+506708263
3168+505262620+503472908+502009725+501171078+500646965+499727828+497913508
3158+495452618+493251791+492125647+491977604+491873955+491214338+490454261
3148+490183470+490030099+489176449+487589468+486081237+485278578+484912438
3138+484185884+482829212+481528061+481041964+481188413+481015183+479843701
3128+477929683+476130984+475096565+474824832+474847156+474717740+474448327
3118+474364756+474264260+473298336+471420124+470002568+469962377+470343992
3108+469801722+468431859+467213808+466699770+466861476+467282883+467237618
3098+466325657+464984351+463864911+463050220+462248285+461439465+460947134
3088+460916909+461038896+460913539+460501301+460030135+459603980+459072945
3078+458230964+457134864+456256932+456064313+456326405+456219278+455323516
3068+454088867+453034769+452015571+450724531+449461180+448787610+448651598
3058+448396645+447643961+446732797+446137941+445790610+445220363+444199099
3048+442973872+441931118+441296362+441093015+441087760+440851398+440207545
3038+439460588+438904256+438412651+437764449+436984947+436124991+435094704
3028+433950004+433008216+432445362+431997644+431284173+430319879+429546031
3018+429339821+429561868+429650078+429155211+428157649+427132689+426466910
3008+426154588+425917465+425532153+424951214+424176460+423214378+422197717
2998+421355120+420734135+420090971+419188250+418104616+417156052+416545685
2988+416126670+415599947+414978709+414637539+414731728+414758257+413974551
2978+412256885+410344535+409096368+408619404+408348939+407868460+407292921
2968+406841144+406419809+405735693+404654088+403436944+402534840+402070668
2958+401783642+401502667+401242495+400835476+400016218+398924865+398075599
2948+397777012+397804628+397598019+396751255+395443870+394319937+393796802
2938+393619440+393266129+392654712+392143500+391879414+391520051+390740078
2928+389695511+388724912+387867239+387000035+386246916+385887408+385914951
2918+385961158+385672537+385027488+384288649+383691329+383179936+382456354
2908+381327564+380003400+378954376+378439903+378249096+377993997+377599191
2898+377327276+377301147+377241567+376825560+376108211+375356977+374609911
2888+373717736+372812407+372340226+372398501+372385382+371717502+370664600
2878+369986572+369933009+370073804+369972475+369592201+369053048+368341787
2868+367402899+366368298+365522404+365051093+364900766+364832561+364569055
2858+364001562+363304471+362754047+362456329+362299552+362053840+361499611
2848+360630739+359694315+358893359+358222217+357676613+357332471+357105060
2838+356726272+356117392+355563162+355365469+355482889+355620676+355517608
2828+355050356+354262591+353385167+352641652+352039621+351517465+351118165
2818+350795658+350322463+349634977+349002830+348648214+348423485+348019909
2808+347335539+346527371+345789836+345157435+344476073+343571287+342528750
2798+341724822+341413442+341394923+341289064+340956555+340465928+339904849
2788+339371168+338895835+338313048+337439646+336375075+335407629+334662773
2778+334013810+333296135+332459881+331516607+330499475+329506877+328677472
2768+328124330+327918157+327989732+328022892+327667842+326865545+325770531
2758+324518342+323327290+322571925+322406123+322456027+322162803+321376488
2748+320420240+319618668+318981846+318349771+317615426+316760543+315844631
2738+314989567+314291607+313780033+313442741+313188802+312866876+312421006
2728+311909686+311337336+310646153+309896223+309287705+308938417+308710970
2718+308345954+307753635+307040925+306271172+305449414+304717097+304237415
2708+303906864+303473334+302896382+302360798+301999424+301751120+301441298
2698+300901311+300024213+298848111+297673604+296943299+296816927+296941867
2688+296801344+296246589+295566133+295077590+294791868+294498046+294044186
2678+293420066+292652650+291808405+291072917+290646889+290521605+290459362
2668+290223217+289784306+289295291+288891352+288526372+288029457+287352154
2658+286676736+286183735+285820078+285452361+285122371+284929734+284765581
2648+284400836+283812378+283239484+282876878+282637308+282321507+281911751
2638+281517343+281145658+280751758+280387067+280081250+279728954+279283120
2628+278893659+278701221+278623231+278455473+278106529+277656419+277231877
2618+276892265+276617017+276354761+276095839+275890191+275743036+275546593
2608+275211221+274812646+274532976+274494561+274638110+274701532+274431212
2598+273905033+273494752+273435534+273584158+273635909+273459272+273189224
2588+273024202+272939544+272686439+272153899+271608984+271411526+271557286
2578+271685180+271517820+271105509+270645669+270285708+270121755+270166512
2568+270287176+270329378+270292557+270306347+270521744+271039334+271784824
2558+272447050+272709633+272539573+272128114+271625618+271062528+270450114
2548+269863594+269442042+269264625+269190133+268964951+268558819+268205762
2538+268054964+267984404+267812478+267522135+267212059+266940326+266708440
2528+266566087+266604067+266799259+266995122+267082571+267064197+266957921
2518+266805801+266704744+266659262+266525805+266236133+265911362+265665758
2508+265479572+265325277+265225959+265136390+264954588+264703603+264528524
2498+264488315+264516184+264556720+264548765+264334673+263810378+263131789
2488+262600862+262343462+262185253+261870847+261373407+260907623+260631849
2478+260491144+260389543+260309923+260194514+259911709+259435162+258916757
2468+258522041+258283867+258142492+258046218+257969605+257861843+257627583
2458+257212518+256704949+256274065+256001408+255862606+255829137+255829953
2448+255695663+255344617+254932071+254635730+254438871+254274736+254197815
2438+254259316+254364106+254381230+254304055+254205897+254098534+253926590
2428+253676493+253408094+253188475+253060672+253057211+253180448+253368736
2418+253522723+253589388+253606512+253635667+253682146+253721051+253749771
2408+253776553+253824645+253930576+254056513+254093261+254033228+253984430
2398+253965585+253891962+253783511+253767783+253885565+254071806+254256888
2388+254318515+254031779+253235534+251950220+250192400+247812036+244701368
2378+241074197+237360555+233837323+230433684+226909962+223251551+219837947
2368+217117609+215214953+213986755+213319799+213279028+214114286+216180623
2358+219787790+225079117+232015556+240434494+249777099+258599451+264971024
2348+267630241+266836008+264400558+262261576+260642395+258582617+255722662
2338+252551798+249554998+246709720+243721962+240602886+237894436+236244631
2328+235780369+235939375+235983752+235725356+235618482+236102151+237106961
2318+238251407+239235542+239993933+240665981+241476378+242579528+243969559
2308+245479601+246846747+247863462+248546853+249118116+249735640+250293747
2298+250599909+250685763+250793815+251100973+251574549+252058471+252438020
2288+252728943+252986197+253170645+253228322+253235008+253282465+253284785
2278+253078267+252678713+252283617+252026543+251863587+251727231+251636846
2268+251582159+251475448+251326970+251276632+251347790+251350454+251125743
2258+250765873+250514960+250487436+250537828+250438293+250133019+249757910
2248+249473601+249350510+249378216+249525788+249750933+249945474+249990376
2238+249935942+249988093+250244804+250596883+250929047+251256283+251613526
2228+251960893+252273741+252645100+253224245+254076173+255132790+256253589
2218+257334124+258384960+259480988+260650459+261884183+263197801+264587850
2208+266012926+267486800+269085270+270833106+272655253+274434818+276133421
2198+277868083+279781140+281846155+283915030+285865995+287600965+289053838
2188+290281583+291426065+292582670+293735197+294759251+295537448+296119257
2178+296663466+297227245+297692539+297859446+297626473+297125390+296566884
2168+295962733+295171272+294143594+292967383+291751489+290548333+289363587
2158+288211223+287075601+285863422+284570207+283376873+282439108+281781828
2148+281370659+281152888+281465899+283454881+288208505+295397161+303629024
2138+312019495+320515662+329046801+337320595+345225604+352940638+360809297
2128+369131473+377923255+386905120+395648341+403742054+411002485+417390855
2118+422691678+426657754+429391102+431235393+432645483+434527065+438319403
2108+445313211+455871403+469357520+484522161+499483420+511727567+519330763
2098+522206827+521491181+518390352+513803182+508013907+500777504+491882399
2088+481021416+467716213+452116502+435007291+417057803+398963606+381629159
2078+365681102+351492241+339386534+329236920+320597784+313415923+307789405
2068+303384580+299789682+296802322+294135440+291596578+289333797+287421157
2058+285767547+284473191+283661852+283291798+283446509+284288164+285834284
2048+288249783+291957481+297330078+304788383+314964525+328328655+345000730
2038+364879855+387336204+410971137+434078804+454971220+472099058+484701770
2028+493011950+497549361+498848229+497633911+494712437+490777818+486111498
2018+480415145+473400245+465295152+456405302+446744901+436309493+425232986
2008+413677268+401786614+389696780+377632025+365996070+355177017+345301383
1998+336341262+328361816+321488146+315622765+310342745+305267087+300456674
1988+296206470+292618928+289615206+287122696+285069967+283368791+281938986
1978+280670089+279470902+278366574+277404872+276581827+275963850+275634875
1968+275422342+274970275+274204544+273448400+272981275+272749262+272591325
1958+272498023+272493529+272485139+272400445+272309354+272300149+272358188
1948+272466022+272776533+273470180+274255046+274332529+273343265+271938104
1938+270915988+270421538+270234355+270226327+270345777+270524788+270697638
1928+270868096+271245272+272063279+273118156+273974416+274686691+275510026
1918+276005437+275501546+274360198+273677641+273991123+274920263+275724480
1908+275979778+275835377+275680249+275653068+275625652+275590390+275829687
1898+276579816+277578230+278216375+278396165+278781060+279694797+280377917
1888+280047311+279076186+278288675+277919110+277793192+277796743+277871870
1878+277962726+278053926+278204923+278789123+280508274+283530932+286491383
1868+287217411+285291724+282564483+280770694+280201388+280284633+280466036
1858+280525434+280493651+280475096+280542993+280834242+281590694+283006094
1848+285215147+288162624+290841357+291320912+289203820+286610252+285393053
1838+285548925+286115023+286653198+287818627+290355079+293590941+295625187
1828+295754530+295128381+294397986+293141574+291523788+290487376+290412792
1818+290833149+291287136+291907215+293085129+294724968+296087438+296607818
1808+296591492+296786829+297765836+299763008+302401967+304543504+305219938
1798+304924177+305280242+307469544+311012546+313533234+312955847+310488397
1788+308876591+309132088+310474118+312057367+313800763+315560178+316821609
1778+317762345+319609463+323414087+328567663+332394104+332682507+330518102
1768+328104869+326548982+326591347+328580166+331356677+333103081+333849241
1758+334789217+335941745+337077565+339366566+343944494+349649328+353534660
1748+354328803+353529369+353011199+353717494+355702472+358028365+359394749
1738+360286851+363001825+368156669+372056933+370882443+366824424+363225249
1728+360909177+359982284+360446564+361846543+364239264+368827811+376301700
1718+384353737+388001294+385654417+381042060+377580599+376495588+378079815
1708+382080393+387144273+391464856+395295320+400713127+407715959+412660027
1698+413537017+411979680+408639554+404589942+402685963+404128707+407769051
1688+412784514+420102930+429286982+434912087+433211744+428893372+426843089
1678+428319210+432551112+437395192+441117006+444561941+448784348+451887098
1668+451684077+450467150+451845602+455971065+459860094+461415509+462280612
1658+465453089+472912082+485202436+498545836+503362374+500463587+500100817
1648+504572778+509000960+508672075+505962066+505243123+507787765+513498977
1638+522144964+531742704+537264522+536644769+534854043+536332556+541530780
1628+548743917+556544733+564858138+573337743+580587701+586740579+594312643
1618+604844452+615571199+621331735+621936593+620932000+620076067+619317331
1608+618455526+617829939+618228370+620378749+624360590+629662536+635918265
1598+643153654+651018109+658283867+663809708+667806335+671388368+675203212
1588+679158307+682974818+686422036+689402908+692261504+695938851+701586606
1578+709466354+717370456+721891052+724260688+729109045+738123563+748894887
1568+758263042+766681473+776399206+788183820+802514418+821376991+844932013
1558+864075742+871337586+872604344+872538604+872085885+871922946+871959332
1548+871839593+872643919+875700245+880538237+884826747+884371708+875823898
1538+864291012+856786427+853161630+849556837+843879510+838263937+835292198
1528+835032279+836466470+839183364+842803450+845566806+845846222+845060378
1518+845100750+844951148+843340466+841655707+842206276+845850136+851867256
1508+857541539+857196092+848922262+839885710+835265307+835197392+838062946
1498+841064475+841070926+838111291+835877558+837149752+841265104+844592075
1488+843731358+839475682+835313942+833400722+833441674+834172649+835218339
1478+837036971+839606946+842275278+844104782+843639017+840481942+837031318
1468+835850885+837126413+838814216+838915835+838421077+840208542+845498818
1458+851329734+851178827+844319907+837422138+833787410+832406639+831511855
1448+830057370+827900684+825690652+824228774+823760471+824297341+826079733
1438+828486479+828831998+825341581+820741474+818200056+817465240+816451804
1428+814617081+813405191+813627057+814628098+815863617+817392323+818255432
1418+816471301+812194388+807839340+804996690+803649985+803001348+802574288
1408+802737588+803614686+803928459+802457810+800264956+799415908+800413471
1398+802183033+803521548+803556629+802036548+800238500+799861742+800763773
1388+800979768+799308781+797438324+797941491+801176845+805612275+810182013
1378+815105316+820492355+825433850+829033714+831566216+833799370+835809715
1368+837325810+838819725+841217701+844349915+846588069+846662508+845119813
1358+843263055+841857930+841125142+840978875+841016638+840606973+839485974
1348+838382299+838518347+840336109+843198764+846396066+849730068+852890839
1338+855146752+856261009+857069975+858686166+861561433+865416794+869713639
1328+874040709+878196651+882022584+885262795+887941347+890872207+895067723
1318+900368582+905423511+909308082+912277647+914900606+917522985+920538358
1308+924190336+927974810+930855875+932281368+932719736+932969362+933080838
1298+932433217+930889144+929145530+927775703+926518875+924997272+923635853
1288+923004249+922593570+921400887+919530358+917809214+916129964+913694152
1278+910786776+908946979+909122239+910490689+911385908+911103520+910496053
1268+910684505+911603207+912337372+912488495+912505891+912961364+914189708
1258+916341464+919055315+921200404+921586367+920063315+917504574+914762456
1248+912108258+909530672+906997591+904319111+901267135+897994090+894990893
1238+892458681+889965392+887018441+883798960+880969066+878977131+877873528
1228+877565337+877922961+878667200+879324390+879474064+879178122+879017938
1218+879488053+880439879+881398954+882344329+883761994+885904328+888332385
1208+890237632+891118572+891398857+892434617+895321481+899499384+903235223
1198+905751634+907913829+910424296+912500600+913074218+912596420+912697459
1188+914477531+917805735+921947325+926375362+930835363+934889613+937761256
1178+939052078+939421443+939948528+941072861+942559020+944083595+945554099
1168+947253427+949527822+951828963+952933146+952796228+952895890+954373787
1158+957037045+960313280+963895313+967254031+969584455+970415382+970024199
1148+969281699+969154857+970442345+973622034+978269255+982695769+985519357
1138+987279351+989304048+991900261+994607081+997385223+1000241934+1002536769
1128+1003580285+1003400386+1002091443+999323377+996090777+995234553+998228110
1118+1002667309+1005071228+1005574757+1006964444+1009968800+1012622129
1110+1013568736+1013770742+1014934867+1017230789+1018934466+1018597717
1101+1016837432+1015022714+1013745446+1013552283+1015039747+1017612187
1093+1020287187+1023389176+1027487857+1032076948+1036675606+1040971654
1084+1043376878+1042484704+1040280906+1040645415+1044337258+1047601025
1075+1046438930+1041500116+1037371210+1037535308+1041235196+1044671397
1067+1044890509+1042632856+1040952809+1041844838+1044871663+1048166598
1058+1049898252+1049697551+1049115525+1049679358+1051028093+1051963829
1050+1052726696+1054427908+1056408826+1056396722+1053650472+1050229637
1041+1048623593+1049537657+1052096107+1054840907+1056977588+1059053819
1033+1062075788+1066321607+1070875616+1073741823+1072673881+1067557053
1024+1061556749+1057557874+1054834674+1051620774+1048986653+1049129659
1015+1051676585+1054002949+1053836604+1050628213+1045615541+1041331379
1007+1040106950+1042271826+1045766157+1047509553+1046171981+1043872652
998+1043519667+1045302928+1047278990+1048096436+1047236371+1044134672
990+1039695038+1036431343+1035509379+1035647456+1035430374+1034169705
981+1030478659+1023907781+1017282903+1014133439+1015111866+1018236397
973+1020820868+1020480858+1016287008+1009789698+1003573544+998893924+995197733
963+991593230+988453913+986853668+986462268+985279661+982008283+977697593
953+974250375+971986490+969343744+964809231+958921128+953970718+951878033
943+952664892+954484466+955090339+953784585+951618115+949838767+949115765
933+949924948+952203620+954520417+954972049+953169290+950499073+948678339
923+948594913+949853481+950983177+950481243+948094791+945234746+943915728
913+944816093+946188167+945319766+941750562+938265002+937789306+940107698
903+942463562+943117707+942984849+943439887+944034598+943113503+940091099
893+936484205+934300484+933877409+933932133+933430851+932640948+932178082
883+931907799+931525894+931580472+932535850+933256316+932171414+929804967
873+928321054+928443475+928734923+928012283+926789883+926082899+925988963
863+925751369+925022713+924472651+924671540+925284081+925849074+926484881
853+927405903+928569883+929785469+930608858+930580953+929898178+929149662
843+928349829+927002616+925053807+923385284+923374557+925586764+928806752
833+930902626+930731859+929049637+927919652+928955194+931586561+933799202
823+934689419+934917736+935037475+935099737+935393577+936220735+937329701
813+938233110+938712140+938868990+939127241+939779574+940349278+940216565
803+939941570+940680736+942462693+944053878+944222832+942893305+941331764
793+941006975+941843121+942055637+940820625+939985856+941537394+944730565
783+947173262+947692374+946864419+945397756+943301085+940994943+940099580
773+941672065+944059749+944360474+942218647+940536425+941924373+945586498
763+948283316+947988823+945758642+943576225+942092385+941248121+941146429
753+941688881+942497484+943321018+943926310+944151075+944650183+946374661
743+949042124+951297674+952249066+952214854+951921522+951722198+951869118
733+952837977+954664872+956266568+956381596+954760765+951814104+948312815
723+945813003+945914259+948166258+949668653+947991070+943917468+940586438
713+940992551+945562289+951428648+954200991+951904126+947022501+942989125
703+940264185+937660579+935400825+934355787+934039478+933093305+930342272
693+925425420+919708808+915500825+913507005+912396589+911144617+910392332
683+910768583+910723282+907681815+902170543+898371790+898606703+900366697
673+899598104+893849383+883812441+876790221+882512994+896768283+906785510
663+906924457+899985300+891952036+886167653+882553728+880141038+878105397
653+875839844+873673663+872714371+872636236+871513426+869081818+867102277
643+865786594+863708478+860951066+858723856+857065263+856221507+858177781
633+862985621+866315346+864235346+858077032+852061434+849058382+849874089
623+853382046+855243225+850056742+838526247+828227938+825145084+829094164
613+836801334+844824161+850163000+852193857+853989078+859156208+867318272
603+872814396+869189018+856546224
##END=
