##TITLE=<SNM>
##JCAMP-DX=4.24
##DATA TYPE=INFRARED SPECTRUM
##DATE=2/5/2025
##SAMPLING PROCEDURE=Instrument type and / or accessory
##ORIGIN=Admin
##XUNITS=1/CM
##YUNITS=ABSORBANCE
##RESOLUTION=4
##FIRSTX=4497.3318
##LASTX=599.83466
##DELTAX=-1.4281778
##MAXY=1.8393251
##MINY=0.3559483
##XFACTOR=1
##YFACTOR=1.713005e-09
##NPOINTS=2730
##FIRSTY=0.39214894
##XYDATA=(X++(Y..Y))
4497+228924580+230146002+231316953+231483780+230633781+229618156+229299135
4487+229579829+229725883+229710816+230278190+231565184+232747252+233164274
4477+232924587+232418923+231930378+231707218+231917278+232392287+232687943
4467+232598832+232425551+232414243+232220032+231396200+230157589+229288035
4457+229458515+230638757+231967418+232355491+231482736+230152196+229580473
4447+230252232+231439764+231897984+231102910+229801650+229329877+230313385
4437+231913781+232682724+232229149+231341693+230573046+229800849+229149045
4427+229054889+229298735+229170497+228653646+228427093+228796603+229409402
4417+229864386+230052020+230029107+229903009+229804938+229897650+230312150
4407+230836969+230842779+230000366+228930600+228542979+228886671+229302528
4397+229604604+230271979+231331254+231947776+231518192+230496287+229743002
4387+229565702+229595818+229233615+228208074+226931849+226120682+225920922
4377+225799782+225420582+225188740+225738246+227141248+228640198+229069051
4367+227893402+225965303+224820327+225072941+225805975+225786803+224949174
4357+224048653+223379590+222785076+222405406+222542187+223161736+224053907
4347+224992007+225511502+225258888+224619714+224274127+224296361+224371362
4337+224524062+224897277+225149039+224785671+223948633+223293123+223115215
4327+223152254+223260590+223608491+224018137+223878695+223074017+222330422
4317+222282996+222772028+223232666+223306241+223024329+222719400+222763242
4307+223212415+223728379+223915821+223763939+223756580+224372319+225376722
4297+225885117+225369328+224335140+223736434+223959455+224572671+224973914
4287+225101230+225293596+225482065+225108589+224100011+223183326+222927528
4277+223221862+223791410+224372754+224432202+223667574+222715398+222546223
4267+223311182+224350346+225031326+225078822+224461013+223564405+223166886
4257+223605394+224287505+224565851+224641340+225065982+225850670+226545882
4247+226769964+226429595+225805680+225333715+225051925+224668915+224201265
4237+223949468+223893709+223689182+223251699+222905920+223073425+223985864
4227+225363100+226293111+225869042+224203788+222585925+222364417+223700977
4217+225543914+226780559+227137177+226980076+226666308+226312457+226027796
4207+226089749+226646040+227308318+227420481+226801210+225960536+225473558
4197+225337491+225138687+224720203+224441736+224763906+225634730+226313014
4187+226066088+225134720+224495930+224560632+224835185+224926731+224991538
4177+225217412+225653850+226332551+227004102+227193789+226861980+226411206
4167+226023533+225697083+225634469+225927533+226285282+226444731+226434554
4157+226314371+226051805+225719074+225531631+225659591+226129642+226832300
4147+227420150+227305012+226210924+224801711+224235208+224894232+226002378
4137+226691396+226959964+227301759+227850899+228255500+228157273+227548771
4127+226726678+226044289+225696701+225565557+225298346+224754946+224261931
4117+224201596+224575211+225128892+225624657+225950481+226222145+226554511
4107+226556442+225736576+224665835+224665174+225976525+227316982+227575494
4097+226962643+226222354+225758775+225754478+226170735+226436207+225914189
4087+224805139+224005906+224064467+224699343+225306436+225615036+225786490
4077+226046237+226372949+226560948+226496089+226272738+226023794+225717178
4067+225250050+224712026+224376512+224396032+224591391+224600403+224280042
4057+223971668+224177674+224937726+225822329+226517019+226972490+227099876
4047+226924542+226871671+227223678+227513245+227170128+226529249+226450995
4037+227060836+227574033+227470638+227213848+227451048+227987262+228089196
4027+227579530+227023500+226844530+226861110+226842164+226912242+227165500
4017+227402370+227439061+227302176+227081313+226856500+226696563+226641221
4007+226767685+227112054+227480468+227712623+228072476+228874562+229837837
3997+230313090+230045270+229426451+229155865+229663912+230685557+231562139
3987+232017315+232283882+232524074+232579851+232258916+231611740+230974515
3977+230717429+230812612+230841127+230595611+230361716+230431133+230695665
3967+230964702+231408065+232327394+233546902+234429469+234651985+234550418
3957+234467935+234251891+233761346+233522702+234342933+236205529+237916244
3947+238303951+237587793+236864414+236574638+236239716+235503672+234697724
3937+234400206+234955610+236252486+237657662+238391583+238302124+238113586
3927+238649121+239821168+240552967+240157953+239520484+239997616+241472122
3917+242249277+241123542+238926510+237412755+237339806+238075050+238856171
3907+240034621+242587296+246551568+250505975+252858037+252898609+250663598
3897+247071150+243934503+242917174+244234561+246022765+246161059+245561274
3887+246682485+249498997+251626455+252281113+252629241+252299920+250244261
3878+248009198+247985798+250297255+253352636+255868794+256938386+256025269
3868+254543038+254504746+255597877+255669678+253940852+251864821+250890533
3858+251763845+255357319+261857112+267428339+266467273+260753977+255360086
3848+252592914+252674492+254844209+257893728+260986515+264041566+266710806
3838+267631248+266128784+263538251+261381512+259956867+258955596+258326409
3828+258141889+258512407+260166771+263901219+268388047+270246520+269055666
3818+267704022+266955626+265134193+262266897+260407224+260881398+263550099
3808+266972711+269425401+271167936+273687574+276442201+277138422+275830151
3798+274600204+273945112+273286609+272960681+273724596+275542236+277963281
3788+281027762+285026237+289739896+294781659+300286878+306088380+310922362
3778+314227574+317661077+323217481+331621189+342744504+355622759+368157269
3768+378842023+387957019+395961694+403058663+409917248+416577430+421587303
3758+424111324+425873884+429431641+436054905+444744214+451958408+455535686
3748+458189981+463020518+469821935+475773683+480343255+486865334+497941989
3738+512870804+527248704+535520677+536974463+536580927+538770739+544107166
3728+550850126+556748742+560092786+561086507+561582376+562800527+564247875
3718+565008955+565355099+566863165+570639263+574363864+572962620+565571909
3708+556912350+551266209+549938453+551921754+554805734+556427128+556531897
3698+556357990+557628717+561952112+569615897+578380085+583978034+583644869
3688+579872389+577087472+576340937+576545151+577192728+578455730+580473444
3678+583229760+586016765+587782560+589153150+590850677+590626595+585388778
3668+576845470+569624004+566082601+565961756+567277195+568100454+568150246
3658+567753474+566608915+564984563+564550665+566915880+571693250+575073585
3648+572714111+565612828+558122324+553203894+551402781+551339871+550944178
3638+549320870+547341430+546346039+547184469+550391697+555661282+560233498
3628+560556400+557588981+555009774+554632627+556181403+558459039+560601320
3618+562936403+566080617+569128761+570476804+570180208+570066601+571481311
3608+573622932+574733774+574538224+574007734+573697011+573716322+574870763
3598+578223471+583003451+586562913+587500996+587787849+590182327+594511498
3588+597363675+596451758+594154567+593735909+595574149+598536348+602074690
3578+605492778+607031290+606118121+605250881+607509379+612973783+618608337
3568+620950831+619123239+615467220+612682059+611361226+610033505+607156415
3558+603584670+602007326+603587662+606605117+608860692+610312216+611786008
3548+612760836+612207659+610317783+607911057+605433765+603773121+604117178
3538+606420980+609304681+611310704+611501173+609553955+606211303+603043671
3528+601217262+600531515+599678611+597698476+594945675+592551196+591602883
3518+592638950+595041710+596999576+596927062+594908304+592223981+589953096
3508+588495378+587832178+587926265+588899283+590464727+591326121+590143217
3498+587264875+584648750+583862653+584636084+585388917+584854530+583196391
3488+581859762+582085584+583184943+583062986+581060060+579020668+578476921
3478+578703473+578626089+578585517+578971746+578863463+577487967+575667473
3468+574590730+574069147+572990317+571234264+570196318+570948594+572541805
3458+572941569+571528146+569684235+568762818+568578716+568207867+567320968
3448+566233926+565381578+565008920+564786195+563775285+561263094+557703527
3438+554762553+554074857+555348437+556284015+555566882+554793555+555658220
3428+556816454+555687240+552325659+549348427+548680356+549731385+550580671
3418+550208430+548942435+547247518+545313452+543625807+542841554+543117759
3408+543994150+544695416+544627635+543884997+542887136+541666097+540379572
3398+539995153+541208189+543195318+544461418+544257586+542605084+540038056
3388+537691073+536488858+536183912+536014249+535834775+535767898+535598271
3378+535371127+535645906+536442024+536945095+536601178+535570817+534269401
3368+533309222+533481529+534922058+536719760+537898906+538233081+537784012
3358+536581310+535069346+533842775+532814745+531569245+530341908+529632152
3348+529195366+528378927+527090350+525750345+524816403+524749735+525708939
3338+527136906+528437905+529767471+531384656+532970037+534071171+534498459
3328+534159169+533175365+532056728+531226302+530598002+529777527+528499215
3318+526875906+525432768+524751753+524931506+525524628+526001986+526344337
3308+527070865+528349734+529388932+529123618+527387711+525178866+523875188
3298+524245202+525862143+527478492+528249140+528265772+527792416+526749982
3288+525328869+524384801+524567616+525552116+526667517+527776062+528990038
3278+530051367+530666479+531042374+531462145+531676693+531238271+530090303
3268+528438636+526504674+524787836+523988934+524231841+525012962+526072620
3258+527394914+528367619+528215076+527277862+526520750+526063225+525460048
3248+524885159+524831922+525110076+524988118+524016109+522477458+521258994
3238+521034772+521431196+521506041+520956935+520118471+519078855+517767243
3228+516646728+516305211+516475500+516311683+515536616+514511162+513393047
3218+512201758+511410686+511462113+511869358+511620850+510474238+509156085
3208+508378826+508264175+508447477+508240584+506976502+504678581+502260164
3198+500677705+500064123+500014470+500179888+500120562+499291179+497766829
3188+496397666+495797202+495667937+495386512+494853586+494502188+494658941
3178+495152409+495602870+495859172+495839200+495184908+493626980+491506202
3168+489412251+487534275+485862880+484735127+484505825+484774411+484629140
3158+483794260+482918043+482547507+482405368+481817361+480436054+478545587
3148+476888109+475966589+475441805+474595825+473372385+472498743+472594465
3138+473457425+474190494+473918289+472352289+469755128+466747833+464269637
3128+463144459+463342236+463994928+464262400+463917195+463213980+462519743
3118+462010061+461602920+461217039+460992714+461103954+461393487+461259698
3108+460139322+458277283+456651051+455966174+456180444+456926561+457736945
3098+458010089+457410356+456166421+454702685+453341838+452400518+452025703
3088+451940593+451794000+451593405+451419463+451017646+450140837+449078430
3078+448374415+448126081+447904887+447307729+446349499+445382083+444770241
3068+444550439+444408230+444010797+443270978+442415116+441892977+441952373
3058+442235816+442178752+441816775+441710649+442041762+442196149+441389245
3048+439595717+437715654+436701160+436582299+436549974+436000798+435179384
3038+434607522+434322583+434078076+433893799+433782419+433312195+432239627
3028+431177777+430846943+431006027+430694609+429332022+427295866+425499625
3018+424469821+423964175+423608809+423470707+423556616+423284482+422157947
3008+420601689+419483366+419075982+418978520+418798836+418458816+417982119
2998+417388476+416775103+416254529+415803372+415303780+414733589+414205360
2988+413750098+413190136+412422863+411693308+411270440+410977846+410438030
2978+409743480+409448381+409804024+410343143+410380270+409692157+408529922
2968+407231707+406082450+405305783+404871745+404411681+403559647+402417767
2958+401524500+401184167+401014957+400529039+399939397+399841865+400263968
2948+400541461+400042809+398755415+397272540+396272069+395953900+396069073
2938+396326524+396421724+395934276+394732269+393308199+392314478+391953198
2928+392013603+392207239+392242278+391811163+390798583+389447374+388170523
2918+387262155+386800838+386652019+386562107+386389905+386161160+385840243
2908+385297852+384606051+384088191+383931055+383935544+383731330+383109989
2898+382139790+381095476+380289372+379826419+379528814+379223937+378979778
2888+378869581+378737289+378408195+377892249+377317221+376916621+376941222
2878+377283330+377417570+376938543+375929686+374734186+373653059+372913170
2868+372644481+372799111+373161227+373436632+373377306+372931090+372285879
2858+371643348+370962089+370159012+369519856+369441323+369745817+369799994
2848+369315155+368525926+367718674+367034771+366524149+366131170+365774482
2838+365423710+365016430+364508453+364013175+363644414+363290823+362741822
2828+361956247+361124116+360498216+360122600+359793610+359393707+359021918
2818+358676679+358191388+357609052+357213185+357066766+356835482+356166854
2808+355088441+353981217+353218920+352874829+352754750+352607566+352280454
2798+351789318+351293797+350942085+350726771+350506795+350148925+349690252
2788+349355486+349263939+349136623+348559994+347576607+346703556+346303932
2778+346215029+346036181+345565817+344890196+344177065+343496641+342868376
2768+342364260+342014497+341719641+341422211+341189708+340968479+340518853
2758+339759340+338906227+338164285+337519840+336854205+336076319+335205809
2748+334426810+333946181+333776693+333752997+333696838+333504489+333180753
2738+332825005+332496154+332106167+331510853+330697198+329889319+329432421
2728+329429707+329533850+329305940+328741942+328194993+327833470+327466309
2718+326908643+326273280+325791155+325485165+325194623+324883866+324718449
2708+324771059+324804776+324451394+323582206+322487056+321661954+321360139
2698+321374405+321298098+320922343+320319931+319662646+319096282+318736046
2688+318619029+318626962+318559007+318304618+317872216+317294091+316622923
2678+315994414+315556897+315307658+315077347+314732560+314381927+314304437
2668+314573371+314810710+314535966+313781115+313074525+312747205+312589965
2658+312314908+311983899+311741689+311463326+310978348+310413897+310035393
2648+309878153+309725123+309390357+308913312+308474368+308187446+308011799
2638+307828184+307554414+307193098+306787106+306363820+305958037+305631795
2628+305402633+305222602+305046746+304798133+304350560+303760605+303356039
2618+303336658+303486452+303468811+303176530+302684662+302118715+301646055
2608+301394345+301324337+301276076+301139922+300932889+300724430+300556786
2598+300445858+300360053+300184545+299816619+299291939+298752228+298354100
2588+298210151+298271043+298297175+298099711+297735890+297373392+297099587
2578+296919069+296805949+296726198+296657095+296557197+296345885+295989406
2568+295566469+295200491+294951913+294762208+294524521+294256806+294098208
2558+294064248+293991143+293795802+293566431+293350421+293088273+292783395
2548+292540872+292427439+292431336+292539793+292716623+292808448+292632314
2538+292201234+291728835+291395739+291246536+291261985+291370129+291473419
2528+291589062+291814136+292072456+292113028+291835657+291417173+291058328
2518+290777355+290514598+290308088+290246778+290303268+290354418+290360089
2508+290384550+290465658+290584746+290712305+290776746+290659277+290311236
2498+289838698+289438221+289243419+289188999+289061074+288773194+288526512
2488+288565118+288824587+288972572+288809381+288490012+288265338+288137152
2478+287952893+287749810+287717120+287821123+287780743+287482495+287150112
2468+287029459+287115908+287240249+287274418+287229463+287229149+287365182
2458+287560802+287639282+287514941+287251766+286973543+286776427+286673850
2448+286599179+286507963+286454709+286508850+286628668+286679887+286558173
2438+286264291+285892990+285580214+285421025+285396686+285408499+285405385
2428+285419059+285444999+285401679+285283410+285238541+285397538+285715290
2418+286056650+286322469+286434110+286362188+286247746+286296894+286483572
2408+286587036+286574318+286666160+286957659+287247226+287341452+287326733
2398+287413530+287599877+287644102+287414191+287125616+287096718+287331883
2388+287441262+286930379+285543975+283333112+280349791+276370801+271125556
2378+264768824+257889935+251009029+244243730+237548022+231095324+225193507
2368+219933891+215281645+211460139+208877540+207791750+208353887+210784396
2358+215269745+221821888+230453680+241336107+253942331+265853117+273619166
2348+275121421+271085697+264921941+260284727+258134564+257216401+256432357
2338+255526964+254574023+253589732+252513876+251464083+250820316+250880808
2328+251551715+252473705+253382334+254357405+255727299+257669437+259979537
2318+262286557+264369686+266232891+268002079+269807385+271714937+273713896
2308+275717118+277561168+279068330+280157964+280890250+281406057+281846340
2298+282299741+282783014+283270898+283733432+284118896+284366691+284514345
2288+284703127+284977332+285181424+285154997+284917432+284589346+284251657
2278+283933662+283646148+283384174+283118494+282798429+282406981+282031887
2268+281809944+281780838+281868453+282000188+282165797+282365226+282550859
2258+282621790+282500128+282250610+282069970+282082148+282183246+282169293
2248+282009565+281906989+282051581+282379823+282638613+282650148+282458634
2238+282246452+282166092+282248923+282429946+282610255+282699488+282668607
2228+282580401+282501798+282411904+282292730+282231090+282293426+282388278
2218+282393550+282331962+282304352+282325994+282325699+282281021+282275976
2208+282376743+282493082+282464550+282279577+282101964+282076860+282201062
2198+282373055+282498736+282563682+282626748+282722975+282792600+282758797
2188+282654950+282603227+282662848+282747836+282712362+282504251+282241041
2178+282129592+282285736+282633238+282983470+283175106+283147287+282962976
2168+282787485+282782110+282982931+283263938+283402633+283247724+282888096
2158+282596407+282562673+282739468+282947127+283061412+283097077+283150732
2148+283273490+283432539+283594129+283759077+283898275+283944727+283891438
2138+283842846+283922998+284128603+284315942+284370901+284340316+284332191
2128+284361506+284404061+284530838+284839629+285266934+285602361+285711323
2118+285652467+285583381+285643472+285887388+286228017+286513809+286737874
2108+287034174+287396219+287604365+287556574+287480372+287655428+288049694
2098+288396813+288572373+288717104+288978069+289304867+289566842+289732207
2088+289853434+289972173+290102986+290248031+290380079+290450853+290458908
2078+290487701+290620689+290827234+291006674+291138270+291303096+291561695
2068+291879412+292152590+292273782+292217031+292077745+291992671+292045386
2058+292255411+292568082+292827029+292880161+292788893+292835902+293220217
2048+293793262+294211919+294346230+294390976+294535203+294698637+294707406
2038+294583395+294513213+294619895+294877242+295183128+295434420+295569148
2028+295600986+295623011+295760000+296089373+296590462+297169596+297715257
2018+298101625+298198982+297976918+297583069+297255366+297149902+297245136
2008+297385397+297435293+297409719+297434562+297594517+297847236+298056077
1998+298134854+298239762+298706264+299611013+300510195+300860028+300610614
1988+300131726+299752108+299601618+299679525+299880225+300054341+300128733
1978+300144878+300191574+300292933+300370561+300427138+300714131+301425174
1968+302226372+302493183+302119829+301652492+301545044+301753399+302092097
1958+302534277+303031050+303391182+303518359+303554094+303667979+303860711
1948+304112943+304639014+305691748+306963693+307555666+307006108+305947146
1938+305241148+305067554+305155690+305348944+305648984+306013570+306331635
1928+306593157+307050229+307949063+309033669+309825229+310430077+311220350
1918+311804877+311430374+310352205+309630653+309813399+310558228+311189277
1908+311325014+311091711+310832242+310716060+310729561+310887358+311287435
1898+312001297+312892685+313608600+314042985+314606044+315516743+316187911
1888+316004713+315306057+314832353+314799854+315001389+315285284+315641032
1878+316074791+316539309+317020042+317826877+319574196+322374737+324998865
1868+325609315+324012590+321937324+320825438+320736745+321040334+321306623
1858+321488220+321663693+321866898+322129917+322599654+323459169+324773530
1848+326655994+329258340+331922552+332876084+331366870+329018565+327596722
1838+327381860+327762278+328404218+329707861+332080314+334838161+336453745
1828+336529459+336146884+335774400+334862343+333476548+332564353+332620373
1818+333249160+333934838+334712723+335937172+337534837+338763496+338992345
1808+338530472+338305867+339064581+340976725+343473641+345426184+346060677
1798+345831689+346053649+347792199+350872460+353328839+353017038+350637138
1788+348720923+348535463+349603577+351034188+352449003+353622373+354282615
1778+354797273+356273154+359545589+364057748+367517487+367909457+365937777
1768+363398898+361365630+360778493+362261368+364856372+366557274+366925270
1758+367086755+367463415+368057372+369768573+373343172+377553029+379869983
1748+379588315+378331958+377595514+377785149+378724728+379858257+380548249
1738+381355711+384028830+388920816+392732197+391985906+388561171+385468419
1728+383425165+382520938+382893666+384227964+386391088+390215239+396414869
1718+403407452+407027980+405356897+401240953+397877597+396585401+397603549
1708+400642159+404612137+408082767+411250990+415816351+421722657+425745593
1698+426149220+424555592+421681563+418233899+416405437+417265718+419973180
1688+423898063+429926570+437859637+442971738+441453268+437100471+434476309
1678+435035853+438224919+442007176+444588331+446660709+449402340+451430737
1668+450730271+448888621+448939005+451286649+453632275+454068365+453686416
1658+454999663+459854418+468798185+478714553+481817361+478691205+477556876
1648+480266253+482736689+481023156+477253426+475360523+476572828+480716087
1638+487320980+494323409+497117965+494159488+490168181+489016767+490907408
1628+494231097+497701309+501114735+503981456+505295886+505749652+507566806
1618+511428536+514867501+515110199+513513961+512916316+514098558+516266275
1608+518409496+520116035+521583878+523099251+524618487+525963154+527306220
1598+529080645+531351670+533572693+535145305+536100960+536970496+538073996
1588+539260971+540343559+541472495+542901123+544672695+546948034+550351856
1578+555087750+559212741+559822426+558290873+558715864+562115128+565710360
1568+566646564+565838372+565636245+567292540+571985949+581135844+592838119
1558+598320895+594730431+589509107+586485389+585623159+586342241+588183820
1548+591132241+595858566+602862248+611683988+621414584+630132355+633462551
1538+630934667+628622584+630147596+634269456+637801534+640160103+643730248
1528+649813522+657246719+664532382+671959594+679930865+686770244+691046386
1518+693821456+696102154+697906642+699974879+703777874+710204788+719024162
1508+728069149+731997059+728164419+722668351+720719462+722860699+727670951
1498+732592617+735048683+735171232+735822393+739031501+744109120+748285956
1488+749431141+748140929+746110132+744525203+744056857+744935927+747213006
1478+751055528+756335865+762092064+766641559+768304708+767180678+765757408
1468+766358115+769295054+772844251+774855076+775575827+777290682+781399389
1458+786570747+788734323+786093702+781785827+778619517+777373565+777569741
1448+777731609+776696656+775054871+774158960+774534750+776119192+778900455
1438+782130022+783556146+782014223+779870341+779468455+780432008+781138494
1428+781110796+781232441+782038650+783284115+784952275+787226431+788976360
1418+788106058+784948030+782042199+780495545+779503946+778195153+776908003
1408+776706537+777937598+779527537+780133047+779956704+780346133+781994042
1398+784492072+787072009+788924306+789414155+789038992+789216030+790463166
1388+791532358+790885443+789269963+789351245+792670028+798433881+804847295
1378+810792432+816057737+820392475+823178401+824497285+825516093+826957526
1368+828404040+829718818+831726928+834490933+836385472+836327433+835462211
1358+835137292+835188093+835033880+834908687+835259911+835865003+836227501
1348+836221307+835894579+835304867+834944735+835645444+837667960+840150331
1338+841862681+842521566+842788029+843151988+843414067+843224363+842778704
1328+842715307+843416781+844783891+846736051+849437842+852740688+855863434
1318+858075584+859374844+860219397+861031869+862120407+863574019+865176345
1308+866842348+868913647+871748982+875246335+878829910+881760446+883605227
1298+884475181+884640668+884185196+883288868+882371592+881621543+880713592
1288+879118781+876602102+873595016+871031989+869470860+868476617+867161352
1278+865182887+862979435+861186221+859978265+859059597+858403496+858523749
1268+859584520+860979606+862372882+864205137+866496204+868212102+868661311
1258+868659919+869509622+871392747+873369473+874754468+875650240+876100700
1248+875913571+875522053+875870425+877341573+879669035+882511052+885278745
1238+887094298+887765501+888147554+889115353+890816916+892931987+895063830
1228+896922808+898458119+899908042+901712739+904194275+907116877+909876777
1218+912272856+914506231+916417750+917676368+918735261+920587836+923443423
1208+926384884+928428208+929441936+930039025+930954491+932618545+935052481
1198+937853439+940363647+942076344+943075180+944183761+946510806+950339410
1188+954399682+957045731+958275747+959577094+961845683+964521656+966599496
1178+967510091+967325328+966896509+967316977+968662305+969849593+970297340
1168+970792339+972145252+974167072+975958059+976670321+976577556+977260033
1158+979980474+984179579+988253074+991056119+992184464+991978197+991566289
1148+992008121+993532506+996015921+999143051+1001469609+1001023532+998054234
1138+995564764+996193934+999950582+1005018806+1009896352+1014466863+1018750243
1128+1021881270+1023105440+1022663052+1021263165+1019623120+1018409875
1120+1017748275+1017090156+1016203361+1016141425+1018286281+1022683721
1111+1027987718+1032575627+1035348610+1036000884+1034946027+1032831443
1103+1030510800+1028952107+1028935405+1031079078+1035459328+1040917818
1094+1045301687+1047024893+1046308038+1044572584+1042984106+1041797514
1085+1040785595+1040419687+1041888817+1044672377+1046051040+1044929863
1077+1043785374+1044795901+1047015150+1048659510+1049056455+1047873134
1068+1045302730+1043350919+1044124420+1046700669+1047854275+1046338102
1060+1045230774+1048802658+1057707907+1067850897+1073741823+1073299504
1051+1069237701+1065539023+1063721034+1063210865+1063601129+1064800943
1043+1065754267+1065144722+1063405301+1062221006+1062256915+1062574666
1034+1062555459+1063050179+1064274698+1064894056+1064220000+1062961730
1025+1061369076+1059664381+1059687624+1062391573+1065417657+1065915926
1017+1064189102+1062865694+1063393679+1064801361+1065670619+1065735060
1008+1064981044+1063009678+1060220829+1057825933+1056317414+1055109528
1000+1053722306+1052509409+1052201261+1053043726+1054156761+1054140546
991+1052740102+1051367007+1051267562+1052313859+1053592380+1053873805
983+1052052893+1048008071+1042624879+1037124635+1032683980+1030227636
974+1030161107+1031958984+1033965285+1034205860+1031983549+1028364413
965+1025053077+1023311986+1023535163+1024779724+1024584105+1021112014
957+1015740374+1011453514+1009106427+1007270832+1004927086+1002016522+998237814
947+993711563+990142254+989126229+989659224+988697550+984426348+978220455
937+972834688+969800810+969101840+969945419+971259362+972508655+974264847
927+976714024+978058030+976344079+972247063+968138913+965421047+964464452
917+965546101+967641826+968412474+967310435+966121477+965613395+964675382
907+962993025+961714783+961359104+961363349+961500791+961808452+961682980
897+960639954+959235473+958481945+958728226+959175556+958428429+955956636
887+952746484+950359939+950118042+952586565+956378495+958276582+956234442
877+951764837+948154678+947000029+947503866+948327681+949098746+949897578
867+950072530+948920385+947176720+946422982+947207966+948794983+950268149
857+951118478+951001496+949756448+947799139+946054012+945041954+944388984
847+943659743+943095014+943409355+945073966+947634487+949802239+950532942
837+949435009+946174613+941195465+936943122+936111374+938665145+941751286
827+942715396+941987477+941968409+943227445+943933234+943125912+942236473
817+942945324+945113215+947237333+948180844+948056486+947840824+948554408
807+950556324+953187968+955165180+955465882+954116378+952332489+951548341
797+952124552+953282959+954126051+954097797+953361527+953851377+957576500
787+962818909+964795078+961857652+957758827+956133048+956689426+957612965
777+958704426+960588735+962518625+962819675+961500026+960766609+962040259
767+964164029+965274488+964654713+962516607+959578764+957117201+956576341
757+958374914+961257363+963608973+965088959+966334286+967196376+966845639
747+965747636+965219790+965256464+964789650+963673414+963097899+963882604
737+965558627+967533752+969717092+971880390+973126412+971842811+967238200
727+961471911+958090706+958311587+960176131+961097722+961332521+963235688
717+967413569+971732092+972584300+968223396+961826058+958495584+959457468
707+961529045+961629882+959478275+956615243+954485975+953487695+952797355
697+950438507+945842874+942111557+942592429+945702161+945924017+941038120
687+934680031+930099221+926503467+922155855+917547556+914856412+915469854
677+919024202+924325625+929065798+928084499+915900482+894293948+876813240
667+878371238+893572013+905632159+907325371+902415814+898570925+899801568
657+903769354+905229716+903104066+901772030+903794546+906458201+905921030
647+902349146+898683106+896076445+893655870+891445529+891107875+891910674
637+889677855+883320323+877423620+875494148+876215456+877245538+878011732
627+877743738+874655509+869446921+866527102+868767993+872666745+872355605
617+867729630+862974216+859613470+855953206+851575183+848468025+847264871
607+847020747+848308663+851688267+855316938+857795203+859231139
##END=
