##TITLE=<SNM>
##JCAMP-DX=4.24
##DATA TYPE=INFRARED SPECTRUM
##DATE=3/5/2025
##SAMPLING PROCEDURE=Instrument type and / or accessory
##ORIGIN=Admin
##XUNITS=1/CM
##YUNITS=ABSORBANCE
##RESOLUTION=4
##FIRSTX=4497.3318
##LASTX=599.83466
##DELTAX=-1.4281778
##MAXY=1.7521054
##MINY=0.19860859
##XFACTOR=1
##YFACTOR=1.6317753e-09
##NPOINTS=2730
##FIRSTY=0.21966566
##XYDATA=(X++(Y..Y))
4497+134617594+134668660+135215905+135569811+135461744+134978604+134221992
4487+133339671+132626262+132492791+133175051+134241480+134703260+134055299
4477+132890237+132136976+132182690+132997792+134427587+135943496+136685324
4467+136194805+134852092+133471581+132705234+132782134+133471526+134278345
4457+134848558+135062444+134749075+133773873+132552586+131934778+132345877
4447+133426113+134523326+135049641+134550073+133177325+131966740+131925610
4437+132939640+134007238+134283751+133579100+132261508+131039700+130463771
4427+130358197+130053841+129310096+128582669+128253055+128145609+127997170
4417+127933439+128217376+128735500+128976901+128600340+127920764+127589588
4407+127788662+128101886+128236435+128380536+128702416+128960857+128817057
4397+128222107+127375400+126538984+125999519+126024074+126630540+127410192
4387+127839454+127839070+127707215+127543928+127210122+126781874+126472029
4377+126190804+125728211+125146967+124557323+123929726+123462886+123541183
4367+124066101+124448041+124352796+123861373+123081146+122289167+122137459
4357+122935639+124027619+124582070+124605046+124560281+124576600+124618908
4347+124776268+124918835+124722883+124257085+123950948+123982672+124193034
4337+124405761+124460954+124241552+123868195+123586477+123481378+123532170
4327+123771699+124157949+124444060+124411377+124211626+124187975+124284846
4317+124023930+123217869+122278546+121713201+121748943+122379444+123263565
4307+123741919+123504893+123042236+123048299+123710004+124756900+125707984
4297+125956736+125236807+124148616+123718359+124361864+125660672+127000664
4287+127934772+128144760+127592373+126649662+125775514+125148063+124748663
4277+124576445+124555569+124464826+124274015+124347235+124945646+125706176
4267+126067195+126090125+126330202+126934157+127378778+127199556+126592634
4257+126105129+126018038+126253969+126649608+127061775+127403051+127719489
4247+128073321+128368071+128449545+128285391+128002841+127880447+128188931
4237+128878843+129562492+129836220+129508221+128714406+127951219+127689472
4227+127888392+128129482+128074216+127627786+127019841+126815589+127381390
4217+128289993+128738642+128551347+128311316+128533841+129085580+129461566
4207+129428902+129292125+129493354+130009415+130345495+130160483+129644587
4197+129186423+128907399+128677513+128474429+128542170+129089187+129914827
4187+130581746+130935249+131122279+131185664+131088007+130994132+131067479
4177+131200731+131305803+131532930+131942696+132336407+132565508+132668378
4167+132674332+132588456+132506388+132446812+132210798+131730288+131386254
4157+131568499+132041393+132206287+131938112+131715486+131933482+132464317
4147+132873042+132812936+132301405+131750899+131595940+131859139+132224377
4137+132474262+132668981+132952845+133321535+133589163+133607034+133465161
4127+133318814+133096955+132647439+132094002+131761830+131822922+132210871
4117+132744383+133215925+133487589+133567438+133541969+133456778+133287839
4107+133031754+132880438+133255959+134417707+135939241+136842328+136518329
4097+135391456+134420017+134075983+134125478+134240329+134374760+134586993
4087+134855251+135092908+135214088+135200034+135040418+134606225+133853686
4077+133122616+132800060+132822058+132947667+133172457+133434204+133445071
4067+133251229+133296012+133553001+133366354+132536194+131814722+131881211
4057+132428210+132727954+132677419+132736109+133075431+133408754+133612751
4047+133934202+134483246+134973345+135108907+134889194+134413104+133714041
4037+132918938+132302217+132068853+132255563+132801238+133474467+133874406
4027+133863046+133881648+134472681+135551885+136441156+136605511+136174140
4017+135696433+135482282+135366499+135115153+134768033+134487721+134357619
4007+134407899+134603833+134840585+135130230+135623753+136248848+136577339
3997+136320506+135750878+135393694+135485213+135895800+136331948+136521215
3987+136482459+136599895+137134082+137765414+137952599+137672479+137466647
3977+137745717+138308222+138630321+138494229+138160778+137940846+137848861
3967+137844944+138180430+139109224+140290787+140932064+140659021+139837271
3957+138978053+138366930+138270233+138996819+140621023+142662060+144092623
3947+144238532+143759876+143794969+144261772+144097472+143005711+141756361
3937+141146800+141741312+143788267+146468242+147997959+147541274+146359043
3927+146159485+147162675+148204293+148418079+148391433+149236030+150907300
3917+151836002+150543495+147572477+144929659+143885932+144285451+145854718
3907+149186143+154716669+161131333+165815070+167332513+165920835+162012632
3897+156706229+152541402+151821245+154322610+156838678+156707490+155929801
3887+157597281+160733585+162174211+162210611+163072093+163404493+160878015
3878+157693951+157444377+160412710+164874980+169570844+172647152+171877792
3868+168873132+167499717+168231600+168034352+165151219+161610939+160410847
3858+163388841+171331012+182542813+188981074+183497586+172465282+163752801
3848+159616228+159811796+163169457+168134565+173657082+179216127+183343568
3838+183727527+180567772+176804144+173981830+171464100+168930134+167272315
3828+166991912+168001039+171325095+178140813+185724539+188071266+184999469
3818+181718296+179163381+174949571+169923097+167253869+168541846+173327129
3808+178998971+182562976+185051283+189413888+194154315+194736837+191729658
3798+189020871+186940521+184242309+181901792+181720086+183990598+187975673
3788+193001453+198376582+203361086+208368292+215113311+224155872+233410658
3778+240995024+248214133+257380760+269240631+282927242+295774853+304469910
3768+308794472+311040401+312307466+313517293+316979002+323789625+331810768
3758+338647434+345742898+356873151+374342713+396309465+415421009+426268686
3748+433553800+442843580+452293934+456530793+458127409+464324662+477573327
3738+495704328+514385396+529618526+539458263+544400979+547040346+550619528
3728+557137309+565852000+573726339+578473451+579626003+576842060+570618763
3718+563600336+558975043+558422857+561218817+563698266+561411792+554281371
3708+546274401+541539489+542264962+547108031+551622280+552823998+552670254
3698+554220882+558007978+563243499+569664921+577134974+583479616+584567660
3688+579705815+573796691+571087301+572473739+577336971+584509325+592966680
3678+601687105+606783127+604057447+598003199+595314995+594305193+588567711
3668+578443389+570082576+566189039+565449650+565685946+566191231+567699414
3658+569955643+570862877+570201583+571573555+578054261+587657520+592423954
3648+587297760+577962468+571273774+568870193+569075514+569557640+569669560
3638+570808341+573712495+577126975+580596903+586245732+594975874+601473712
3628+599285715+592390459+588598687+590772328+597600008+605194291+609445579
3618+610111658+610732296+613576984+618110629+623360724+628249636+629903162
3608+625995744+619240424+615034796+615583073+619105126+622829615+625911365
3598+629171882+632531899+634559466+634705941+634661013+636816207+641558936
3588+645879041+646511259+644388135+642272902+640832112+638978707+636111081
3578+632990684+631227721+632337426+636539913+642535535+648781661+653945771
3568+655551300+651118982+642700785+636071193+634509570+636168064+637256875
3558+636713054+636359833+637343518+638400112+637541205+634725593+631978142
3548+630651902+629832810+628055529+625252775+622028859+618821746+616535345
3538+616142674+617195250+618147522+618334615+618296042+618423816+618619968
3528+618872665+618960039+618087836+616136318+614451232+613976814+613652303
3518+611981938+609269407+607078269+606544566+607806554+609635632+609616016
3508+606711460+603144077+601576865+601556008+600717447+598697513+597256760
3498+597142173+597251828+596868071+596868144+597959147+599203748+599412648
3488+598961607+599086348+600010603+600536635+599277131+596315848+593463125
3478+592144008+591586817+590344664+588894925+588739354+589568747+589477136
3468+587828030+586102106+585617715+585848204+585522890+584438681+583346071
3458+582697343+582411844+582195163+581477946+580174024+579514813+580458573
3448+581756578+581570068+580054762+578222544+576050802+573519520+571506564
3438+570308499+569051186+567232994+565427076+564359742+564332164+565162215
3428+566005306+566010456+565508057+565403552+565336743+564018028+561522799
3418+559420752+558509026+558046515+557087668+555538830+554219202+554111117
3408+554973348+555310314+554642336+554236808+554641313+554710350+553851479
3398+552999184+552843321+552939132+552556397+551296930+549441553+548004635
3388+547494163+546994832+545545751+543617172+542197897+541414821+540984600
3378+541032196+541753175+542968371+544355064+545748222+547099082+548383461
3368+549495906+550194019+550353608+550082428+549433882+548263505+546477165
3358+544217465+541870355+540025863+539233400+539554184+540483553+541461722
3348+542175323+542363513+541890920+541012946+540166202+539612811+539426813
3338+539500379+539451103+538900634+537909388+536862291+536141348+536058869
3328+536593960+537027578+536388968+534558722+532620427+531850428+532405134
3318+533197854+533238217+532738046+532545510+533033444+533898597+534507181
3308+534277314+533191936+531920049+531010953+530303051+529502734+528786795
3298+528594880+529103306+529959108+530523202+530537886+530461142+530822472
3288+531496221+532030874+532418942+533084034+534251891+535627041+536620369
3278+536735248+535813149+534148810+532409152+531114655+530156028+529293942
3268+529009941+529945995+531399423+531635939+530209650+528623006+528116990
3258+528203378+527891762+527188498+526807297+527136739+527878868+528329580
3248+527818817+526133731+523741034+521536199+520353695+520362900+520896530
3238+521368574+521968977+522797639+522999015+521805187+519806842+518119710
3228+516992947+516082755+515293360+514658183+513996926+513035012+511638895
3218+510145943+509377295+509650338+510072340+509621883+508420495+507212823
3208+506247730+505233581+504017873+503014719+502871349+503606428+504341470
3198+504156751+502933299+501180747+499580588+498677117+498362688+497801078
3188+496388305+494643058+493680340+493838540+494172657+493464207+491509877
3178+489198016+487452185+486331156+485238144+483882829+482647944+481827244
3168+481122045+480296451+479672452+479521776+479487586+478987927+477869309
3158+476447988+475134460+474160600+473461537+472559089+470800620+468227953
3148+466007922+465359742+466211562+467346873+467534588+466310954+464245032
3138+462478892+461530748+460841438+459840037+458801451+458164631+457787192
3128+457313504+456656922+455926738+455227565+454607000+454049919+453403566
3118+452374294+450901433+449545606+449053836+449463382+449991497+449784824
3108+448570833+446795926+445323211+444761492+444934194+445111827+444731941
3098+443789203+442691187+441943762+441863912+442309694+442632560+442174542
3088+440961903+439673761+438855618+438455716+438151551+437784852+437434736
3078+437250272+437160561+436764091+435703443+434146386+432707203+431836753
3068+431364379+430746371+429738285+428525025+427222784+425850117+424827969
3058+424741435+425474651+426252577+426523355+426218278+425435823+424420541
3048+423494862+422701156+421860001+420951526+420045973+419060571+417965697
3038+416999691+416456564+416466791+416928974+417363651+417059413+415738616
3028+413876116+412204947+411139258+410613920+410190091+409410668+408266079
3018+407154182+406349847+405823048+405513295+405386216+405267940+404912491
3008+404190087+403150551+402015532+401034149+400249173+399619074+399302308
2998+399344351+399209162+398304267+396940185+396058046+396003766+396192102
2988+395973996+395276102+394315648+393193488+391969452+390834652+389979580
2978+389398246+388926310+388440568+388020429+387860256+387950588+387923777
2968+387324909+386036219+384444936+383187806+382642159+382631237+382616407
2958+382123980+381055807+379786221+378938966+378865034+379263074+379345151
2948+378450228+376640730+374751674+373686715+373594484+373862778+373888859
2938+373609241+373276402+373003177+372628332+371907243+370799802+369599071
2928+368738958+368461970+368650160+368855408+368506169+367380611+365953738
2918+364984298+364745847+364909344+365054869+364999421+364717282+364201258
2908+363423698+362410024+361343677+360464753+359847255+359433436+359199185
2898+359064179+358776781+358119250+357144623+356112357+355257906+354630766
2888+354103893+353543781+352936256+352317699+351690814+351073829+350553349
2878+350221095+350056757+349899799+349623615+349322153+349145652+348951509
2868+348382520+347359239+346259616+345548864+345403960+345649497+345841303
2858+345486293+344484088+343367808+342815586+342881445+342966700+342586412
2848+341888116+341325739+341062157+340829732+340311079+339548202+338844245
2838+338308606+337801714+337328975+337090560+337119015+337238058+337302712
2828+337151999+336560692+335559145+334508469+333653324+332935632+332299579
2818+331778916+331313191+330864049+330588851+330540379+330393611+329814943
2808+328884076+327883296+326955790+326223853+325894046+325951760+326012687
2798+325703555+325027760+324212321+323348994+322367354+321292935+320318966
2788+319588599+319072502+318687575+318379174+318077384+317667107+317002818
2778+316008577+314865814+313960042+313474482+313196326+312835105+312345345
2768+311865118+311483260+311109109+310564228+309813954+308976269+308079190
2758+307057590+306018712+305225883+304772997+304465417+304032329+303378158
2748+302649855+302052338+301598137+301120011+300520869+299889108+299343935
2738+298865991+298346625+297777856+297296259+297006907+296851993+296671018
2728+296307204+295698382+294970865+294346665+293835663+293165311+292173608
2718+291106750+290327345+289859190+289428842+288852529+288195674+287653588
2708+287414150+287480466+287532828+287196446+286531354+285993322+285828876
2698+285758268+285356740+284569152+283706921+283029117+282521896+282091292
2688+281732446+281424136+281077928+280675651+280258361+279764345+279086030
2678+278282005+277566286+277091392+276820961+276599239+276321867+276031200
2668+275829751+275752879+275758595+275752952+275589144+275143345+274431734
2658+273597118+272792034+272111235+271596964+271262592+271089634+270970481
2648+270714807+270237630+269708877+269380860+269288847+269222696+268966931
2638+268493991+267939632+267437123+266993789+266553560+266165620+266007328
2628+266169327+266465912+266559660+266289174+265785971+265264724+264832458
2618+264524257+264376339+264383882+264452006+264429414+264198395+263771243
2608+263298066+262923203+262646781+262376752+262081865+261828894+261693030
2598+261685779+261762268+261843560+261819707+261612067+261294881+261088117
2588+261143511+261349270+261415239+261173902+260752100+260394387+260176135
2578+260008090+259865852+259820577+259845908+259794606+259602380+259362303
2568+259177748+259083123+259137366+259454462+260057768+260769451+261320632
2558+261558244+261520675+261335463+261064812+260672306+260153689+259615803
2548+259153000+258750066+258394379+258150230+258027534+257900948+257637804
2538+257220970+256735082+256322778+256130004+256184339+256336421+256401677
2528+256330156+256176229+255997756+255878658+255913761+256036786+256000551
2518+255667895+255210461+254912159+254870737+254965873+255047019+255075949
2508+255094815+255116439+255080387+254903283+254582901+254251030+254038605
2498+253883527+253606137+253183606+252808176+252657117+252691051+252687818
2488+252468325+252076713+251664263+251253421+250789905+250354315+250107754
2478+250070807+250101618+250038242+249790130+249353462+248802901+248276266
2468+247941090+247889696+248018875+248064425+247808477+247266464+246686024
2458+246347213+246334319+246493707+246582122+246433272+246053642+245604244
2448+245246384+245011367+244849477+244715932+244550792+244281584+243910410
2438+243537848+243275782+243157889+243121763+243079702+243011122+242949774
2428+242898343+242834329+242775318+242748032+242729294+242701149+242714482
2418+242822201+242990100+243123480+243157779+243112540+243067063+243070734
2408+243084542+243052379+243008181+243042809+243185686+243388743+243608821
2398+243847802+244124187+244440917+244765665+245034525+245215939+245371108
2388+245579716+245799575+245898455+245848157+245778188+245800269+245885506
2378+245972697+246135573+246567931+247365928+248328793+249056311+249347088
2368+249443100+249735850+250302555+250940964+251590788+252417351+253568076
2358+255188289+257494525+260537173+264190999+268388646+272852998+276844137
2348+279647329+281228002+282295243+283396291+284029002+283357463+281313640
2338+278393743+274985235+271317310+267739333+264726419+262570402+261110216
2328+259879788+258526316+256953260+255172546+253305224+251706270+250773942
2318+250524642+250518561+250258759+249579275+248688935+247954057+247616525
2308+247641163+247810760+247919466+247851671+247591979+247239379+246927361
2298+246694699+246491040+246266725+245998102+245696494+245427342+245256594
2288+245186954+245191155+245255151+245342781+245362615+245213473+244859741
2278+244376848+243945184+243752611+243825338+243977511+243998733+243828461
2268+243482746+242972695+242427650+242116819+242170460+242392310+242473072
2258+242314652+242051764+241803706+241530425+241178246+240846448+240689343
2248+240709269+240736592+240614298+240383608+240260566+240388521+240661583
2238+240866337+240936214+240985362+241144129+241447764+241877729+242411523
2228+242968129+243405180+243702897+244056940+244647571+245434227+246300586
2218+247254976+248346435+249507407+250640508+251809679+253189012+254808147
2208+256479280+258000266+259334104+260589206+261897767+263311545+264814048
2198+266411888+268115621+269854238+271541260+273189636+274846541+276469420
2188+277937241+279160327+280165636+281055665+281892948+282680937+283396547
2178+283964732+284301862+284404760+284298191+284003195+283624497+283256957
2168+282785113+281993983+280849084+279535300+278252582+277001845+275643187
2158+274189137+272807248+271528146+270278304+269104913+268112461+267396395
2148+267042371+266976183+267296036+268935919+273067762+279657009+287521906
2138+295737686+304092435+312500002+320863591+329263524+337833858+346635411
2128+355670776+364927352+374443967+384170797+393758239+402731142+410690298
2118+417232407+422137354+425675224+428407954+430954578+434136852+438944271
2108+446138103+455939084+467997208+481417479+494592687+505406356+512434938
2098+515789805+516333991+514860984+512071490+508193184+502779336+495364439
2088+485706719+473631171+459288983+443004227+425032778+406175940+387753778
2078+370594116+354975366+341183757+329300928+319136352+310724620+304169964
2068+299176694+295256583+291937641+288739915+285557896+282736112+280470495
2058+278710838+277469835+276648825+276070010+275938384+276655290+278375771
2048+281245151+285589000+291710476+299975112+310842458+324516193+341004882
2038+360350714+382115798+404995116+427352201+447611950+464326087+476746162
2028+485096345+490087058+492590688+493334534+492601099+490576563+487537586
2018+483393324+477728861+470396334+461696035+452195529+442339318+431957841
2008+420517872+407978498+394953674+382132308+369919015+358440947+347656244
1998+337604136+328648109+321249978+315304948+309915646+304247220+298453815
1988+293249744+288930899+285322714+282273418+279747725+277645075+275786210
1978+274053803+272499540+271232584+270205632+269343200+268832382+268853202
1968+269023092+268628577+267523419+266294653+265445097+264918590+264513244
1958+264278336+264282555+264363080+264343903+264265606+264272108+264428299
1948+264770599+265499230+266814421+268235121+268528546+267118238+265011954
1938+263517943+262912245+262778134+262816853+262979400+263243914+263514820
1928+263798328+264459877+265813202+267375045+268398271+269119177+270119281
1918+270749326+269914691+268175015+267234743+267845811+269306709+270435080
1908+270614174+270108214+269580081+269425442+269594144+269884866+270288769
1898+270994096+271934880+272610730+272897598+273526748+274838249+275755563
1888+275186155+273704856+272548250+272058745+271923209+271923940+271988959
1878+272065557+272135891+272286841+273042339+275382508+279593853+283832484
1868+284962316+282215924+278207727+275543576+274712795+274832295+275029525
1858+275008576+274874685+274811200+274931412+275377833+276371216+278132571
1848+280976163+285008505+288864200+289686415+286751085+283024478+281149522
1838+281122583+281566045+281911650+283245031+286734666+291343996+294143517
1828+294066992+292941087+291811420+289962709+287485050+285767199+285494083
1818+286028462+286618070+287420159+289078470+291489375+293428364+293819756
1808+293050670+292470504+293219353+295704336+299261803+302202978+303195941
1798+302886498+303391637+306326912+311171936+314588680+313309415+308948764
1788+305799455+305693818+307520612+309686363+311726241+313422687+314261613
1778+314746516+316771015+321897318+329347427+335206765+335779881+332199859
1768+327770390+324488103+323722524+326058055+329767567+332019924+332606300
1758+333213642+334055966+334981646+337649832+343592598+351161202+356148556
1748+356662534+354885654+353609932+354147215+356417946+359108231+360632523
1738+361768053+365495391+372439083+377431221+375347949+369389988+364010366
1728+360205955+358282455+358464690+360140644+363242631+369329425+379401075
1718+390339632+395038856+391030184+383622776+377847817+375625558+377375516
1708+382521910+388907974+393907783+397984834+404281223+413194842+419856651
1698+420874051+417857137+411759750+404598208+400643779+401586079+405894423
1688+412394890+422202008+434558050+441530453+437562107+429702415+425219580
1678+425985160+430771064+436241967+439896725+443299552+448181341+451609482
1668+449991789+446483324+446428277+450326125+454225799+455218653+455521466
1658+459189994+468736890+484763397+502279530+508224415+503551198+502313574
1648+507592234+512365682+509871549+504013490+501480821+504091221+511468713
1638+523017608+535635260+541730163+538483709+533726480+533994920+539742958
1628+548206120+556989263+565992448+575082203+582494214+588301024+595846616
1618+607156073+618626616+624077101+624090470+623454381+624064609+625191993
1608+625895512+626332308+627507909+630101433+633922500+638663840+644539651
1598+651717886+659637922+667266614+673949463+679949175+685930697+691982424
1588+697611090+702483491+706522116+709639956+712240055+715797905+722114238
1578+731455265+740759838+745761254+748190259+753582519+763623413+775285469
1568+784903375+793019928+802407272+814835895+832152333+856946166+886249025
1558+903207567+902181217+898258312+897796677+898860504+898931513+896657970
1548+892790805+890519015+892796284+899991176+909349663+913357532+903493796
1538+885971562+873522411+868328934+865692599+861111541+855535475+852690787
1528+853306056+855309881+857769057+861906087+866967408+869041731+866869807
1518+863151455+859041382+854381060+850627569+850130503+854551205+864219299
1508+875576571+877822646+865493524+851059251+844097624+844495481+848833558
1498+852737981+852547599+848795935+846084353+847687179+852395280+855157634
1488+851958411+844788431+838522068+835835180+836291043+838059631+840311842
1478+843765808+849067553+855386515+859735259+858096636+850755415+843428440
1468+840362615+841451061+843709483+844370849+844624204+848063559+855881463
1458+863796457+863555084+854756489+845549518+839864892+837252008+836320922
1448+835418109+833384259+830592536+828103553+826510371+826553619+829281126
1438+833803302+835560858+831385621+825363700+822363332+822158267+821782180
1428+820253651+819238552+819544506+820346942+821751789+824976874+828721452
1418+828459842+823119963+816969976+813025227+810835405+808975206+807494674
1408+807625223+809357137+810511552+809460802+807687393+807472684+809047969
1398+811485667+814140631+815568052+813673809+809234843+805955479+805899738
1388+807261044+806685444+804001843+802683055+805144203+810414389+816262147
1378+822061323+828605003+835526450+840493749+842108994+842039519+842492021
1368+843793350+845536660+848031926+851193233+853410525+853198227+851066118
1358+848475735+846361524+845187969+845224423+846217460+847128674+846859832
1348+845542505+844581832+845227638+847736565+851769418+856513534+860350162
1338+861800596+861368914+861163556+862484682+864889140+867447160+870015407
1328+873045143+876725945+880813516+885043910+889371833+893866539+898509621
1318+903086880+907298791+910940654+914020213+916893173+920155077+923895126
1308+927216790+929244869+930413675+931953528+934263891+936606106+938389524
1298+939893068+941400192+942380006+942073540+940442661+938043463+935295938
1288+932352408+929522843+927330828+925939570+924853461+923522911+922001980
1278+920575947+919091178+917332452+915776674+915340024+916538637+919185199
1268+922513219+925417811+927078716+927504407+927232496+926790806+926711688
1258+927478692+929118849+931155110+933001136+934248330+934770892+934693235
1248+933994026+932408879+929949411+926967453+923657771+920179258+917114164
1238+914786487+912363546+908774209+904354237+900558228+898192197+896840242
1228+895953793+895580920+895779849+896149434+896463205+897053928+897927665
1218+898276429+897718289+897269805+898086487+899905044+901655003+902993954
1208+904328449+905899350+907701981+909798951+912163667+914587120+916942777
1198+919231955+921462250+923674719+925844671+927773176+929373007+930968089
1188+933123430+936099616+939327769+941815437+943468744+945103787+946928919
1178+948578793+950461931+953170590+956081173+958243088+959870461+961701730
1168+963772692+965647867+967068640+968093163+969030019+970165732+971807715
1158+974389624+977846804+980983785+982184808+981281995+980254331+981340439
1148+984738518+988744341+991884535+993887191+994865763+995102315+995431208
1138+996669490+998657315+1000204254+1000262698+999453249+999817867+1002396196
1128+1005815314+1008340751+1010465263+1013723368+1017554152+1019534964
1120+1019010137+1018494954+1020457137+1023763678+1024808510+1022242308
1111+1018961702+1018676349+1021901799+1025858821+1027761757+1028051712
1103+1029526838+1033543400+1038015387+1039560792+1037577422+1034940796
1094+1034592689+1037214631+1042026397+1047703645+1052504817+1055099510
1085+1054988394+1052097024+1047651410+1044351517+1044152296+1046524537
1077+1049389388+1051471674+1053141564+1055827795+1060516901+1065888925
1068+1069503393+1070625079+1069837473+1067489560+1064493575+1062540524
1060+1062247062+1063029846+1064783311+1067538433+1070128086+1071049382
1051+1069804964+1067014410+1064816478+1065845604+1069818625+1073000534
1043+1072784218+1070600021+1068720098+1067452740+1066684421+1067194198
1034+1069274220+1071544037+1071891268+1069759378+1066401698+1062789130
1025+1058841313+1055037998+1053200519+1054423825+1057953037+1062351604
1017+1066462480+1069637376+1071727771+1072964518+1073741823+1073720053
1008+1071452280+1066260337+1060116122+1056460159+1057021367+1060415866
1000+1063778806+1064841536+1062805787+1058636978+1054428647+1051702673
991+1050142950+1048254552+1045732475+1043982224+1043763498+1043759626
983+1042559187+1040795932+1039535953+1038310164+1036225467+1033774254
974+1031836106+1029601573+1025723669+1021016884+1017704499+1016255015
965+1015009428+1012704836+1009646390+1006415022+1002811148+998716344+995116341
955+993130926+992345805+991160488+988713438+985353933+981477125+977422209
945+974211443+972770945+972396319+971200044+968426220+965519071+964415429
935+965236713+966398653+966835083+966966801+967221032+967204449+966514737
925+965218230+963856340+963240121+963640828+964384162+964793197+964810584
915+964318485+963217109+962188860+961762146+961068197+959033105+956102578
905+953585688+952131821+951473961+950844154+949560505+947852042+946933449
895+947668382+949487816+951057475+951825721+952398910+953197328+953224723
885+950972146+946787046+943292462+942533713+943612735+944161816+943600827
875+943509289+944844588+946398540+946264557+944029295+941299961+940153144
865+941450892+944298867+946454135+945856691+942900595+940624568+941186653
855+942973139+943121294+942055130+942444294+944451406+945488494+944431974
845+943064019+943164178+944358261+944980982+944093656+942625836+942398635
835+943725824+944570632+943034067+940102736+938421887+939104075+941103370
825+943136271+944795495+945811982+945744260+944816827+943998758+944041714
815+945205480+947675030+951129361+954312585+956257819+957364237+958063081
805+957669241+956037340+954453800+953663784+952907738+951632636+950414226
795+949727655+949425354+949610694+950648367+952403001+954575948+957345097
785+960687361+963703143+965582848+966436130+966190592+963836469+958923741
776+953223554+949875957+950618560+954366938+958902117+962932852+965470928
766+965264036+962621126+959718433+957798695+956011551+953861616+952589364
756+953054286+954534087+956391656+959189661+963162171+966658655+967603986
746+966049011+963739379+961981530+961415719+962683880+965459239+967693114
736+967567751+965268419+962381141+960597796+960291769+960552502+960543443
726+959845841+958829720+959039826+961425801+964031964+963821492+961128321
716+959165992+959155837+959011919+956890622+953478151+950638066+949669869
706+950746553+952686600+953531627+952373852+950504960+950270380+952316504
696+953919038+951178965+943424765+933727960+924628233+916586927+910774308
686+908731983+909930669+912981518+917050679+920969275+922955055+922049100
676+919106446+915903351+913100159+909064164+901992005+894600669+892957589
666+896384452+899824318+901252031+900498542+897759566+894247959+891545145
656+890092666+889564844+890028670+891040554+890974439+888649392+884580449
646+880673689+878823718+879013442+878881139+876066916+870778613+865915270
636+864868539+868107796+871784653+871524285+867357814+862905187+860686069
626+860766064+862661914+865277281+866597604+865722698+864398357+865879985
616+871027438+874429169+869000016+855895855+843829293+839156770+840551243
606+843668280+847607915+852862174+856377433+855055357
##END=
