##TITLE=<SNM>
##JCAMP-DX=4.24
##DATA TYPE=INFRARED SPECTRUM
##DATE=2/5/2025
##SAMPLING PROCEDURE=Instrument type and / or accessory
##ORIGIN=Admin
##XUNITS=1/CM
##YUNITS=ABSORBANCE
##RESOLUTION=4
##FIRSTX=4497.3318
##LASTX=599.83466
##DELTAX=-1.4281778
##MAXY=1.7283654
##MINY=0.28409579
##XFACTOR=1
##YFACTOR=1.6096657e-09
##NPOINTS=2730
##FIRSTY=0.29622459
##XYDATA=(X++(Y..Y))
4497+184028639+184612534+186356850+188010075+188334932+187327682+185999092
4487+185063364+184426925+183985222+184113399+184964941+185865343+186026550
4477+185610526+185451430+185955453+186882980+187839185+188365259+188051621
4467+187086788+186182757+185701766+185421400+185185672+185227367+185736111
4457+186440351+186824640+186714441+186375550+186034529+185745979+185690158
4447+186051026+186670765+187190211+187334810+187019117+186490674+186164372
4437+186091702+185992038+185772825+185496495+185079491+184564174+184373103
4427+184802364+185535135+186010516+186034714+185725872+185118853+184215321
4417+183307754+182820431+182835002+183155657+183568458+183701486+183193926
4407+182327610+181903459+182273177+183010891+183650700+184216543+184803512
4397+185093747+184717363+183936991+183540520+183995312+184940279+185537653
4387+185282985+184536513+184093699+184121675+183844141+182451824+180040649
4377+177634380+176493658+177138948+178813445+180156550+180388631+179608796
4367+178373760+177474414+177574300+178447319+179062411+178842939+178259377
4357+177975900+178150660+178694970+179486247+180243606+180786139+181303956
4347+181915049+182293098+182177123+181862912+181783299+181911846+181882889
4337+181473179+180811338+180230627+179938152+179831026+179709071+179605315
4327+179757153+180294651+181047399+181560661+181424467+180810523+180451877
4317+180776364+181327728+181381328+180847274+180201022+179860372+179956296
4307+180362229+180741889+180837054+180717246+180585182+180542228+180627839
4297+180730040+180510957+179887126+179404968+179608481+180288559+180845016
4287+181042696+180942662+180502699+179808420+179264924+179068317+179026419
4277+179182016+179871185+181009037+182142575+183118202+183855527+183913034
4267+183178930+182479337+182660410+183441374+183796206+183311624+182681572
4257+182726970+183352745+183863026+183973039+183980964+184182699+184500502
4247+184526496+183980112+183304199+183278353+183801150+183868210+183052030
4237+182124153+181965519+182600570+183435283+183927419+183879504+183355281
4227+182627713+182244553+182687496+183664901+184199010+183770249+182950719
4217+182586795+182863663+183471608+184181403+184888772+185416679+185600454
4207+185479128+185321347+185454726+185940605+186397545+186330504+185662664
4197+184755541+183970651+183503602+183531596+184135635+185017689+185565795
4187+185425584+184937687+184771685+185081342+185354044+185279856+185267914
4177+185729686+186346204+186507689+186208530+186132953+186894847+188321860
4167+189584705+190049328+189715195+188778597+187387243+186024328+185393146
4157+185605120+186070077+186337188+186488878+186748156+187231221+187918038
4147+188506803+188601153+188250246+187890100+187724987+187653576+187677774
4137+187895265+188254727+188684136+189195731+189640637+189738913+189526235
4127+189395652+189472395+189236963+188127809+186459551+185330419+185461151
4117+186489785+187547302+188166375+188530427+189080163+189867108+190276003
4107+189730859+188634628+188060730+188562106+189767073+190912961+191302175
4097+190602600+189230316+188119681+187769940+187837333+187827243+187756369
4087+187925055+188483012+189391319+190405420+191058060+191069465+190736350
4077+190555870+190587067+190540206+190305793+190046422+189918319+189901934
4067+189909210+189960366+190105483+190226476+190170525+190018335+189925892
4057+189839540+189706660+189766777+190247842+190934456+191388527+191508150
4047+191592687+191938392+192518362+193012905+193155190+193019534+192846144
4037+192670682+192405589+192214759+192429066+193045861+193587914+193607465
4027+193223583+192947401+192995261+193143600+193341040+193968888+195213533
4017+196522997+197023391+196382600+195096909+194008047+193673414+194154368
4007+195138512+196133357+196801290+197231439+197653128+197962822+197852401
3997+197257119+196439255+195804797+195671880+195972650+196300988+196497261
3987+196880514+197676216+198638197+199397889+199764478+199667998+199315425
3977+199315202+200034643+200942173+201208395+200816218+200401935+200195720
3967+199904892+199536230+199581091+200314972+201396614+202297646+202856620
3957+203247982+203574098+203735342+203744821+203932096+204518991+205104848
3947+205153819+204930015+205163910+205841174+206073218+205328042+204090285
3937+203257998+203531607+205105200+207322472+208830209+208844669+208157647
3927+208164053+209183245+210194198+210292640+209939345+210194068+211256288
3917+212160634+211813652+210237485+208521181+207664881+207831920+208806751
3907+210814641+214233955+218497350+222070279+224021200+224495507+223558668
3897+221275947+218728912+217471529+217928840+218738687+218420329+217788277
3887+218580406+220425423+221285038+220870255+220606070+220412056+219220104
3878+217920286+218299391+220401725+223104449+225802194+227757021+227692424
3868+226173449+225307317+225407981+224701075+222488950+220376249+220042486
3858+222176109+227201546+234505631+239305764+236653936+230036428+224548718
3848+221838032+221907332+224302770+228068140+232068128+235727910+238536056
3838+239273882+237598292+235127222+233189909+231573362+229789832+228274745
3828+227795846+228716096+231416821+236104052+241007571+242724393+241267812
3818+239908488+239301024+237448212+234196715+231717295+231836751+234989677
3808+239630399+243000797+244747465+246882551+249421069+250168578+249220889
3798+248534812+248041120+246572875+244664353+244015638+245320955+247994093
3788+251327314+255038493+258882846+262794167+267286884+272586041+277731268
3778+281834881+285473853+289686980+295108667+302147771+310508003+319026757
3768+327043988+334593095+341394508+347715283+355075800+364305812+374114441
3758+382987491+391655880+402267895+416513364+434184368+451480340+463946074
3748+472714220+481663401+491945449+500993758+507232142+512926827+520076759
3738+528509272+536687321+542950515+546880091+549517348+552152198+555317603
3728+558704517+561514330+563348238+564741943+565914621+565929952+564345953
3718+562630094+562929327+566293801+572006852+577529202+580257181+580801955
3708+582127267+586366482+593341969+600242880+603655603+603370515+601958925
3698+601131581+601700165+604995986+611809101+620536182+627103311+627525000
3688+622754972+618299988+617740032+620652453+624870746+629271445+634588840
3678+640681477+643804742+641079393+636883169+635247959+634167003+631188818
3668+628618621+629482660+633170251+636839253+638272949+637731212+637449346
3658+639362867+643468147+648448131+653848693+659677016+664359729+665645827
3648+664075345+662344155+661413019+660674805+659553782+657818742+656006607
3638+655797243+658420022+662692452+666724414+671253086+678095195+685009436
3628+686713076+683912853+680706865+678301003+676978098+677916492+681377093
3618+685274269+687637769+688609786+689407173+691414082+695496404+700517712
3608+703354816+702303261+699608497+699003884+702056720+707174601+711485911
3598+713474454+713699369+713898364+715235489+716993635+717728295+717077321
3588+715673766+714044852+712144291+709946977+708226601+708314064+710713038
3578+713927247+715633775+715468551+715424412+717367705+720907623+724193817
3568+726358248+727636126+727767209+726542283+724437098+721713230+718109177
3558+713858447+710148935+707976135+707324347+707969618+710322750+714492016
3548+718895826+721311093+721415589+720297085+718045931+714438472+711025194
3538+710188038+712537837+716296672+718922339+719193096+717961653+716538547
3528+714916297+712924792+711887382+712970486+715102258+716401761+716670296
3518+716967937+718042895+720358554+723989934+727533555+728842759+727567696
3508+725351127+723443901+721800175+720102015+718964996+719739573+722363241
3498+724441468+724124350+722831068+723053687+724770583+726096229+726202799
3488+725828064+725694684+725467695+723933427+720393657+716223428+713872444
3478+714075364+715356870+716376062+717481606+719376169+721467949+722660956
3468+723182771+724342230+726333734+727587321+726820668+724700894+723069462
3458+722471070+721117060+717563589+713482970+711828061+713317968+716385986
3448+719292853+720985310+721035966+719629004+717144344+713904881+710928548
3438+709697697+710343486+711518941+712448449+713545105+714980061+716018360
3428+715635478+713631235+711385118+710335340+709942682+709106859+708460181
3418+709155663+710464498+710878558+710881150+712285150+715266001+717895371
3408+718430961+716941202+714657611+712940048+712517545+712922645+712767344
3398+710795687+707111651+703444575+701592152+701650880+702556022+704004975
3388+706522739+709831372+712502881+713241614+711866201+709307261+706972273
3378+705813777+706038471+707213926+708285033+708062561+706415872+704621955
3368+703943062+704648468+706136524+707099432+706757874+706289899+707283096
3358+708753748+707953547+704388894+700657535+699051652+699183994+699134894
3348+698079783+697029265+696850636+697169087+698066971+700649166+704571596
3338+707199114+706756763+704268993+701481212+699030175+697091548+696042585
3328+696272980+698068675+701033085+703714592+704893454+705078155+705808445
3318+707465354+708609409+708101516+706922580+706792533+707900818+709234091
3308+710129828+709897358+707570591+703680081+700465649+699476525+700282947
3298+701649917+702711248+702899579+701893421+700093728+699088533+700805059
3288+705106668+708950225+709296226+706233541+702203504+699455344+698923753
3278+700360560+703087835+706512445+709550321+710485827+708846099+706475341
3268+705317216+705355060+705423490+704881308+703893147+702721394+701329689
3258+699779424+698570568+698378831+699711735+702628229+706144374+708150320
3248+707259620+704708974+702785529+702026504+701581709+701235635+701462624
3238+702237719+703097685+703680599+703475531+702209799+700968284+701364052
3228+702933053+702952827+699974494+695963046+693656867+693482904+694135210
3218+694980513+696482492+698595896+700314126+701044194+700914073+699452234
3208+696037549+691900794+689476047+689673783+691306993+692828153+693361966
3198+692652487+691317065+690523900+690738965+691213976+690758517+689044509
3188+686880004+685042244+683597068+682672153+682750284+683662980+684439779
3178+684436668+683603808+681812631+679085282+676430362+675393248+676363635
3168+677971813+678686181+678367359+677512577+676014301+673769221+671418903
3158+669446505+667527504+665483491+664211390+665019293+667895130+670660841
3148+671071791+669789025+669052811+668837375+667205572+663955148+660945562
3138+659405517+659317240+660468922+662297943+663528497+663181015+661382951
3128+658923767+656844800+656132876+656911156+658291753+659455285+660186167
3118+660150989+658807496+656494503+654626380+654354586+655353041+656102290
3108+655508490+654310299+654364806+656164129+657852290+657388833+654899730
3098+652079881+650042979+648473459+646608520+644694628+643981076+645216592
3088+647678442+649773925+650321661+649239519+647443380+646064339+645366931
3078+644574654+643051791+641496120+641323045+642696755+643917904+643386164
3068+641435688+639340057+637643008+636503842+636450150+637611163+638877636
3058+638740850+636910941+634610909+633215871+633019690+633443082+633924832
3048+634038882+633206984+631213331+628901598+627486267+626997334+626193652
3038+624408400+622620852+621977284+622156728+622103702+621632320+621310166
3028+621224666+620780648+619680214+618504019+618085367+618504537+618891678
3018+618306024+616678738+614803727+613553029+613085461+612750050+611864238
3008+610476605+609248458+608781741+609029134+609163920+608233931+606195696
2998+603965056+602229460+600811575+599523107+598922419+599516627+600600583
2988+600652720+599004105+596673524+595242345+595292816+596188997+596967573
2978+597238886+597162791+596591393+594892012+592089568+589500967+588412160
2968+588614636+588980151+588979151+588781712+588310478+587309986+586087800
2958+585160218+584465661+583739296+583289281+583515492+583828574+583046776
2948+580977843+578793639+577643067+577460995+577387566+576897521+576068844
2938+575057540+573887676+572752546+572122420+572227583+572431132+571632931
2928+569685935+567805851+567131697+567569234+568256756+568419055+567679359
2918+566185823+564448857+562824756+561380580+560193498+559335457+558711182
2908+558199401+557716281+557167545+556633177+556317355+556167386+555842603
2898+555001818+553531981+551770501+550381573+549706049+549457731+549186048
2888+548665788+547830890+546788518+545876266+545380149+545255879+545222368
2878+545030186+544625272+544025843+543056566+541514300+539720827+538477979
2868+538230587+538533301+538527339+537836041+536730571+535478243+534056284
2858+532563896+531295424+530325444+529564271+529091520+528933072+528777956
2848+528328607+527651380+526973301+526387573+525826321+525212636+524647793
2838+524284573+523886065+522943709+521487831+520122490+518986212+517532520
2828+515594522+513711883+512237158+511065776+510260946+510037327+510177927
2818+510220103+510043363+509730466+509190247+508365421+507448319+506562136
2808+505519319+504112728+502473112+500971725+499824301+498927972+498124142
2798+497489240+497177935+496996455+496398100+495068863+493340821+491861800
2788+490990392+490612064+490421475+490285578+490281801+490364857+490173268
2778+489375215+488075341+486647199+485311630+484065190+482892882+481887169
2768+481112518+480413851+479554921+478601678+477930265+477740638+477739194
2758+477347536+476185152+474441780+472780724+471728576+471197948+470770853
2748+470328724+470100698+470084035+469755845+468587389+466739409+464990149
2738+463928781+463432405+462986721+462312382+461531584+460866947+460367534
2728+459875934+459180008+458270311+457401606+456761778+456245110+455684636
2718+455054399+454377320+453713312+453200531+452793914+452107244+450872579
2708+449384153+448180149+447465485+447059756+446716199+446251816+445496605
2698+444385136+443075339+441821604+440826407+440283929+440260564+440401349
2688+440168509+439532348+438959543+438617467+438134273+437253941+436191536
2678+435242107+434509262+434027882+433719503+433305442+432639028+431932214
2668+431379887+430903061+430476744+430281822+430330257+430301633+429879426
2658+429023422+427884959+426611154+425300505+424139566+423443306+423379097
2648+423694178+423855737+423460672+422522908+421449949+420735471+420607757
2638+420881847+421035407+420547066+419412121+418190602+417336190+416766458
2628+416258047+415857095+415686464+415661766+415564379+415248520+414747145
2618+414186745+413584168+412854730+412083671+411589886+411556597+411696271
2608+411454508+410598022+409489331+408664172+408260998+408000756+407549000
2598+406744948+405674730+404667684+404059257+403874777+403864557+403823788
2588+403725290+403596873+403458606+403352480+403245947+402954787+402371280
2578+401689573+401159611+400760658+400383182+400105278+399984970+399805082
2568+399334552+398688429+398174464+397877823+397594624+397133906+396539810
2558+396018364+395753902+395787339+395953341+395934049+395486107+394651987
2548+393736921+393082578+392838704+392901431+393016073+392906837+392406795
2538+391625516+390940920+390657387+390698230+390728002+390523712+390171934
2528+389912174+389819823+389755207+389658117+389643601+389684815+389502113
2518+388929678+388145215+387445622+387000383+386863893+387044373+387442548
2508+387769368+387681387+387089549+386260687+385558502+385162771+385014136
2498+384904048+384653805+384302138+384038009+383877006+383584549+383053069
2488+382536919+382314151+382302302+382223060+381988813+381708835+381452297
2478+381202757+380960253+380748408+380565780+380418849+380385115+380534639
2468+380746187+380739929+380411998+379978719+379650455+379367774+379023144
2458+378737500+378715875+378925498+379078613+378941679+378584199+378260009
2448+378095895+377985104+377759818+377377603+376935215+376558072+376302460
2438+376167525+376178227+376393366+376760881+376991907+376749661+376058622
2428+375363103+375045800+375071239+375214134+375384950+375566763+375657115
2418+375570096+375377803+375229687+375186362+375174661+375054501+374740827
2408+374325248+374033977+373975952+374008982+373955475+373848016+373845498
2398+373990837+374147508+374177057+374130178+374140213+374125476+373821984
2388+373122206+372052433+370415779+367831992+364097967+359196003+353101107
2378+345905740+338012187+329962889+322144098+314755808+307949951+301843632
2368+296404597+291511668+287256735+284073908+282492594+282853722+285288984
2358+289824988+296366382+304813430+315351645+327736212+339827432+348078502
2348+349943478+345804094+339185087+334126120+331563587+329780742+327545622
2338+325069294+322938485+321256989+319774007+318519420+317915400+318126244
2328+318730412+319277519+319834105+320853408+322737121+325545749+328931255
2318+332266587+335002157+337076755+338934399+341027623+343398196+345842235
2308+348284385+350781264+353273885+355491231+357086227+357902684+358182514
2298+358418538+358930911+359696120+360547347+361328034+361914021+362355854
2288+362923067+363766222+364660033+365267016+365482785+365406690+365198104
2278+365041100+365030288+365029955+364821628+364412789+364042349+363888752
2268+363948813+364183763+364558425+364913165+365043841+364962191+364863175
2258+364841217+364853288+364910758+365083647+365365439+365689519+366019264
2248+366329421+366572443+366745592+366951437+367295994+367720719+368023433
2238+368067757+367905347+367714905+367695428+367928897+368264974+368463932
2228+368496333+368534695+368665223+368836705+369053993+369356336+369612726
2218+369598581+369325343+369101797+369191889+369542408+369917217+370190752
2208+370415001+370672132+370988102+371363060+371742239+371959489+371888504
2198+371671254+371603157+371785082+372089573+372439906+372889293+373434992
2188+373941848+374253115+374311622+374209976+374130660+374193646+374372312
2178+374555866+374666361+374734976+374861061+375068684+375266938+375376248
2168+375411574+375469969+375722842+376274688+376924439+377282993+377243927
2158+377111030+377186643+377440478+377639621+377688019+377784258+378193838
2148+378838590+379293605+379327079+379220324+379349334+379684633+379947504
2138+380067664+380214855+380468505+380710565+380842277+380918335+381034348
2128+381212940+381436707+381708391+382056835+382510665+383031963+383479090
2118+383714744+383737184+383632984+383477683+383376593+383482941+383819981
2108+384168796+384292326+384237634+384283402+384589485+385010729+385295114
2098+385369246+385346325+385335883+385369876+385475446+385688475+385976414
2088+386230582+386363888+386384624+386368812+386374589+386384772+386357259
2078+386353779+386532630+386929138+387336571+387526716+387508016+387452546
2068+387455435+387480763+387504239+387594998+387789512+387935963+387825801
2058+387483947+387141316+386912809+386724811+386566548+386580768+386842009
2048+387192972+387391744+387377451+387282619+387175457+386971093+386680450
2038+386531223+386681339+386963427+387062999+386881704+386620944+386535037
2028+386690226+386974536+387241628+387380932+387345680+387203858+387099732
2018+387085217+387034338+386811719+386506746+386381143+386555736+386866559
2008+387073219+387061333+386816570+386413470+386065284+385965750+386052509
1998+386119310+386157005+386352668+386694966+386836084+386541591+386084132
1988+385919574+386153562+386536222+386785576+386758804+386481381+386129196
1978+385884989+385817855+385920907+386116125+386244246+386267797+386370664
1968+386611872+386713110+386481678+386136825+385930127+385808412+385689215
1958+385714506+385995891+386375441+386616316+386670749+386662343+386720997
1948+386947468+387492834+388441670+389442644+389731064+388948526+387688385
1938+386798610+386512116+386505969+386507598+386588729+386869077+387174494
1928+387322833+387629546+388506138+389602721+390193670+390372299+390732112
1918+391057117+390601436+389488227+388588084+388348357+388546722+388773230
1908+388793929+388654329+388555572+388598119+388710799+388819887+389015586
1898+389501743+390259471+390883191+391139841+391435445+392120078+392738503
1888+392684588+392150220+391682467+391409228+391190015+391008276+390945141
1878+391025754+391182943+391388233+391962148+393562254+396393655+399278786
1868+400211700+398725829+396522036+395189466+394857721+394926151+395011837
1858+394998876+394830727+394601701+394572744+394987360+395926828+397363524
1848+399400723+402122703+404697011+405309511+403484156+401073296+399709510
1838+399391910+399378358+399451898+400261245+402428453+405341430+407319308
1828+407645461+407217255+406645154+405666657+404403517+403578395+403546439
1818+404042964+404725375+405594302+406863664+408454772+409746758+410120642
1808+409720911+409373096+409912537+411646763+414049181+415917453+416374949
1798+415916231+416048647+417924065+421217221+423788233+423554319+421366523
1788+419716168+419687248+420665671+421838571+423089343+424354854+425231409
1778+425816322+427120343+430091900+434299825+437541065+437942795+436278110
1768+434179998+432479913+431993794+433302998+435463838+436740086+437092790
1758+437675703+438547038+439394007+441144007+444753429+449118802+451646860
1748+451458789+450122516+449291988+449611031+450960227+452541152+453412079
1738+454140259+456735969+461750168+465905400+465609574+462671751+460173575
1728+458880886+458792682+459861012+461629749+464058531+468262902+475098493
1718+482816417+487025526+485861698+482364216+479874483+479800091+482300933
1708+486859117+492176807+496673634+500527523+505756195+512944638+519183467
1698+522075077+522634367+521602548+519692137+519069343+521036186+525117730
1688+530860812+539050525+549369676+557001654+557943048+555859414+555292312
1678+557704321+562637685+568205804+572664787+576764586+581935011+586932399
1668+589269757+590000454+592286341+596758025+600957174+602927498+604181529
1658+607418548+614142200+624599767+635782809+640017173+637689665+637209248
1648+640716581+643919237+642361048+638205482+635789919+636549832+640368802
1638+646621110+652751813+653919566+649292175+644179552+642269438+643377796
1628+645504901+647145962+648341783+649141688+648971502+648568180+649876718
1618+653275554+656279808+656460288+655265726+655155453+656509019+658361368
1608+659838019+660880983+662056512+663827916+666025155+668141448+670098293
1598+672333376+675143523+678301670+681282965+683657500+685357733+686736627
1588+688312145+690372672+692816748+695261194+697405407+699698626+703487381
1578+709729246+716831003+721004269+722106110+724067473+728685311+733766681
1568+736311550+736654663+737073241+739473919+745789102+757448488+771164995
1558+776480982+772152564+767697135+766605959+767811037+770141952+773116138
1548+776833796+781950121+788996557+797888973+808122735+817313606+820096129
1538+816306930+812800338+813196254+816439717+819792415+822030756+824305683
1528+827974388+833201579+839016498+844001888+846806776+847586908+848946916
1518+852073144+854309560+853313474+851011591+851047731+854996452+862182117
1508+869964472+872768027+867679325+860728351+857229387+857828075+861382287
1498+865614725+867767603+867453373+867257785+869186858+872662049+875187589
1488+874762346+872081580+869380447+868191439+868630828+869908409+871335885
1478+872830754+874789303+877872059+881970081+884752752+883891304+881015320
1468+879272207+879424545+879662199+878335961+876977581+878580724+883972843
1458+890066221+891074970+886345230+881319552+878933538+878874069+879904814
1448+880690055+880425741+879323826+878172292+877763119+878745948+881203280
1438+884020684+885235687+884420600+883622917+884222271+885348181+885438607
1428+884490511+883939887+884600562+886216590+888441972+890810434+891868951
1418+890356530+887550160+885517405+884521912+883775107+883014008+882911215
1408+884089411+885825784+886424991+885639675+885505704+887514094+890678314
1398+893250658+894879573+895564910+894353388+891365279+888735391+887764559
1388+887222674+885569616+884034385+885071425+888774272+893198077+896990312
1378+900270285+903327564+905648185+906511262+906134823+905668625+905967673
1368+907121725+909091235+911664987+913504079+912709655+909479893+906365663
1358+905090969+905194947+905384241+904848206+903399179+901357537+899560139
1348+898717058+898620634+898538207+898269967+898033425+897548712+896340968
1338+894819882+893906075+893710413+893582662+893147791+892518739+891857620
1328+891261375+890826208+890666464+891001504+891957302+893132831+893815428
1318+893772474+893388481+893005895+892620421+892222802+892020474+892226134
1308+892774167+893318200+893582440+893669533+893797135+893760032+893053367
1298+891631593+890068739+888816115+887711089+886267987+884144288+881408200
1288+878520070+875861077+873394117+871024322+868829082+866601701+863908197
1278+861027695+859109508+858936433+859998357+861045765+861319485+861000590
1268+860587195+860255192+859962291+859884751+860395014+861571136+863022977
1258+864338995+865530446+866820914+868175220+869376818+870361943+871194952
1248+872064324+873375528+875331263+877481104+879242139+880760041+882698149
1238+885206360+887586671+889248690+890658392+892673373+895237275+897643359
1228+899801718+902148480+904630770+906880813+909051539+911516499+914066405
1218+916088496+917272393+917925366+918945965+921336645+925141914+929127590
1208+931947512+933201395+933388985+933462821+934347005+936322069+939018387
1198+942282882+946288776+950412274+953149695+953953747+954196585+955496162
1188+957779753+959715640+960705727+961467121+962709599+964234018+965519598
1178+966594334+968085722+970418266+972692970+973382676+972886632+973560194
1168+976350122+979250620+979853826+978189215+976431512+976728783+979756735
1158+984714650+990040783+994113995+996009891+995959309+994693428+992825157
1148+991429674+991972300+994541831+997148835+997823433+996993609+997088996
1138+999901882+1004582300+1008514876+1010238956+1010375445+1009773054
1130+1008871245+1008724980+1010257248+1012773012+1015110222+1017184894
1121+1018891422+1019512846+1019636746+1021161683+1024331309+1027243730
1113+1028893159+1030277237+1032315102+1034544927+1035694610+1034405475
1104+1030462235+1025656066+1022076378+1020369702+1020506710+1022713207
1095+1026523142+1030348703+1032878538+1033766203+1033186918+1031926740
1087+1031281617+1031879416+1033284601+1035032898+1036884951+1037933395
1078+1037367811+1036730983+1039088114+1044865559+1050304779+1051764471
1070+1050166957+1048838275+1048921220+1049275664+1049282033+1049418967
1061+1050041650+1051507340+1054742137+1059625845+1063648994+1064656707
1053+1063756157+1062890932+1061792350+1059650729+1057299152+1055814947
1044+1055487905+1057322036+1062600920+1069679275+1073741823+1072145050
1035+1068352814+1067467372+1069391780+1069472430+1065541039+1060276448
1027+1056543978+1054700961+1053909276+1053574310+1053723093+1054875072
1018+1056947819+1058409214+1058203998+1057804453+1059164832+1061480268
1010+1062145905+1060474999+1057966566+1055240402+1051540444+1047302377
1001+1044495860+1044262205+1045699013+1046862766+1046325399+1044067209
993+1041345044+1039756936+1040317336+1042927154+1046012502+1047170405
984+1045200155+1041407920+1038532158+1038228889+1039441595+1039361464
975+1036477925+1031887637+1027414509+1024054923+1021533234+1018342575
967+1013519595+1008391717+1004813362+1002221614+998566091+993266545+987367126
957+981894579+977435596+974326550+972387108+971014806+969778401+968744471
947+968349444+968716551+968708775+966473026+961715069+956588672+953644553
937+953510582+954837338+955877637+955682493+954300859+952620770+951821680
927+952349124+953451483+954096828+954076018+953836957+953538576+952649875
917+950868326+949155873+949045230+950819151+952925150+953434079+951781318
907+949055968+946749567+945206930+943635411+941657459+939868356+938830575
897+938739631+939785410+941575698+942820176+942607554+941005893+938063108
887+934083505+930879590+930371771+931942772+933009140+932160134+930082203
877+927647607+925291512+924195818+925771411+929420343+932376533+932552792
867+930474861+927954208+926323072+926140222+927164894+928435144+929124628
857+929178098+928930446+928478690+927729960+926935979+926789418+927834160
847+929708726+931067180+930773538+929191725+927667232+926685736+925604483
837+924095839+922525134+921262735+920691374+921324055+923299193+925891682
827+927970501+929376426+930790201+932137768+932479622+932096296+933228945
817+937190033+942041452+944510041+943282819+939460812+935120397+932463107
807+932897830+935866906+939228047+941273910+941785506+941277687+940514515
797+940629084+942287918+944493674+945185083+943391462+940079126+936924312
787+935000052+934514155+935108177+936107077+936834627+937098349+937538922
777+939040753+941152084+941997831+941003523+940288267+941745736+944044880
767+944251947+941917330+939478142+938575444+938118874+936359246+933544212
757+931673200+931924110+933198063+934212663+935805881+939501692+944571509
747+948023224+948008486+945804656+943820779+943181433+943527952+943922683
737+943844256+944018293+945695568+948470611+950134333+949473584+947526884
727+945444288+943125667+940805713+939929972+941385961+943930386+945112136
717+943423752+939258114+934501342+931657573+932195830+935191937+938348603
707+940363140+941203184+940375582+937048359+931955066+927271908+924779621
697+924944401+926883398+928651839+928059668+924085101+917915887+911921525
687+907775809+905450671+903317418+899609536+894371755+889485529+886650202
677+885264866+882828492+878413129+873252961+867752051+861936540+859605033
667+866033895+877929380+888034280+892900288+891285444+884298626+876521826
657+871969677+870154506+868662969+866949035+865224585+863069189+861384879
647+862237735+865160080+866976141+865953394+863368681+860902462+858695744
637+856477546+854791606+854488929+855405550+856183238+854774054+849969737
627+843700544+840477670+842766964+846749677+845843573+839060118+832389233
617+831665904+835091328+835994544+833426124+832019903+832987180+833532250
607+833631044+836066233+840244090+841593360+837018846+828143834
##END=
