##TITLE=<SNM>
##JCAMP-DX=4.24
##DATA TYPE=INFRARED SPECTRUM
##DATE=2/5/2025
##SAMPLING PROCEDURE=Instrument type and / or accessory
##ORIGIN=Admin
##XUNITS=1/CM
##YUNITS=ABSORBANCE
##RESOLUTION=4
##FIRSTX=4497.3318
##LASTX=599.83466
##DELTAX=-1.4281778
##MAXY=1.7851126
##MINY=0.25798437
##XFACTOR=1
##YFACTOR=1.6625157e-09
##NPOINTS=2730
##FIRSTY=0.27135459
##XYDATA=(X++(Y..Y))
4497+163219264+164477313+166158023+166836882+166327066+165632862+165450930
4487+165555816+165503023+165358127+165547749+166111738+166489816+166251955
4477+165560387+164747638+164053703+163858148+164457523+165597924+166731405
4467+167483026+167636670+167204276+166661297+166568565+166929524+167289192
4457+167334401+167121100+166802876+166401996+165966591+165702612+165706448
4447+165741135+165499277+164927114+164217547+163683387+163617204+164063007
4437+164728439+165246968+165398102+165107683+164580173+164319224+164622335
4427+165158987+165393083+165322060+165351477+165476690+165130359+164011290
4417+162680604+162053767+162467392+163438697+164182932+164201091+163499376
4407+162480532+161664933+161320807+161258066+161082641+160639205+160129406
4397+159893087+160132991+160741096+161367934+161791276+162128877+162529147
4387+162846940+162813831+162384179+161740527+160997277+160071953+158957635
4377+158075817+158020067+158747111+159428032+159441136+159068507+158840847
4367+158753995+158537341+158119897+157481874+156575981+155715244+155580190
4357+156490761+157933287+159041923+159352886+158942559+158102043+157126615
4347+156272332+155699129+155485988+155716284+156370011+157179658+157827685
4337+158231989+158476607+158544457+158307296+157699281+156762806+155731575
4327+155177105+155634290+156831839+157741801+157709964+157147015+156779209
4317+156696785+156584048+156487265+156755080+157310716+157575071+157259089
4307+156710964+156296729+156038236+156039024+156559310+157413432+157923482
4297+157702471+157036053+156435835+156181841+156255661+156461882+156656505
4287+156886227+157220960+157528840+157552592+157173976+156541294+155963771
4277+155709060+155913345+156587992+157520952+158247907+158428852+158268773
4267+158306364+158781332+159393650+159658184+159405624+158929401+158646403
4257+158683348+158890089+159083117+159079137+158802395+158577997+158868220
4247+159567712+160107447+160308129+160477351+160729229+160865091+160835692
4237+160808427+160845480+160778920+160354235+159522628+158682864+158427741
4227+158936805+159801987+160431836+160487282+160124835+159971119+160542117
4217+161532818+162101575+161917654+161453674+161234475+161267333+161279595
4207+161164097+161067422+161168453+161424150+161611513+161640141+161581057
4197+161358541+160796703+160034631+159475088+159286094+159344873+159590048
4187+160027102+160497589+160730610+160486798+159690433+158801069+158809351
4177+160219843+162199702+163361113+163270622+162630913+162203090+162134237
4167+162216159+162301540+162341713+162243603+161891267+161328246+160824739
4157+160677118+160905407+161186057+161204556+161100442+161292215+161767022
4147+161978818+161646003+161166338+160973597+160916664+160599266+160102051
4137+160092299+161131149+162836364+163987592+163852143+163132753+163040685
4127+163761222+164434147+164355918+163610787+162715166+162130974+162038762
4117+162281589+162578802+162862840+163273705+163793274+164082618+163838322
4107+163191084+162550336+162152898+161993141+162052548+162250379+162308406
4097+162057585+161787923+161919572+162371685+162559335+162044248+161055824
4087+160324872+160440638+161367235+162536282+163360969+163627153+163449739
4077+163025053+162529972+162145243+161995830+162075636+162325758+162708515
4067+163112407+163339261+163300684+163077523+162744313+162328627+161924986
4057+161643888+161478036+161393837+161470435+161768115+162117099+162216858
4047+162013720+161820531+161886230+162030785+162033582+162160982+162789864
4037+163672058+164136611+163994511+163774182+163993830+164497982+164665411
4027+164230597+163718361+163828265+164491170+164958090+164827194+164452307
4017+164189565+163804029+162980005+161962756+161271152+161074951+161211010
4007+161574263+162178908+162990384+163901421+164749682+165287552+165339592
3997+165092445+164988223+165202099+165506609+165741135+165999503+166299459
3987+166538288+166765519+167072628+167315812+167272951+166987999+166855776
3977+167346340+168396179+169139858+168784977+167646297+166710522+166494871
3967+166876983+167581691+168325192+168841103+169104437+169310156+169550562
3957+169676815+169437072+168764864+168082115+168091974+168928224+169817266
3947+170138715+170381685+171253733+172423622+172928527+172413799+171324702
3937+170364225+170280098+171452300+173245441+174341439+174215868+173767412
3927+174032036+174879023+175281553+174810241+174335739+174800669+175923000
3917+176473455+175700018+174212031+173202347+173145791+173692696+174743969
3907+176880842+180212755+183401780+184798057+184361683+183039602+181100507
3897+178759402+177228374+177707251+179762776+181234091+180706528+179697615
3887+180231470+182021529+183373941+183918606+184377405+184231433+182780159
3878+181408350+181950846+184341786+187291336+189883459+191276743+190665035
3868+189106975+188572080+189085303+188969249+187571126+186081687+185796645
3858+187448978+191523746+197227919+200424419+197580775+191823469+187198963
3848+185123988+185673726+188115056+190993529+193104249+194430382+195382846
3838+195679719+195074231+194281398+193845849+193418457+192823581+192585649
3828+192883597+193465907+194955346+198278511+202125564+203407420+202295037
3818+201669024+201632598+200279218+197975202+196738395+197399884+199416276
3808+201545549+203000749+204703992+207672150+210544959+211139691+210376329
3798+210356574+210801391+210597787+210181258+210657212+212272008+214783034
3788+218239622+222794521+228227976+234250802+240983303+248423542+255880308
3778+262982874+270572831+279627848+290412082+302721732+315605069+327227130
3768+336341769+342726665+346312124+347976629+349588395+351868874+353831238
3758+355042249+357177958+362408776+371409763+382336043+391679920+398746329
3748+407033537+419064670+432767514+442931041+449315472+456871441+467948085
3738+481292372+494510891+506154320+516192077+525267960+533896480+542535038
3728+551558827+560055161+565961970+568784963+569792621+569437148+567595212
3718+565304479+564234366+565013396+566295932+565363742+561272769+556499602
3708+553659544+553664922+556175213+559337976+560640697+559814737+558946614
3698+559404947+561265025+564426533+568664392+573430819+577783010+580005051
3688+579207664+577300334+576435151+577083321+578965806+581984408+586260665
3678+590958793+592977086+590329768+586765104+585920393+586051719+583577890
3668+578589001+573467926+569158613+565363420+562081126+560521596+562192984
3658+566542523+570672539+572816601+574229567+576098931+577496158+576652307
3648+573108222+568035404+563235635+560290458+559570656+560136796+561323751
3638+563772950+567665016+571267970+573149165+574378102+576265069+577257992
3628+575764825+573987530+573917905+576028410+580767230+587563816+593436387
3618+595489098+594592437+593408996+593294950+594678841+597781444+602084626
3608+606127091+608676102+609617434+609324953+608967580+610399870+614443841
3598+619614141+623007828+622988611+621224258+620870183+622640272+624344823
3588+624464067+624514762+626153991+628429092+629737191+630082160+630387835
3578+631001336+631553171+631596480+631106239+630779411+631499178+633016653
3568+634049336+634038222+633486602+632365794+630197460+627575813+625767792
3558+624989731+624421188+623501009+622379054+621735437+622308497+623841604
3548+624700548+623216487+619386337+614853200+611458080+610019838+610116782
3538+610995947+612454051+614351701+615831532+616160080+616030511+616902792
3528+618945357+620581144+620420168+618551557+615453651+611135483+606416489
3518+603608984+604339291+607378257+609984273+610982323+611112825+610911838
3508+609866678+607713474+605439376+603964135+602796361+600976258+598529139
3498+596465708+595315645+594567161+594076346+594654820+596501883+598395196
3488+599162394+598795448+597734191+596322408+594764993+592792089+590050696
3478+587005097+584702605+583821038+584249435+585149107+585405808+584526966
3468+583072304+582093076+582105265+582561376+582351031+580959361+579132913
3458+577998445+577904370+578358687+578405689+577312273+575639128+574824891
3448+575134330+575280069+574335797+572581626+570667771+569225585+568812246
3438+569329699+569858374+569574139+568527509+567193991+565600904+563486599
3428+561210781+559629525+558899612+558423819+558045795+558081791+558324007
3418+558228820+557774359+557328036+557049502+556794988+556379283+555704224
3408+554582413+552739938+550482118+548882290+548361718+547879185+546652757
3398+545503375+545445689+546227229+546770782+546100097+543965680+541212527
3388+539135938+538266131+538230530+538529214+538901896+539084025+538735327
3378+537977343+537691458+538534412+539872483+540641403+540874764+541330839
3368+542212549+543095442+543316040+542168271+539809491+537776033+537444330
3358+538427430+539207893+538804378+537474338+536335640+536347543+537264388
3348+537933997+537905172+537907682+538402512+538762073+538388315+537661486
3338+537142599+536545446+535193178+533098699+531058286+529987169+530350637
3328+531793934+533232141+533743570+533406202+532817296+531976888+530385270
3318+528138958+526185952+525349989+525581952+526288453+526900090+526988608
3308+526437239+525675849+525188475+524923421+524732222+524817406+525184352
3298+525536492+525987905+526805870+527567619+527760002+527739351+528017205
3288+528456644+528940145+529779406+530926027+531565198+530804274+528521607
3278+525692520+523789348+523494823+524369004+525795595+527384523+528536450
3268+528727757+528176639+527362904+526351875+525338875+524871758+524778256
3258+524028374+522364013+520928352+520609053+520877048+520905335+520812657
3248+521063837+521462441+521507471+521259159+521061507+520651036+519440312
3238+517661977+516220938+515338081+514402377+513215566+512320160+512014378
3228+511996810+512040191+512252364+512652437+512979803+512830264+511921664
3218+510467002+509132803+508360334+507854712+507029039+505868112+504946857
3208+504530543+504146352+503279879+502032298+500861800+500125434+499970875
3198+500143396+499912903+498797150+497188826+495759260+494583921+493307982
3188+491883471+490711359+490067922+489654619+488947723+487961540+487297094
3178+487272965+487396762+486896841+485539732+483835826+482562002+481977721
3168+481436784+480054794+477786182+475443105+473705427+472538728+471523971
3158+470460814+469601905+469266366+469224992+468787884+467676684+466426773
3148+465704246+465531439+465348343+464686262+463625937+462536679+461506040
3138+460290690+458848899+457574644+456812214+456458138+456286192+456304333
3128+456420852+456086962+454840242+453081554+451735165+451172681+450940288
3118+450532399+449996554+449618852+449338166+448811499+447982456+447230208
3108+446811814+446453831+445811290+445140820+445011036+445373966+445528524
3098+445105793+444413596+443619365+442417819+440878402+439795633+439708190
3088+440183661+440525689+440704089+440985492+440975776+439890534+437815451
3078+435832258+434711737+434244011+433958162+433779368+433745057+433593654
3068+432984635+432004403+431180594+430852978+430709784+430171931+429074750
3058+427753171+426675995+426137712+426041557+425902594+425233558+423981640
3048+422574123+421554633+421112541+420946152+420628466+420021706+419268203
3038+418512763+417763778+416996041+416301407+415850245+415688372+415647967
3028+415424860+414714917+413475797+412111124+411140966+410657142+410314755
3018+409773281+408974533+408116879+407497821+407254852+407148048+406731662
3008+405850526+404890443+404371879+404280599+404016800+403115299+401829966
2998+400833350+400442168+400320414+399883700+398872743+397547650+396383999
2988+395579730+394895278+394052610+393173625+392635521+392599776+392859274
2978+393027922+392797967+392167902+391421498+390761461+390087048+389227458
2968+388193054+387125236+386207602+385652504+385529639+385551975+385264477
2958+384539799+383662391+382851237+382058656+381350469+380932613+380619661
2948+379906240+378787763+377927313+377756944+377890959+377702018+377131899
2938+376581964+376223228+375866643+375437027+375060903+374657388+373960710
2928+372978220+371961563+371001408+370090371+369385806+368984729+368645460
2918+368057450+367197646+366260688+365482733+365122276+365301680+365716668
2908+365771665+365219507+364476473+364094397+364103038+364084215+363698626
2898+362927305+361975073+361144309+360608536+360142136+359328365+358154066
2888+357074166+356418395+356080203+355810129+355501550+355175798+354892638
2878+354647267+354296383+353702314+352940206+352209756+351611062+351169723
2868+350935142+350860929+350739247+350415251+349914972+349279278+348481354
2858+347583475+346773576+346217260+345981461+346009103+346078907+345944031
2848+345600317+345270801+345079386+344886215+344448426+343663122+342685077
2838+341827603+341286702+340938400+340511939+340007715+339711326+339645645
2828+339358649+338569330+337657002+337132881+336982517+336876538+336667556
2818+336341267+335787280+334948736+334027051+333278459+332698695+332118645
2808+331520237+331028885+330666205+330340453+329986844+329522273+328825237
2798+327927429+327024709+326206170+325406418+324696655+324352546+324450853
2788+324576514+324201000+323325456+322463464+321961643+321657330+321257257
2778+320727937+320165956+319546862+318800780+318011604+317382902+317013303
2768+316771983+316429523+315905832+315334135+314825932+314256457+313444730
2758+312487623+311679804+311120332+310630450+310028637+309308261+308603265
2748+308086494+307807851+307608514+307295633+306837300+306290053+305663646
2738+304975824+304323316+303786180+303336416+302923077+302550825+302173482
2728+301649862+300961932+300313996+299847237+299457490+299028304+298595516
2718+298181048+297708607+297132088+296473485+295777435+295153089+294758734
2708+294616473+294498573+294114848+293456066+292871660+292690589+292818599
2698+292838246+292456887+291746317+290988834+290370601+289840976+289267468
2688+288663217+288190848+287991761+288044625+288121008+287896664+287194931
2678+286137617+285082777+284423978+284304500+284465189+284511492+284322337
2668+284051492+283838477+283690838+283528859+283218577+282677408+282002636
2658+281402866+281007525+280808959+280739728+280711566+280600712+280310507
2648+279863934+279334972+278728749+278075704+277563933+277372501+277416187
2638+277405234+277131485+276653021+276228533+276040704+275981727+275801104
2628+275424442+275007160+274722907+274585091+274453909+274207461+273882193
2618+273566014+273238487+272854260+272463598+272113108+271776457+271469097
2608+271273184+271206481+271185615+271121673+271006444+270907600+270841399
2598+270665634+270236915+269663264+269216027+269015668+268977539+269003209
2588+269049674+269044152+268899005+268646786+268451930+268424844+268481006
2578+268441945+268215503+267832316+267417310+267162976+267194167+267412829
2568+267577462+267527771+267270335+266946985+266790993+266967887+267370828
2558+267692762+267755539+267656318+267564967+267498695+267344513+267007091
2548+266488652+265903958+265446504+265261758+265308724+265374782+265260593
2538+264950902+264584889+264264138+263963895+263664978+263464905+263462790
2528+263593830+263662504+263540428+263302585+263115957+262989113+262748330
2518+262312799+261852566+261596474+261596098+261725882+261815513+261757934
2508+261571288+261401457+261414776+261613432+261766001+261620549+261192063
2498+260735666+260462025+260396613+260467421+260590644+260676904+260654085
2488+260515229+260296944+260004588+259632444+259269782+259054436+258975508
2478+258880608+258710830+258540891+258381027+258156987+257886376+257680764
2468+257582870+257547036+257538879+257534111+257473449+257311523+257071494
2458+256805884+256543428+256290187+256044834+255806614+255579366+255353856
2448+255110026+254876540+254746433+254769862+254853110+254820431+254593649
2438+254290430+254109843+254142612+254334349+254572622+254733060+254720709
2428+254552043+254326246+254112926+253955751+253913643+253991603+254103175
2418+254155841+254115795+254011429+253924058+253927141+254027258+254184021
2408+254317516+254317839+254178912+254067466+254132735+254343670+254591372
2398+254814121+255002614+255276434+255966945+257466279+260045227+263976174
2388+269757447+278038579+289371959+304133228+322518497+344376614+369083716
2378+395796563+423836582+452613146+481173021+508081225+531807809+551270075
2368+566187408+576889505+583797268+587096162+586446486+581337493+572150111
2358+559810399+544312333+524531486+500143611+474549779+454294394+444487201
2348+446682675+459585408+478920650+497781819+510749696+517258533+519753336
2338+520623896+520808355+520178434+518575093+516201506+513378048+510139422
2328+506090144+500716527+493795175+485594156+476808353+468005556+459058382
2318+449517104+439451561+429457830+419912500+410545750+400784089+390385695
2308+379608811+368869894+358501867+348771254+339818345+331565985+323857608
2298+316644959+309969983+303863871+298306978+293230449+288543561+284170450
2288+280085302+276376494+273241588+270794558+268888017+267237010+265709461
2278+264387093+263331679+262407269+261416640+260355006+259412240+258720510
2268+258203075+257716957+257265113+256969172+256849856+256742049+256452669
2258+255920319+255222208+254523200+254001462+253711509+253507277+253169622
2248+252626356+252019954+251555221+251307429+251214519+251215074+251288786
2238+251376839+251398565+251349896+251275718+251186931+251108092+251125229
2228+251269462+251420184+251439365+251372555+251406309+251606221+251799015
2218+251793153+251635243+251549772+251702573+252104367+252651363+253192191
2208+253638693+254025842+254395512+254705221+254952905+255275860+255787147
2198+256391613+256887106+257214221+257511130+257935242+258516458+259172515
2188+259770797+260191431+260425796+260584567+260767019+261001760+261302792
2178+261653103+261953274+262082736+261986491+261715199+261434674+261296410
2168+261240589+261073428+260757088+260435190+260186125+259949161+259701208
2158+259539963+259550056+259704542+259943711+260246626+260602081+261030944
2148+261610439+262379340+263371116+264835853+267166669+270501575+274639640
2138+279342196+284474529+289910529+295523441+301285390+307329441+313878469
2128+321020095+328590334+336365682+344257764+352253137+360282246+368164361
2118+375633891+382453172+388440864+393406233+397283277+400280152+402630149
2108+404327279+405323213+405792625+406003865+405997197+405498566+404227968
2098+402268939+400015492+397793882+395609415+393180150+390184027+386439278
2088+381757570+375831436+368523563+360067850+350856124+341283547+331776472
2078+322721707+314402196+307011720+300605778+295123188+290514152+286724731
2068+283644374+281194996+279307957+277792723+276432567+275143864+273950348
2058+272952190+272254993+271769287+271277271+270770806+270452942+270444499
2048+270732373+271301847+272201806+273567143+275535781+278126613+281361081
2038+285426939+290505404+296510933+303077133+309698511+315939856+321612408
2028+326721078+331373746+335799757+340134703+344114105+347286942+349446528
2018+350562998+350525138+349251887+346903863+343794018+340137679+335953777
2008+331228975+326117221+320883320+315707893+310651100+305752272+301085837
1998+296777188+293019675+289984474+287598787+285482385+283285513+281059045
1988+279105304+277576661+276389903+275390472+274467138+273601274+272857810
1978+272279498+271828210+271455276+271150695+270936927+270881428+271027758
1968+271228996+271184826+270776758+270239389+269885117+269811494+269965174
1958+270309014+270777672+271194954+271394973+271395583+271384397+271544512
1948+271938795+272586876+273510837+274492055+274971577+274636611+273929733
1938+273526451+273600091+273875059+274133803+274441217+274932498+275544009
1928+276126516+276786588+277754630+278913674+279964284+280991786+282165207
1918+283049821+283087645+282620618+282568561+283367381+284703480+285982073
1908+286875973+287489599+288075404+288748204+289509595+290337581+291182130
1898+292003914+292757220+293316602+293689374+294183667+294919728+295408409
1888+295169814+294472616+293890576+293610266+293514416+293476897+293383269
1878+293153045+292831183+292582602+292705682+293581656+295224918+296736048
1868+296770287+295135163+293066731+291662136+291054748+290881152+290851700
1858+290862545+290923977+291092231+291388961+291812464+292382422+293168712
1848+294398331+296255809+298126338+298572176+297203254+295475811+294697427
1838+294870377+295330413+295763990+296599469+298343565+300537354+301890537
1828+301986406+301686682+301423815+300820998+299960405+299525483+299751279
1818+300238581+300683057+301263341+302259849+303527973+304492394+304778064
1808+304710482+304951839+305900521+307540000+309480315+311048162+311761475
1798+311935214+312534840+314323716+317017067+318993270+318782101+317210525
1788+316252092+316699454+318036808+319594975+321166121+322559548+323494534
1778+324279982+325875650+328951185+332938044+335890929+336293512+334906000
1768+333263007+332245274+332516495+334341868+336806340+338515086+339413395
1758+340319844+341290467+342230437+343954922+347184979+351106659+353844252
1748+354697352+354683011+354944875+355978455+357769696+359771820+361236234
1738+362531426+365186165+369577830+373082944+372993278+370816268+368873264
1728+367717358+367470408+368241336+369734898+371926392+375627725+381336344
1718+387449195+390532259+389532488+387078628+385558787+385692049+387451131
1708+390586933+394372088+397850385+401237546+405773014+411284877+415312750
1698+416701696+416609950+415237532+413039800+412041320+413383908+416534517
1688+420966085+427149243+434548502+439239066+438607997+436006786+434959797
1678+436457912+440027919+444190991+447717545+451176733+455333710+458868546
1668+460101534+460482893+462680984+467116926+471825487+475058592+477618610
1658+481484575+487988788+497544514+507962555+513150602+512983890+513934472
1648+517948399+522114088+523225251+522560948+522979270+525390574+529740256
1638+535955751+542985484+547824080+549051225+549675231+552670242+558485772
1628+565979358+573968887+582092538+590052775+597258613+604109479+612101410
1618+621746193+630832042+636487708+639639966+642871959+646813824+650669428
1608+653741162+656040858+658017885+659967163+661770307+663366299+665183712
1598+667799408+671484930+676082529+680954755+685290491+688784491+691798647
1588+694811871+697899380+700756074+703196597+705514075+708242203+711771626
1578+716133533+720522258+723668063+726213417+730376345+737101980+745254887
1568+753233982+761248141+770203202+780013621+791024154+805531124+824575390
1558+840617977+846579532+848128772+850442522+853434880+855640070+856740299
1548+857525387+858741347+860356339+861931967+862921197+861487329+855526777
1538+847704427+842108061+838772168+835735569+831891796+828075127+825576954
1528+824692483+825091302+826677971+829265846+831262520+830640630+828390697
1518+827245008+827438967+827299216+826298656+825788338+827434952+831639469
1508+836163643+836092369+830432760+825134181+823499254+824630817+826562384
1498+827280071+825684438+823111406+822252391+824202242+827602166+829591670
1488+828409770+825317743+822684623+821702778+822148133+823190281+824403874
1478+826060742+828538766+831675895+834392120+835079906+833652993+832058221
1468+831660693+832186858+832557139+832135088+831765812+833092840+836762444
1458+840766261+840738583+835992772+830832439+827816705+826757491+826448876
1448+825785828+824935847+825103491+826528325+827954377+828603586+829372542
1438+831045687+832264299+831220071+828916790+827413154+827055709+826902190
1428+826456549+826107350+825996925+825810638+825628007+825723015+825462227
1418+823688697+820599036+817565520+815579171+814817315+814492710+813434213
1408+811573418+809924151+808915560+808187548+808067228+809440650+812029672
1398+814209407+814945306+814682654+814182589+813955789+814457575+815476634
1388+815621548+813873258+811786738+812033544+815242233+820007190+825124142
1378+830538882+836139765+840743029+843042653+843378515+843538272+844824788
1368+847302741+850455859+853618945+855853748+856321259+855233077+853827747
1358+853121963+853194671+853582376+853897874+853931575+853513109+852894303
1348+852978053+854300493+856165948+857608206+858628628+859749722+861028136
1338+862166224+863128207+864202264+865702028+867663782+869719970+871494003
1328+873094296+874809245+876616333+878540801+881021622+884185137+887277594
1318+889715536+892078331+895056922+898275865+901184114+904240217+908083345
1308+912148756+915145774+916717028+917869600+919797367+922787430+926047818
1298+928237233+928464463+927036762+924966878+922935212+921234390+920144558
1288+919517936+918380206+915772039+911888254+907966037+905203347+903839176
1278+903106144+902211922+901325586+901167192+901843864+902711054+903289707
1268+903768117+904605263+906011740+907774515+909501940+911122239+912926029
1258+914932598+916744992+918189114+919414825+920365335+920848048+920970447
1248+920828974+920053852+918298176+916018486+914202219+913311295+912869096
1238+912202175+911219255+910230311+909454759+909103121+909405426+910165419
1228+910829973+911072405+910779493+909804962+908411965+907485691+907794449
1218+909321532+911221119+912373261+912545136+912923949+914789620+917806716
1208+920380321+921636076+922243984+923281615+925081891+927229790+929201295
1198+930872217+932664033+935271196+938938649+942914357+945777074+946517922
1188+945554505+944751992+946048188+949607152+953518327+955851867+956876233
1178+958466846+961422563+964247636+964967545+963754526+963008301+964845792
1168+969012234+973305520+976030637+977620103+979174864+980292804+979779330
1158+978052120+977433529+979735232+984054834+987533059+988363465+987285537
1148+986086141+985967327+987450958+990476802+994044084+996542902+997379403
1138+998253261+1001540037+1006798246+1010360580+1010095490+1008571060
1130+1008961274+1010834473+1012201011+1013043535+1014296063+1015407693
1121+1015454516+1015211367+1016448909+1019823809+1023940775+1026199097
1113+1025288024+1023175333+1023441642+1027260175+1032143802+1034992895
1104+1034985868+1033073303+1030611556+1028879399+1028472764+1029312133
1095+1031337489+1034168871+1036371049+1036657005+1035971442+1036929840
1087+1040689074+1045227660+1047714934+1047851172+1047122514+1046441325
1078+1046812250+1049645712+1054152318+1057006789+1056834484+1056275479
1070+1057964613+1061529242+1064754854+1065919903+1065271267+1064543900
1061+1064486178+1063763759+1061741558+1060546752+1061926053+1064025192
1053+1064244822+1063412624+1063934056+1065919975+1067838635+1069233782
1044+1070155109+1069584703+1066742350+1063047434+1061047319+1061805518
1035+1064209185+1066456322+1067969782+1069217004+1070456769+1071676672
1027+1072675152+1072760910+1071350346+1069246976+1068397210+1069939423
1018+1072794396+1073741823+1070351005+1064244033+1059573942+1058749344
1010+1060822598+1063700014+1066149356+1067259265+1066114436+1062948196
1001+1059360837+1056879299+1055654807+1054877821+1053754790+1051979395
993+1049845121+1047597626+1045123187+1043192194+1043869153+1048063560
984+1053093105+1054668373+1051866103+1047570163+1043859760+1040400823
975+1037138857+1035174307+1034756272+1034634088+1033532210+1031375636
967+1029357235+1028939989+1029824459+1029522226+1026334044+1021602789
958+1017606501+1014628484+1011124445+1006176786+1000856481+996463956+993008676
948+990541551+990002407+991369590+992671021+992079533+989601581+986135115
938+982576940+979940234+978803938+978820359+979430633+980622141+982557866
928+984241408+983152939+978108121+971903847+968936801+970789278+975293159
918+979366242+981663429+982566041+982793056+982483939+981184588+978746575
908+976088000+974218314+972744435+970533150+967797135+965657698+964280906
898+963439888+963552751+964594899+965204599+964280046+962463349+961201284
888+961179415+962146417+963679380+965598398+967518492+968388121+967197975
878+964296825+961342326+959463821+958317200+957308824+956826757+957547312
868+958839780+958936222+957067898+954363576+952438678+952259059+953995231
858+956722643+958721611+959023414+958314260+957779849+957703053+957722772
848+957937598+958895996+960431182+961279227+960323267+958064299+956174393
838+955623705+955622844+954726757+952760486+950842901+950012711+951007462
828+954416063+959318046+962921324+963464483+962371209+961945215+962642323
818+963672855+964518175+965128808+965677703+966342114+967066254+967632144
808+967933373+968003858+967871134+967130788+964851026+961068775+958052683
798+958269158+961403920+964855687+966665571+966857093+966435975+965782248
788+964173565+961174825+957911497+956228601+957080876+960006048+963421173
778+965708464+966414965+966635886+967768740+969587803+970347222+968760910
768+965635900+963137368+962514187+963198389+963526077+962347475+960468898
758+960258805+962828323+966982934+971495779+975788492+978408777+977980058
748+975666380+973538989+971783097+970136411+969868453+971731399+974249218
738+975953698+977070849+978365898+979717665+980542119+981139773+981986241
728+982541303+981431251+977949942+973674223+971593655+973192729+976273714
718+976764457+973550318+969407539+967032338+967028251+969233226+972919895
708+975741884+975704096+973875927+972009611+969873544+967242790+965569143
698+964984252+962384403+955395972+946913227+942482842+944220449+949304847
688+953596986+955234709+955083055+954678500+953781194+950007405+942283504
678+934345925+930851423+931842016+934277161+935329348+932350829+923692480
668+914152313+913683727+921847030+929933108+933260898+931325244+925786600
658+920143268+917104445+915757769+913471697+910081238+908112098+909205300
648+912711275+916719107+918315959+914804104+906500619+897487191+892409891
638+892619984+895808668+898892449+900395870+900063737+897544698+892479659
628+885660164+879012256+874366902+872296588+871348874+870397288+871762679
618+878150874+887001605+891870963+891619998+891439160+891867736+887412828
608+876584998+865251224+859941889+862085844+868340956+874069473+876481601
##END=
