##TITLE=<SNM>
##JCAMP-DX=4.24
##DATA TYPE=INFRARED SPECTRUM
##DATE=3/5/2025
##SAMPLING PROCEDURE=Instrument type and / or accessory
##ORIGIN=Admin
##XUNITS=1/CM
##YUNITS=ABSORBANCE
##RESOLUTION=4
##FIRSTX=4497.3318
##LASTX=599.83466
##DELTAX=-1.4281778
##MAXY=1.7366363
##MINY=0.18642098
##XFACTOR=1
##YFACTOR=1.6173686e-09
##NPOINTS=2730
##FIRSTY=0.20600575
##XYDATA=(X++(Y..Y))
4497+127370938+128697733+130692642+132392378+132833424+131865733+130414762
4487+129548895+129517626+129896307+130132617+129790742+128889045+128098238
4477+128040867+128536446+129016768+129314447+129533730+129601199+129424314
4467+129117090+128832946+128723557+129075493+130018907+131078510+131463419
4457+130936350+130028019+129279787+128683157+128026218+127430124+127260269
4447+127599969+128086482+128328403+128247704+127944451+127533947+127189502
4437+126995905+126680030+125863905+124650838+123571436+122998098+122978078
4427+123500421+124551077+125867894+126713686+126128075+123945170+121437288
4417+120219448+120618132+121707511+122635991+123237347+123637375+123888905
4407+123958097+123834022+123538195+122962719+121966135+120842418+120282006
4397+120597236+121341903+121834515+121801864+121492134+121280027+121203604
4387+121041755+120832754+120894989+121244124+121463555+121287591+120902571
4377+120570831+120285995+119896203+119373279+118889982+118738231+119155580
4367+120045825+120904257+121241203+120947090+120018342+118391648+116478829
4357+115261901+115288214+116044269+116686218+116966770+117228416+117782664
4347+118473019+118808399+118469887+117606590+116691783+116199410+116244140
4337+116426774+116336438+116191984+116480386+117089397+117452048+117386054
4327+117162375+116990770+116874131+116695063+116310817+115855343+115782982
4317+116335950+117269064+118161493+118614534+118317482+117438569+116713038
4307+116715286+117358847+118264497+119124827+119660133+119716868+119421815
4297+118953452+118392220+117990063+118199562+119133450+120209406+120607620
4287+120057886+119014784+118049930+117370640+117042244+117275136+118165344
4277+119405194+120498729+121075743+121005234+120487673+119990721+119822276
4267+119835423+119739090+119505028+119259091+118979129+118596734+118318201
4257+118517805+119234961+120066795+120705298+121249928+121833382+122314118
4247+122493196+122288469+121706277+120999430+120705528+121133381+121943425
4237+122467869+122345388+121805310+121454692+121769774+122675286+123598192
4227+124004117+123874026+123549905+123214959+122815566+122453072+122407015
4217+122663355+122906943+123032307+123127654+123007634+122378611+121457640
4207+120931141+121251614+122221397+123279829+124061598+124624387+125160144
4197+125597947+125655161+125284219+124839488+124695089+124884024+125200019
4187+125451457+125559288+125570123+125539010+125342594+124859084+124364740
4177+124388114+125140272+126337105+127452816+128004825+127871906+127432390
4167+127163742+127136065+127058914+126709862+126206425+125926444+126129098
4157+126591003+126752280+126349662+125779236+125622196+125908921+126183861
4147+126235179+126304011+126581458+126965133+127297748+127477332+127402005
4137+127083218+126714708+126520945+126621876+126969343+127333412+127471675
4127+127319989+126927183+126391509+126018245+126223276+127009872+127838895
4117+128294129+128556595+128943394+129360669+129511720+129322038+128909683
4107+128395595+127910454+127637163+127753323+128306982+129097052+129773274
4097+130144133+130215711+129985298+129543063+129207371+129136014+129047715
4087+128724534+128471465+128661211+129102073+129218427+128736815+128051490
4077+127883165+128471152+129221485+129439581+129227133+129199530+129530202
4067+129820510+129752019+129376470+128844453+128197464+127471850+126876658
4057+126703680+126980058+127391253+127661652+127799251+127878706+127850909
4047+127688637+127528622+127572320+127900762+128380780+128732734+128738833
4037+128409202+127982548+127837357+128285405+129191883+129865913+129710375
4027+128991302+128546627+128726423+129107896+129273337+129302792+129400599
4017+129521569+129492584+129201778+128641237+128027665+127850697+128499685
4007+129758901+130916385+131510121+131691419+131729690+131584730+131184093
3997+130736469+130478499+130358037+130261178+130358037+130840302+131455091
3987+131754631+131713273+131623683+131513069+131162700+130632572+130373017
3977+130798723+131864968+132997161+133527796+133323586+132797834+132331931
3967+132070063+132223224+133005665+134152867+135006978+135245609+135102546
3957+134830858+134485934+134284791+134633714+135615824+136706373+137166039
3947+136858465+136531497+136924579+137764354+138057500+137343006+136147334
3937+135347277+135602778+137009267+138806774+139715317+139166522+138085628
3927+137924434+139046069+140269012+140345850+139709770+139798162+140949850
3917+141815708+141071778+139155448+137582974+137246240+138027742+139701506
3907+142605962+146939323+151523606+154230291+154232678+152356490+149299417
3897+145725446+143246796+143379771+145747401+147867499+147882655+147395718
3887+148792174+151322224+152317711+151712403+151471745+151240521+149455111
3878+147308920+147161058+149275702+152529099+156096649+158673345+158596452
3868+156884397+156160791+156601551+156147745+154079020+152072446+151839214
3858+154195613+159692013+167510659+172252386+168587057+160605558+154144424
3848+151039498+150990852+153074006+156402657+160501099+164900537+168154091
3838+168421348+166173693+163888871+162537311+161151331+159159176+157395196
3828+156728122+157453442+160181603+165252408+170425185+171876653+170105560
3818+168685583+167611101+164596556+160372519+157772385+158379075+162038379
3808+166708870+169806444+171779251+174835477+178183042+178918183+177526656
3798+176469090+175745502+174548098+173723700+174396430+176365589+178989899
3788+182251229+186300491+190845093+195878418+202259287+210288326+218387680
3778+224949827+230830713+238031134+247441326+258420656+268880362+276503945
3768+281184479+284381832+287074541+290512267+296497760+305488824+315947866
3758+326465486+337758011+351635615+369135303+388900151+406092596+417625991
3748+427563620+440240670+454236093+464099648+469138870+474407612+483812423
3738+498660769+517083804+533426755+542984542+547170657+550262538+554396580
3728+559260899+563543974+565941915+565444807+561235106+553939457+546531850
3718+542000091+540912748+542144739+544260424+545572017+544967888+543406175
3708+542186125+541435616+541318277+542209084+543656848+544755505+545685745
3698+547553116+551194178+556860156+564238245+572174249+578359410+580430319
3688+578767334+576547208+575790324+576436391+577840927+579956613+584147335
3678+591333715+598040307+598301115+593405508+588935405+584927436+578763649
3668+571851565+567249491+565616284+566035927+567462943+569287049+571315135
3658+572978230+573447404+573711049+576345549+582207253+588629158+591016006
3648+588167207+583388166+579517511+577231787+575759368+574015306+572351474
3638+572612834+575911128+581501263+588185855+595448336+601970148+604359318
3628+601362039+596932658+594466723+595360810+600753193+609822901+618384445
3618+623568167+627363127+631135532+632926286+632410714+632643182+634805781
3608+636591449+637025723+638017655+640741817+644133754+646701882+648283533
3598+649370986+649786392+649549575+650063820+652958391+658109977+663038161
3588+664289611+661063733+656622448+654031251+653334216+653582825+655017654
3578+657578190+659419948+659558589+659833953+661930438+664530923+665133025
3568+663277410+660537622+658081527+655857531+653542435+650778987+647447268
3558+644746764+644466609+646259205+647304205+645973375+644294211+644960806
3548+647846458+650457409+650452323+647628584+644048550+642125052+642677624
3538+644478549+645385056+644244681+641754902+639583753+638714468+638421857
3528+636946858+633782893+630997039+631308667+634779984+637913730+637291948
3518+633839647+631482244+632144047+634112063+634786470+633111140+629362394
3508+624632699+620668437+618671160+618365061+619010649+620639840+623320221
3498+625934489+626833993+625578785+623305701+621510820+620820419+620709786
3488+620220675+619100201+618104953+618052511+618940039+620115350+620710523
3478+619832246+617280739+614050513+611316473+609120928+606881122+604842791
3468+604141260+605605829+608833992+612094106+613274502+611898601+609945805
3458+609616967+610880173+611929521+611529999+610127858+608893030+608350335
3448+607970566+607009518+605582759+604228749+602814742+601131709+600006886
3438+600462535+602354265+604622669+606172773+606233507+604755929+602558098
3428+600377773+598274839+596296983+594759003+593714667+592770313+591380886
3418+589388216+587521324+587086718+588593410+590643203+590923690+588726265
3408+585733740+583941585+583678640+584026605+584314205+584473777+584306392
3398+583299388+581451770+579647860+578677708+578406840+578341168+578381043
3388+578549608+578596005+578458102+578544411+579000539+579329598+579235439
3378+579259136+580067503+581430063+582283944+581709298+579684049+577112052
3368+575294027+575005211+575990472+577639379+579676310+581747993+583113686
3358+583214368+581944750+579545151+576962650+575628761+575897345+576368914
3348+575697934+574440220+574244236+575605396+577029759+576636724+574413796
3338+572264133+571796028+572827576+574226768+575411440+576372378+576749272
3328+575803481+573388255+570454400+568320656+567594803+567937460+568463498
3318+568317929+567421410+566620561+566689697+567363109+567836926+567856790
3308+567601510+566938638+565798595+564784773+564526840+564844732+565085676
3298+565001209+564970732+565565242+567074440+569138495+570681708+570777931
3288+569886350+569442863+569950474+570487899+570198899+569278757+568549771
3278+568701125+569542255+569878132+568920694+567482291+566747261+566649453
3268+566415622+565822144+565169295+564716079+564584330+564720538+564761703
3258+564311287+563494775+562969327+563143236+563582927+563555067+562998331
3248+562477637+562174927+561573562+560536007+559964751+560480175+561061787
3238+560236320+558147242+556131723+554860152+554164112+554036454+554577159
3228+555265681+555334854+554818214+554384713+554142738+553465861+552125339
3218+550718702+549841973+549630106+549968378+550406743+550133700+548616063
3208+546105720+543413619+541402965+540411586+540015529+539735815+539671360
3198+539885696+539831522+539167139+538429271+538097780+537683296+536487752
3188+534731751+533129905+531761337+530264153+528839201+528046607+527699600
3178+526907448+525455630+524300293+524320968+525190105+525666465+524696240
3168+522229089+519186739+516771219+515757139+516137313+517135067+517602840
3158+516816732+515138969+513684682+513081806+512756469+511800948+510285117
3148+509032267+508220952+507104863+505349377+503782799+503328293+503780109
3138+504088678+503552764+502271243+500558801+498596866+496764247+495551088
3128+494870895+494094885+493002161+492132028+492057401+492757016+493628954
3118+493837504+492938074+491323108+489804144+488900365+488598503+488376796
3108+487475265+485696709+483951064+483414118+484151027+485085800+485332235
3098+484875444+483827201+481999521+479658664+477832274+477316887+477790446
3088+478156469+477648047+476553922+475817565+475921269+476372090+476420920
3078+475978428+475533135+475390551+475254675+474602674+473413138+472251425
3068+471529957+471086802+470656655+470256875+469922399+469500544+468823299
3058+467876992+466795250+465790678+465011351+464340813+463445363+462148695
3048+460692492+459472441+458581560+457871406+457364679+457221911+457364568
3038+457436653+457076563+456164382+454999684+454087281+453483853+452740789
3028+451701059+450717014+449946532+449185999+448419018+447821154+447328652
3018+446748883+446080299+445391335+444664486+443900305+443134208+442403195
3008+441824089+441501037+441294366+440887032+440116991+439039267+437734713
2998+436329513+435110568+434332899+433912408+433521695+433009034+432543178
2988+432290920+432127846+431789131+431207704+430524968+429798819+428955847
2978+428095223+427473626+427029954+426362512+425376919+424488139+423973858
2968+423564128+422853863+421799613+420692185+419838267+419333715+419019692
2958+418589251+417827649+416882853+416221971+416141447+416358216+416206382
2948+415236894+413619938+412058078+411282030+411421887+411849933+411836924
2938+411307459+410699939+410226859+409697358+409005961+408284198+407544893
2928+406688728+405834368+405112236+404273171+403077185+401876040+401247257
2918+401245414+401459824+401595590+401612837+401460155+400989029+400112963
2908+398927554+397708130+396782202+396289958+396033426+395632393+394866001
2898+393850521+392874031+392094666+391464188+390930153+390556834+390337375
2888+390027516+389346918+388311021+387233186+386389476+385761098+385180482
2878+384696235+384539021+384611289+384389214+383609666+382673751+382081931
2868+381843456+381683773+381498476+381370081+381307689+381122172+380553422
2858+379537168+378320508+377283063+376673922+376482251+376435337+376137271
2848+375360450+374270969+373294442+372711024+372441962+372256113+372031863
2838+371734055+371342162+370930295+370599098+370231565+369558521+368551812
2828+367533014+366823265+366439369+366160983+365775281+365205831+364502383
2818+363848061+363498143+363484692+363421342+362839988+361747854+360674809
2808+360126181+360060767+359937347+359299055+358232018+357182191+356482060
2798+356158787+356020699+355802199+355306270+354485225+353437978+352371972
2788+351460454+350677146+349936257+349375430+349196509+349223559+348939019
2778+348039477+346775609+345659152+344919920+344378441+343808364+343176338
2768+342483062+341705504+340991185+340564097+340351825+339977547+339144194
2758+337869785+336439932+335222387+334393677+333809817+333239188+332639960
2748+332097155+331611803+331095568+330498404+329850126+329230298+328733447
2738+328396502+328122243+327730092+327121614+326361414+325575416+324820227
2728+324078711+323319690+322516887+321665218+320819224+320060129+319410007
2718+318841626+318340132+317853933+317268378+316598614+316080389+315839519
2708+315622935+315103973+314298185+313476440+312832658+312355524+311881338
2698+311251044+310542990+310070573+310012199+310144721+310037922+309429592
2688+308400310+307304085+306523284+306187057+306120003+306073900+305911084
2678+305543514+304878430+303953276+303005974+302287638+301852369+301579787
2668+301343007+301106486+300885756+300649289+300294452+299756658+299100640
2658+298449340+297876315+297407104+297041469+296746756+296510880+296367835
2648+296249501+295905609+295178041+294275220+293550085+293088208+292716713
2638+292296996+291798708+291212582+290610720+290202040+290128887+290258996
2628+290292532+290027947+289480756+288836384+288321144+288029233+287874856
2618+287753887+287653868+287548745+287351546+287052061+286749536+286504741
2608+286290220+286063852+285787603+285444300+285105493+284875587+284728212
2598+284507869+284117579+283623622+283180337+282911477+282844976+282895686
2588+282894304+282682768+282240479+281718403+281309815+281067508+280885234
2578+280682322+280520003+280456193+280401632+280259583+280069717+279869458
2568+279627759+279472940+279689340+280292787+280919194+281304859+281552473
2558+281795702+281950023+281899774+281651589+281260469+280799901+280358975
2548+279952009+279535351+279142131+278828752+278518691+278107929+277676345
2538+277400852+277302326+277229136+277055872+276788818+276504369+276269561
2528+276124343+276093368+276192520+276404387+276615038+276635252+276388006
2518+276028783+275771587+275653621+275578497+275508660+275474258+275445384
2508+275334089+275126054+274902007+274710630+274524634+274336169+274162500
2498+273959403+273678161+273372982+273117721+272890910+272634599+272318604
2488+271911785+271411158+270899050+270494480+270266232+270181839+270112039
2478+269963651+269809957+269743787+269647233+269315539+268776142+268283862
2468+268017950+267926905+267836118+267597238+267166649+266631288+266136520
2458+265753655+265471547+265298467+265251277+265263162+265227102+265086416
2448+264811567+264416855+264063418+263939997+263964044+263818936+263370953
2438+262847237+262539221+262512281+262639792+262747200+262697780+262486945
2428+262268757+262200469+262300967+262496213+262700839+262836328+262871338
2418+262832109+262729842+262578450+262488124+262569974+262742704+262814769
2408+262752083+262707177+262779206+262875337+262852396+262726157+262659840
2398+262742777+262861204+262856505+262767450+262809757+263087407+263404673
2388+263423947+262934302+261888325+260266137+258017081+255088200+251456720
2378+247210701+242640394+238142577+233981190+230200824+226728659+223459019
2368+220362237+217662157+215706745+214572967+214158667+214693844+216709014
2358+220510551+226016312+233109307+241907999+252152650+262211138+269589245
2348+272654094+271767267+269145260+267027806+265605710+263674878+260607486
2338+256807110+253040122+249715110+246690320+243813715+241391230+239823749
2328+239049378+238647480+238343167+238259401+238715289+239824339+241321725
2318+242754970+243829967+244665163+245681547+247129864+248821741+250431953
2308+251855560+253132475+254242206+255143332+255895333+256605119+257271695
2298+257783028+258110263+258414226+258875808+259484027+260050566+260396172
2288+260532177+260680952+261037743+261502366+261760501+261637560+261255967
2278+260845187+260521840+260285705+260123590+260030444+259951376+259778279
2268+259463131+259124306+258964181+259052241+259254968+259387675+259351320
2258+259158930+258948408+258897495+259003116+259042382+258840042+258467459
2248+258133278+257976377+257976819+258020084+258046950+258112530+258273669
2238+258490843+258688171+258857400+259055852+259323717+259645000+259993260
2228+260368072+260778557+261261827+261928385+262884771+264060949+265202152
2218+266115421+266874535+267721487+268830316+270212187+271751015+273301138
2208+274855186+276569101+278507045+280500471+282370348+284111922+285799598
2198+287485248+289208653+291011329+292938198+294972937+296952414+298679044
2188+300114904+301354063+302505678+303662526+304828439+305878304+306703402
2178+307324925+307833476+308296938+308673242+308786989+308491300+307832002
2168+306984681+306085988+305167688+304220791+303244541+302153125+300790362
2158+299203017+297679871+296398534+295301074+294294936+293331971+292427418
2148+291673114+291185845+291439964+293610892+298695388+306241654+314796657
2138+323434302+332040070+340593248+349011545+357272812+365304338+373095731
2128+380863281+388880508+397274003+405894143+414272418+421883822+428355404
2118+433368055+436775838+438867643+440234847+441602825+443941802+448389167
2108+455831453+466537575+480076355+495340216+510404778+522775285+530692936
2098+534015700+533361156+529437470+523344846+516116896+508001788+498696774
2088+487638781+474244833+458528345+441058692+422533501+404022203+386756015
2078+371265324+357550535+345744871+335859241+327622186+320955800+315818660
2068+311758213+308291133+305243089+302487638+299967106+297785786+295929084
2058+294354232+293224822+292543781+292075344+291895945+292364344+293683308
2048+296015448+299618054+304748506+311923498+321927463+335176321+351632151
2038+371292263+393872669+418123652+442100191+463843042+481738087+494916261
2028+503375317+507668970+508735638+507516841+504481714+499887895+494066287
2018+487138835+479109115+470259381+460965129+451355785+441342423+430720104
2008+419344218+407362914+395173169+383229123+371943306+361533407+351917024
1998+342968856+334871253+327982055+322298129+317286104+312455690+307887208
1988+303906565+300571677+297754332+295378042+293374757+291650191+290144937
1978+288816612+287645263+286651968+285799727+285024085+284419164+284091763
1968+283805693+283165043+282220320+281473792+281197746+281138744+281002131
1958+280870345+280904231+280948934+280740494+280312209+279965866+279933527
1948+280230506+280824684+281689455+282448311+282342119+281143830+279678432
1938+278823740+278591457+278519907+278408943+278377895+278521602+278748542
1928+278987920+279469568+280417847+281477883+282123655+282574734+283293973
1918+283819882+283339652+282206869+281602906+282073701+283160473+284021485
1908+284160973+283760309+283363459+283271014+283376947+283510834+283724691
1898+284191966+284879991+285504112+286014837+286780363+287818527+288345264
1888+287781932+286660112+285814634+285466209+285442107+285578518+285738533
1878+285844669+285917878+286047747+286598531+288256652+291228963+294227090
1868+295064018+293175918+290331043+288340934+287595788+287535773+287576698
1858+287539348+287569899+287809221+288181509+288616354+289306442+290582472
1848+292751705+295850163+298855495+299696238+297757870+295053571+293514374
1838+293333058+293724030+294261050+295500264+298126969+301432136+303443288
1828+303454860+302713620+301924011+300633958+298983024+297930359+297880461
1818+298374086+298927598+299644275+300934033+302730001+304209146+304630761
1808+304271261+304084122+304838095+306759787+309392186+311648613+312622412
1798+312641318+313132456+315350997+319024232+321739255+321117474+318298083
1788+316321444+316490414+318091818+320101993+322159341+323932516+324905910
1778+325430953+326965248+330729582+336203373+340614623+341367195+339228771
1768+336484487+334510795+334266240+336227659+339269973+341395166+342350871
1758+343301933+344468546+345732894+348156559+352714851+358215913+361875217
1748+362604203+361906063+361567091+362452996+364542148+366875228+368270035
1738+369319604+372187677+377223214+380730647+379358652+375500712+372136968
1728+369765634+368539060+368713448+369963350+372306896+376940516+384682784
1718+393330969+397646217+395546452+390723777+386965597+385804474+387588337
1708+391896951+397136947+401399127+405072067+410430250+417575834+422866208
1698+424216865+423136192+419988369+415571444+412918407+413743322+417379814
1688+423116881+431571626+441813623+447802985+445672780+440826040+438646673
1678+440392725+444991555+449968459+453597765+457005143+461366199+464748848
1668+464964695+464239321+465983898+470211030+474007943+475452022+476235219
1658+479326215+486679870+498770554+511831647+516626571+514019821+513850262
1648+518314579+522722844+522431522+519597390+518614488+521169459+527454418
1638+536922063+546801944+551644630+550093346+547872888+549340000+554570268
1628+561567629+568880377+576664879+584827159+592128889+598746850+607109905
1618+618457487+629415314+634513980+634208028+632672591+631595382+630545149
1608+629227881+628274645+628664843+630957533+634969113+640108022+646053861
1598+652822477+660022566+666566748+671631952+675564667+679290343+683243770
1588+687250190+690929506+693930949+696166517+698055152+700577361+705055277
1578+712203404+720308304+725709679+728586487+733048483+740990051+750443987
1568+758645073+766174627+775324232+786859912+801001678+819522889+843062501
1558+863515908+873300930+877686419+880953130+882952397+883490817+882984385
1548+882052155+881919780+883497893+886621172+890628846+892778252+887539471
1538+876324264+867103607+862362856+859253654+855070929+851204770+850362167
1528+852368657+854859394+856537820+858064413+859273186+858735945+856747587
1518+854724070+852729962+850900587+850651093+853118097+858352086+865769681
1508+872795972+872972423+864167171+855030317+851524800+853287915+857524297
1498+860173649+857975008+852434034+848637822+849539021+853916403+857411970
1488+856339626+851804071+847504523+845484176+845297700+845661143+846456870
1478+848776904+853289020+859111181+863351618+862296963+856348618+850844792
1468+849447847+851329628+852753180+850962942+848074268+848403290+853595120
1458+860447834+861780581+855921272+849372741+846203838+846150107+847265937
1448+847298810+844988431+840968596+836894660+834176394+833734823+835839195
1438+839274912+840932480+838900414+835682275+834224155+834223123+833721630
1428+832446669+832009078+833066091+834610963+835867940+836882130+836829062
1418+834089348+829214084+824541142+821227850+819079402+817613764+816628024
1408+816255810+816402779+816280354+815451386+814972152+815949047+817715404
1398+818772418+818756645+817861710+815660047+812437413+809863462+809000516
1388+809033978+808579730+808052218+809362779+813257610+818521302+823720282
1378+828751286+834139025+839472812+843579915+846240249+848394151+850457616
1368+852087470+853637943+856139293+859407257+861468216+860777151+858282434
1358+856173640+855543162+855816389+855923188+855611413+855300228+855181635
1348+855116185+855104171+855573086+857250112+860488299+864523391+867839337
1338+869728635+870943526+872470930+874576186+877193402+880288230+883553540
1328+886511498+889272366+892549764+896676620+901270254+905917546+910401801
1318+914277984+917200194+919856843+923537853+928338969+932704263+935407125
1308+937021059+938637572+940321010+941690831+942843883+943752158+943845322
1298+942937268+941548210+940014763+938317100+936777166+935866606+935374621
1288+934542410+932822118+930225466+927306868+924848562+923355505+922832416
1278+922850842+922628767+921511167+919884925+919050208+919678917+921035176
1268+922113859+922755762+923321601+924053130+924969881+926062273+927652474
1258+930299541+933802773+936856621+938287765+937902947+935729145+931531605
1248+925735978+919909985+915576826+912695375+909695185+905288763+900127226
1238+896052922+893830327+892465223+890811857+888948208+887554949+886728856
1228+886059166+885453379+885351075+886213358+887997184+890080549+891781603
1218+892983669+893910887+894472746+894591633+894895227+896208146+898551840
1208+901316984+904241995+907612630+911425721+914702603+916138464+915705000
1198+915055211+915916094+918701580+922773156+927064892+930412310+932274780
1188+933300100+934615231+936623637+939096538+941832198+944455163+946272672
1178+946948775+947105694+947867959+949770082+952304452+954665615+956713306
1168+958885487+961318513+963505066+964841203+965370557+965905292+967227720
1158+969295460+971490932+973520787+975656557+978033197+980198229+981641460
1148+982674372+984270764+986937510+990163314+993197998+995941620+998405749
1138+1000176749+1001171334+1001774394+1001709238+1000179624+997690509+996382748
1128+998010023+1002358954+1007590364+1011581823+1013330122+1013551755
1120+1014028557+1016299504+1019992086+1022338212+1020985123+1017375828
1111+1015428302+1017041794+1020556598+1023661156+1026071185+1028183517
1103+1029167930+1028572535+1028278228+1030454758+1034906509+1039773444
1094+1043107079+1043465657+1041330182+1039728778+1041351778+1045812668
1085+1050549365+1053053516+1052149737+1048667069+1044952817+1043296503
1077+1045106641+1050495118+1057463107+1062519540+1063465479+1060879367
1068+1056934785+1053957222+1053266894+1054419725+1056455035+1059912790
1060+1065428041+1070956927+1073270401+1071777861+1069071830+1067982017
1051+1069258158+1071563082+1073179522+1073730325+1073741823+1073361354
1043+1072316576+1070735515+1069356186+1068905550+1069395987+1069976862
1034+1070094201+1070484178+1071876774+1073268706+1073140384+1071756707
1025+1070297998+1068786883+1067276064+1067163220+1069053919+1070778411
1017+1069260000+1064541951+1059968291+1058365560+1059752923+1062102882
1008+1063504985+1063961887+1064607770+1065054795+1062938778+1057555682
1000+1052285061+1051121026+1054180771+1057991577+1059308330+1057179488
991+1052311742+1046784625+1043327754+1042671478+1042683197+1041426294
983+1039455625+1037966622+1036376053+1033288226+1029116926+1026179901
974+1025818964+1026655450+1026244541+1023345622+1018214378+1012091792
965+1006794047+1003344105+1000860738+998088151+995613850+994729677+994645063
955+992779866+988048402+981864715+975890057+971190139+968823817+968877106
945+969344474+968142187+965784341+964304404+964601733+966183015+968024995
935+968998352+968621274+967595438+966854401+966462876+966014156+965343950
925+964556404+963906467+963667366+963794361+963909342+963715643+963133884
915+962095739+960628848+959001942+957518320+956205843+954821797+953161871
905+951443349+950456355+950777344+951763452+952087979+951440474+950901096
895+951422785+952473238+952644678+951465460+949695049+947920511+945880484
885+943588753+942083093+942018453+942396121+941642996+939707263+938485370
875+939490200+941565384+941974598+939466688+935472502+932497150+932316718
865+935127928+939167074+941805664+941885635+940298162+938366040+936943741
855+936964895+938995634+941575703+941770949+938765378+935370198+934775909
845+937178420+940230647+941986243+942563580+943073034+943761593+943742503
835+942450516+940507191+939039489+938895837+940195563+942323373+944389860
825+945379285+944042117+940211631+936359771+935741749+939159114+944539778
815+949165916+952038743+954138619+956418115+958415687+959616574+960505907
805+960452618+957510581+952461593+948943620+948371590+948652851+948464090
795+949186848+951708394+954839929+957076749+957547729+956132284+953948753
785+952567803+952380959+952682120+952681015+951746353+950218655+950137652
776+952949672+956698270+958085338+956943637+955486696+954220580+952101319
766+949596431+948325376+948491067+949230261+950425694+952146648+953817704
756+954989035+955569173+955114925+953442100+952071985+953247296+957065325
746+960906129+962327986+961738930+961374013+962408472+963996830+964894713
736+965143691+965538385+966308094+966899214+966289004+963611792+959453242
726+955840926+954122256+953750779+953653046+953131357+950896157+946224469
716+941384731+940035917+943167304+948339454+952338431+953541381+952216816
706+949431772+946483765+944314385+942256080+938608237+933304891+928760344
696+927281292+928881443+931822374+934081380+934438411+932645225+928425499
686+921822426+915452632+913494493+915845852+916707398+912193808+904874095
676+898602697+894662906+892016503+887814688+880698624+876645694+883950593
666+897275774+906029653+908097761+906059282+901187704+894274035+888647415
656+887835031+890984476+892713612+888097571+878110153+869548277+868106299
646+872397150+876566387+877768748+877522645+876800624+875158240+873898830
636+874868060+876987836+877763147+876724560+874390005+869969358+864061109
626+859835192+859030916+859647759+858562147+855731111+853574703+853703983
616+856414732+860336760+862420420+860465450+855629029+851097455+849462294
606+851081903+855291973+862375680+871797038+878183490
##END=
