##TITLE=<SNM>
##JCAMP-DX=4.24
##DATA TYPE=INFRARED SPECTRUM
##DATE=2/5/2025
##SAMPLING PROCEDURE=Instrument type and / or accessory
##ORIGIN=Admin
##XUNITS=1/CM
##YUNITS=ABSORBANCE
##RESOLUTION=4
##FIRSTX=4497.3318
##LASTX=599.83466
##DELTAX=-1.4281778
##MAXY=1.8339242
##MINY=0.36186486
##XFACTOR=1
##YFACTOR=1.707975e-09
##NPOINTS=2730
##FIRSTY=0.38399911
##XYDATA=(X++(Y..Y))
4497+224827127+224874047+224976089+224729396+224106155+223591028+223741473
4487+224503589+225072581+224694515+223573754+222744581+223001848+224095825
4477+225081951+225363699+225150334+224841069+224415350+223759620+223145313
4467+222930342+223076651+223308233+223538140+223856077+224237197+224477887
4457+224443931+224306556+224344752+224434020+224090085+223171434+222150812
4447+221587176+221638511+222030536+222265974+222096162+221896808+222246658
4437+223234599+224421859+225226376+225259965+224651731+224087432+224197814
4427+224890153+225543597+225827823+225940735+225931871+225311876+223734894
4417+221783756+220646523+220993547+222295690+223290575+223200190+222345803
4407+221379988+220433977+219422655+218568810+218217231+218515451+219306114
4397+220034118+220051200+219330333+218549686+218386678+219061410+220395624
4387+221924953+223033395+223200085+222177700+220144534+217887883+216492545
4377+216458380+217241889+217869317+218029376+218314718+219190393+220142650
4367+220342405+219786081+219109709+218539495+217632972+216117969+214707224
4357+214612668+216020272+217621769+218167502+217869806+217687342+217883538
4347+217928225+217345099+216198339+215044476+214539417+214873651+215631685
4337+216178464+216013537+215009090+213664912+212874267+213083863+213904137
4327+214689548+215142417+215170266+214664666+213842978+213387771+213792952
4317+214863234+216078604+216962409+216965917+215799805+214239715+213713595
4307+214604048+215781641+216212856+216095285+215973963+215851611+215615859
4297+215382444+215210014+215154230+215422647+215980035+216403887+216466616
4287+216388305+216330148+216059742+215331651+214419944+213920923+213891172
4277+213697437+213083636+212694141+213041689+213702270+214087891+214381592
4267+215075186+215929660+216051436+215156725+214174229+214125389+214916174
4257+215686981+215890400+215552083+214896684+214207696+213868541+214235457
4247+215319890+216596366+217409067+217589541+217400203+217106381+216876596
4237+216632712+215924931+214596859+213283182+212590565+212441813+212731779
4227+213734847+215390506+216937143+217543371+217005124+215965797+215418337
4217+215658521+216055572+216033708+215720884+215584049+215935366+216623796
4207+217000117+216640739+215995600+215730463+215811112+215816591+215707029
4197+215831650+216397012+217117251+217420409+217032572+216152500+215091117
4187+214220329+214089811+214896230+215909908+216091115+215301970+214393265
4177+214111430+214447758+215104745+216043881+217298476+218604737+219509464
4167+219716443+219236911+218312188+217204949+216042066+214900697+213971594
4157+213484421+213436331+213533766+213629805+214109057+215374627+216930652
4147+217629325+217004409+215796054+215055853+215102267+215422350+215451629
4137+215179740+214805112+214265713+213559399+213073865+213179832+213833120
4127+214708166+215422612+215711392+215591430+215270841+214920554+214660670
4117+214628267+214942470+215618371+216397501+216764120+216486193+215966216
4107+215634721+215310555+214731722+214351318+214831355+215927723+216609645
4097+216260282+215246657+214294051+213720557+213361598+212989098+212630976
4087+212439980+212478822+212831517+213594384+214506247+215000331+214896928
4077+214672692+214884888+215568049+216117969+215719087+214232020+212590565
4067+211867778+212126057+212605798+212803110+212862401+213025880+213189604
4057+213117121+212803250+212514766+212635827+213347883+214215495+214409562
4047+213725949+212983514+212997369+213545945+213772886+213331411+212678542
4037+212329756+212288192+212420350+212977547+214231653+215795094+216853685
4027+217064643+216859391+216827302+217037841+217088583+216704584+216077034
4017+215614707+215568607+215896664+216274730+216271013+215728718+214956098
4007+214449486+214521131+215217343+216372165+217558604+218177884+217923444
3997+217125557+216393243+215980716+215782356+215774679+216004743+216345363
3987+216743705+217416657+218288929+218651134+218010444+216984029+216735835
3977+217688860+219168948+220172697+220270359+219830367+219496900+219533194
3967+219717873+219726109+219462683+219169297+219268127+219852946+220399585
3957+220366555+219929040+219736055+220254061+221600525+223403208+224668691
3947+224758902+224468744+224870889+225440317+224686122+222480753+220255771
3937+219310668+220222426+222978344+226515153+228762243+228618115+227424958
3927+227095260+227699133+227896742+227320683+227226057+228479099+230204431
3917+230635612+228877650+225761360+223030010+221867406+222227168+223724303
3907+226838168+232231787+238839205+243845615+245367981+243542003+239174521
3897+233856020+230208985+230077822+232696748+234834014+234356594+233447505
3887+234816129+237383529+238502301+238766478+239978934+240371709+237772674
3878+234716723+234730629+237735491+241787689+245801098+248349775+247585686
3868+245129471+244488381+245662571+245360722+242255477+238930759+238193944
3858+241208140+248279560+257825080+262927669+257721102+247853981+240056250
3848+236341252+236609599+239890380+244742262+250025185+255136934+258943399
3838+259469153+256525275+252569814+249384915+246934615+244989357+243920889
3828+243791104+244502776+247245624+253275152+260042036+262015997+259153380
3818+256248256+253988411+249905887+244688537+241550575+242358775+246801514
3808+252264615+255764747+258173518+262131614+266195241+266422042+263687726
3798+261599003+260340325+258423299+256179054+254991602+255546338+258049386
3788+262456007+267987978+273563380+279364623+286679298+295225990+302253543
3778+306400105+310378878+317502051+328609163+342374233+356034890+366608797
3768+373323945+377293679+379465896+381203041+384154979+387943350+390187002
3758+390159886+390680876+395264883+405285415+418248463+427882502+431890693
3748+435929002+443898483+452744807+457048026+458854687+464335219+475958190
3738+493135119+512422843+526994228+532268654+532159807+534133385+541432060
3728+552680019+564700127+574564247+581020663+584006069+583734528+581744828
3718+580428481+580976307+583374208+586943001+589152454+586662143+580223352
3708+573832370+570070975+569360735+570569666+571628745+571482838+571082734
3698+571682732+573858578+578004477+584360456+592192475+598997066+600955812
3688+596855664+590508305+585832482+583868641+584335748+587228745+593399591
3678+602899412+610895137+610069593+603007316+598171313+596720889+592826499
3668+584125454+575587348+571460328+571480116+572661861+572946209+573050553
3658+574143624+575642661+576983122+579416897+584005894+589240396+590581799
3648+585039394+575918354+568224147+564036405+562648762+562278636+561875845
3638+561914442+563664534+567825613+574080738+581774212+589253588+591922784
3628+586350017+577309661+571176818+570068079+573899827+580949366+586814089
3618+587658198+584957105+582426138+581831584+583350233+586635412+590407240
3608+592219695+590828876+588209235+587331833+589057950+592205596+595907559
3598+600322276+604893964+608046146+609255636+609919672+611858317+615248643
3588+617146178+614116487+607844856+603204838+602118678+602813215+603432861
3578+604056276+604954616+605592270+606065973+607713779+611806529+617879242
3568+622495250+621466880+615488879+609314613+605943202+605267091+605906071
3558+606405878+605838509+604574160+603715324+603594089+603693687+603413876
3548+602086432+599508668+596978784+596199515+597220137+598693734+599695092
3538+600358779+600930476+600935082+599814862+598012597+596334430+594449388
3528+591443288+587871633+585753334+586344922+588392379+588687056+585317844
3518+580081701+576344386+575445837+576337616+577459617+577662024+576540303
3508+575164037+575278536+577069599+578483659+577194358+572971440+567635350
3498+563237803+560879337+560635820+561910359+563784094+565286760+565819057
3488+565487702+564938445+564712865+564555371+563618888+561674589+559597400
3478+558081193+556853382+555688353+554791897+553703328+551534218+548710284
3468+546753318+546378969+546916779+547218262+546676089+545563022+544511341
3458+543940272+544043989+544556534+544485761+543343066+542490232+543569448
3448+545901462+546994636+545428910+541871773+537870490+534919878+533801402
3438+533878456+533549858+531994391+530050093+528839557+528214536+527437222
3428+526703285+526829092+527828392+528767423+528754196+527595553+525985052
3418+525068112+525079384+524734453+522830811+519961336+517724174+516889558
3408+517078355+517501352+517533737+517074237+516593240+516467259+516300656
3398+515284955+513235055+510951689+509476872+509294949+510206027+511406688
3388+511698015+510434887+508324405+506566636+505603769+505300961+505538615
3378+506026906+506384120+506693001+507183141+507688287+508122835+508599645
3368+508511772+506909402+504316458+502606777+502854447+504548528+506498690
3358+507587537+507297746+506258243+505676113+505836922+505903053+505363253
3348+504776690+504810297+505307417+505522667+504844811+503320962+501738763
3338+501032117+501371812+501948918+501947766+501551536+501453753+501628381
3328+501421088+500755551+500191428+499765814+498894100+497467407+496010317
3318+494845671+494002644+493723915+494212729+494916828+494886257+493963803
3308+493025400+492866335+493186139+493103676+492520323+492228787+492655343
3298+493294637+493487587+493125626+492556966+492254437+492458449+492818351
3288+492722731+492312856+492589316+494048954+495830419+496718115+496514347
3278+495908206+495393777+494838273+493941014+492791794+491930061+491871293
3268+492445363+492679911+491785305+490306404+489639576+490200943+490680334
3258+489597803+487234521+485299855+484790590+484893260+484420115+483714376
3248+484061016+485540999+486717929+486578861+485675321+485042239+484923656
3238+484804480+484180053+483060390+481762993+480507578+479520458+479131835
3228+479243229+479130858+478276559+477072444+476332854+476319453+476459672
3218+476047948+475018252+473746365+472399378+470827056+468979634+467174647
3208+465972696+465699829+465883950+465582957+464597511+463729323+463594128
3198+463877778+463927473+463503429+462828993+462304514+462145589+462038592
3188+461336029+459823696+458065263+456768843+456088021+455736146+455388494
3178+454656965+453136326+450943346+448859770+447571516+447001320+446593923
3168+446018911+445315580+444561856+443780808+443061668+442424608+441688438
3158+440779768+439934612+439304880+438650790+437654003+436292114+434763484
3148+433319655+432299452+432001180+432260122+432384358+431805717+430644701
3138+429449031+428652173+428414973+428590055+428696668+428231271+427034484
3128+425302295+423462934+422058610+421474001+421602879+421794747+421300559
3118+420032336+418726843+418008820+417647034+417167537+416672581+416502070
3108+416543913+416363631+415778359+415046097+414562169+414361541+414030570
3098+413283896+412341270+411485191+410611942+409516185+408325610+407419069
3088+407086283+407282618+407588672+407537023+407100242+406633065+406280945
3078+405814640+405125443+404467444+404052299+403728971+403224906+402503324
3068+401724334+400981882+400276981+399674086+399220099+398757878+398098448
3058+397303894+396589116+396048583+395575892+394961620+394092175+393144978
3048+392462586+392185043+392160894+392140409+391892948+391292112+390451179
3038+389660289+389097177+388667654+388165893+387497251+386615871+385392841
3028+383884102+382615042+382099566+382129578+382038006+381531534+380825097
3018+380181406+379729863+379547208+379563470+379455182+378876995+377832362
3008+376729974+375982777+375562188+375057077+374172521+373071319+372199641
2998+371793081+371588929+371169003+370553335+370124196+369935504+369543112
2988+368649030+367497645+366495902+365814627+365446071+365304455+365174356
2978+364807370+364158829+363407164+362704985+362019312+361285585+360591885
2968+360041337+359578975+359184490+359004347+358975382+358643434+357776257
2958+356813705+356261656+355979507+355506606+354820445+354319451+354203800
2948+354244107+354085008+353557422+352785168+352117397+351837587+351860061
2938+351807016+351370828+350514923+349415362+348318244+347404862+346742327
2928+346316957+346032889+345716958+345251665+344695847+344192411+343740903
2918+343125724+342187181+341190289+340664065+340712573+340755288+340174622
2908+339073107+338168764+337956132+338176616+338253566+338046377+337846971
2898+337781049+337640829+337259885+336687630+336017277+335303616+334643105
2888+334179068+333982942+333970763+334000007+334035603+334096290+334057240
2878+333705051+333030545+332287849+331693783+331221092+330798374+330570875
2868+330700556+330927915+330674801+329731094+328565785+327777826+327464304
2858+327305554+327049229+326651080+326070624+325251885+324343774+323682320
2848+323418981+323324233+323105179+322759481+322439189+322153341+321841598
2838+321568941+321383948+321166814+320891470+320798188+320972607+320987404
2828+320331603+319059019+317742637+316896225+316600535+316576142+316487013
2818+316197989+315785775+315353566+314923624+314504955+314138562+313832473
2808+313531619+313198484+312866780+312556573+312168963+311558285+310752808
2798+310023094+309628225+309511562+309346146+308905037+308282495+307704656
2788+307277123+307032698+307032698+307198393+307196229+306742802+305925145
2778+305052350+304318274+303723894+303197390+302682263+302139462+301524073
2768+300837319+300191918+299681293+299221793+298716053+298251563+297922441
2758+297638268+297297386+296923735+296512534+295986169+295376888+294839217
2748+294430389+294028994+293529257+293019120+292658747+292429224+292124549
2738+291569673+290763847+289870671+289122462+288664532+288475630+288436632
2728+288382034+288116671+287569001+286927439+286458988+286189001+285881377
2718+285331683+284583543+283829488+283188990+282667215+282267478+282036995
2708+281998730+282047604+281958109+281623787+281255789+281120368+281132251
2698+280953487+280430927+279738012+279138991+278706136+278265446+277668448
2688+277055241+276688569+276604779+276597241+276442312+276040795+275463882
2678+274915532+274557934+274371544+274210281+273940154+273520072+273019096
2668+272588910+272379680+272406132+272493778+272442356+272228468+271944155
2658+271614510+271222031+270822817+270509121+270333741+270310238+270365952
2648+270301810+269977522+269547266+269310292+269294745+269208199+268856795
2638+268376217+267983843+267737830+267587682+267469902+267326891+267144567
2628+266948179+266723315+266413283+266018100+265639074+265391631+265279225
2618+265168581+264919672+264535936+264170206+263998893+264063716+264197217
2608+264169962+263957068+263752950+263677658+263621560+263452236+263223288
2598+263070157+263005421+262929012+262790729+262659409+262649585+262812069
2588+263066039+263226412+263154417+262902943+262668674+262574276+262544368
2578+262444491+262282006+262156915+262072253+261963982+261880925+261927270
2568+262056967+262147021+262233481+262433236+262689508+262843460+262884291
2558+262898860+262880417+262778969+262606992+262380924+262115631+261894204
2548+261775970+261681013+261492268+261183701+260792845+260380859+260017049
2538+259713071+259414468+259105936+258876413+258832878+258923804+258899044
2528+258596061+258228412+258162333+258437607+258731814+258747849+258454882
2518+258010527+257598803+257327612+257205015+257174899+257175858+257176923
2508+257146945+257026618+256815049+256637507+256603551+256669630+256745062
2498+256800096+256795786+256674429+256467641+256262529+256066212+255842272
2488+255650945+255601948+255651084+255588443+255312383+254992387+254839884
2478+254836534+254817148+254701531+254518963+254300171+254032278+253692111
2468+253325544+253077194+253059186+253197905+253306455+253274681+253097888
2458+252807364+252494278+252290265+252193807+252033574+251709443+251337222
2448+251088924+251039823+251174284+251347709+251282781+250834868+250228081
2438+249828885+249747276+249823738+249902310+249930822+249877916+249742216
2428+249602555+249522569+249450470+249300549+249080850+248893954+248848971
2418+248963349+249118208+249164430+249107302+249114997+249300584+249561951
2408+249701822+249676870+249627280+249637191+249611855+249497059+249474968
2398+249768564+250354098+251091506+252147585+254128718+257770203+263630424
2388+272123757+283694503+298815896+317814666+340703709+367106650+396268161
2378+427191210+458887666+490404502+520468436+547534471+570749145+590472081
2368+607222557+620549695+629424147+633197441+631942236+626716214+618962611
2358+608383469+592802838+570776401+543369239+515118981+492937736+481998414
2348+483775203+496595728+515505579+533357815+545363930+551059398+552204187
2338+551455314+550986357+551210191+551448474+551221428+550377424+548626355
2328+545546376+540911070+534774947+527339228+518910143+509894948+500509382
2318+490593753+480068947+469341001+458841426+448400270+437478013+425861602
2308+413797103+401659354+389833731+378722641+368521687+359029788+349886692
2298+341002818+332616343+324918157+317781234+310938535+304288018+297929212
2288+292055503+286892943+282585223+279059721+276096946+273526022+271275582
2278+269286091+267482727+265839475+264401945+263190380+262108093+261031302
2268+259961491+258986184+258143855+257435184+256863209+256357155+255789315
2258+255151504+254576021+254130812+253720762+253229505+252671279+252161265
2248+251755054+251362785+250877984+250342808+249881511+249522290+249200916
2238+248886277+248606326+248397847+248278705+248231262+248211893+248186680
2228+248123113+247987832+247827284+247776595+247890537+248038556+248044506
2218+247869301+247604810+247337284+247080104+246857107+246779668+246930689
2208+247205108+247408667+247507393+247643093+247894026+248148641+248260105
2198+248235362+248195858+248206327+248246215+248323584+248494287+248749250
2188+248981094+249101928+249124455+249078546+248936530+248724752+248626288
2178+248803848+249161638+249439739+249499537+249392330+249219499+249046406
2168+248910566+248833878+248827771+248870957+248875005+248731627+248436444
2158+248100831+247806625+247539307+247301461+247160648+247125279+247111337
2148+247080941+247103730+247287519+247730565+248482648+249503288+250736752
2138+252223697+254067455+256321350+258933994+261760650+264661655+267641687
2128+270864311+274521099+278685319+283250533+288032148+292936377+297923419
2118+302840490+307449518+311526284+314792862+316928156+317790028+317500132
2108+316252011+314131618+311168581+307536204+303597319+299675674+295856035
2098+292031389+288047346+283858331+279642829+275659781+272000148+268642976
2088+265644117+263078968+260934723+259194908+257891508+257002416+256383154
2078+255837474+255271849+254771502+254459934+254321808+254248208+254173579
2068+254083508+253959621+253771417+253516453+253277141+253176408+253239155
2058+253370789+253458540+253406961+253176373+252899180+252830396+253084208
2048+253515685+253918616+254261365+254639204+255025331+255240302+255223533
2038+255136917+255133061+255216763+255353912+255551416+255829185+256179124
2028+256526409+256767536+256891650+257003323+257243717+257725988+258414557
2018+259028620+259257044+259103720+258851880+258736211+258791786+258920402
2008+258993321+258953293+258870637+258876919+259046435+259323733+259530782
1998+259543677+259575940+260096860+261211026+262290556+262588165+262093645
1988+261393699+260947896+260842557+260948751+261073162+261109002+261111550
1978+261183422+261369916+261656288+261967454+262286281+262815664+263723043
1968+264658008+264949650+264468094+263839794+263647419+263876663+264238327
1958+264604981+264958235+265233107+265413076+265616041+265993549+266607315
1948+267464109+268686825+270406573+272162546+272806446+271775127+270002683
1938+268775971+268421793+268525196+268728563+268978623+269330882+269751872
1928+270215717+270990624+272340053+273837869+274806441+275452348+276313539
1918+276821914+275987942+274283724+273217612+273509044+274613473+275475991
1908+275478731+274883792+274379204+274296269+274471055+274705953+275098693
1898+275872780+276899387+277660753+278099419+278963525+280510110+281597788
1888+281161216+279822867+278825643+278511563+278570749+278756772+278955934
1878+279130284+279344609+279733999+280746682+283253325+287554833+291925788
1868+293290102+290829891+287086015+284606366+283882306+284143237+284629347
1858+284994256+285186473+285307551+285505335+286011127+287133825+289104419
1848+292139398+296258268+300145434+301069669+298318811+294734803+292877295
1838+292801183+293253878+293662462+294937245+298137866+302368462+304973690
1828+304989185+304097126+303177219+301462514+299099127+297548371+297481507
1818+298164458+298762502+299431459+300874311+303080133+304942143+305461876
1808+304975191+304669242+305527973+307915334+311255337+313966970+314704954
1798+314047200+314173321+316841331+321584785+325045011+323953127+319857830
1788+316870819+316701425+318295000+320218849+322122317+323801042+324668463
1778+325127440+327010807+331826395+338755816+344090579+344583616+341435621
1768+337522630+334468162+333592191+335628061+339006382+340978320+341329427
1758+341732846+342444413+343317278+345875569+351447743+358307333+362491061
1748+362501914+360607554+359348021+359735353+361599700+363868549+365307631
1738+366688888+370699697+377875775+383210539+381581473+376010625+370924927
1728+367353238+365566747+365752334+367300437+370157454+375904850+385595144
1718+396192328+400669547+396620559+389342649+383682148+381297230+382536836
1708+387061725+393017496+397777806+401484655+407044615+415021948+421138772
1698+422299300+419720489+414025056+407157335+403295784+404005397+407759602
1688+413568976+422722611+434508241+441003847+436683319+428608900+423971361
1678+424509730+428915233+433984424+437454701+440817248+445460546+448347574
1668+446288392+442735408+442779693+446577940+450058790+450370986+449832513
1658+452636066+461410954+476687765+493332152+498632436+493920146+492764434
1648+497908306+502616374+500561484+495401908+493367678+496255579+503902150
1638+515868412+529245767+536748315+535435703+532673678+534878349+542580932
1628+553009140+563757223+574875222+586385962+596353135+604419144+613787261
1618+626692902+639759143+647052723+649716476+653019836+658630990+664931656
1608+670157678+674060025+677273628+680178873+682701080+684930354+687506095
1598+691083752+695599533+700327074+704752470+709118190+713675709+717923474
1588+721350163+724338326+727527570+730882928+734140782+737860962+743360443
1578+751079358+758561037+762183782+763641186+767913659+776379946+786062771
1568+793527001+799466056+806676230+816752982+830968549+851367944+876110376
1558+891645082+891025785+885201683+880679062+878002677+876634612+875474747
1548+874195881+874430603+877712606+883732205+891022434+895588399+890395599
1538+877387707+866782462+861822780+858652451+852845938+845702279+841885502
1528+843181259+847858617+853492874+858919349+862561009+862323076+859254648
1518+855684319+851316714+846232238+843279741+844944717+851188779+860332223
1508+868373175+867484537+856111678+844701409+839212397+838762773+841122775
1498+843671504+843512440+840405345+837823044+838649565+842278871+845070140
1488+843657196+838712520+833461721+829959024+828082567+827108150+827469133
1478+830092544+834762503+840214105+844348034+843848925+838108229+832299623
1468+831234541+834555419+837546583+836591848+834631985+836834179+844119453
1458+851372551+850509388+842028793+833756817+828885008+826997733+827067878
1448+827017066+824660206+820513714+817075787+815856736+817126180+820932208
1438+826146993+829093558+827150795+823221298+820987626+820412021+819522056
1428+817966380+817320631+818223717+819760548+821675742+824616444+827260025
1418+826189708+821069357+815192420+810712794+807929900+806782808+807178549
1408+808647679+810103826+810202378+808957153+808362563+809914261+812651229
1398+814543041+814787536+813480751+810702394+807606676+806273369+807440911
1388+809411104+809717577+808366681+807854451+809866800+813977278+818931445
1378+823967553+828872794+833268596+836348680+837772652+838303867+838807303
1368+839566750+841010962+843786458+847405783+849820993+849415201+846840577
1358+843965274+842136906+841781786+842735614+844508494+846164815+846605366
1348+845557942+843974836+843275832+844414758+847339477+850878328+853427057
1338+854252670+854021716+853946965+854795052+856617418+859024462+861567817
1328+863853137+865514693+866482899+867337966+868982422+871766293+875148033
1318+878411889+881580962+885208593+889400104+893645007+897635646+901677235
1308+906055937+910339927+913700798+915899432+917478281+918922005+920168974
1298+921078761+921856076+922686016+923353612+923593221+923569490+923585124
1288+923326880+921868709+918683862+914396452+910373010+907801527+907063787
1278+907640090+908654431+909621101+910455927+910899898+910622669+909984806
1268+909919547+910858369+912314237+913543270+914233479+914658116+915552408
1258+917755719+921472967+925699654+928698496+929623498+929561171+930198545
1248+931639686+932493776+932035567+931050331+930363053+929857174+929392405
1238+929480557+930172162+930172790+928273440+925180514+922631087+921127548
1228+919823276+918278558+917038428+916519916+916323930+915927421+915612642
1218+916234940+918049000+920234861+921784884+922431053+922622921+922934908
1208+923636564+924758669+926217957+927811532+929532136+931858007+934946676
1198+937739480+938935220+938980238+939817926+942301047+945178026+946877202
1188+947502501+948582590+951014969+953998316+956204279+957461788+958723833
1178+960769056+963666485+967276667+971256766+974467228+975587798+974903032
1168+974539606+976138206+978858284+980598081+980826383+980931007+982072166
1158+983734490+984464832+983912678+983746006+985554831+988269604+989127812
1148+987518463+986055127+987275923+991083976+995548248+999146704+1001836002
1138+1004160059+1005783088+1005842763+1004748506+1004079096+1004758417
1130+1006820182+1010197804+1014309050+1017653938+1019144146+1019291834
1121+1019343831+1020085620+1021744943+1024064184+1026330519+1028202370
1113+1030013917+1031481860+1031833142+1031616635+1032782991+1036545049
1104+1041712721+1045381601+1045535431+1043118406+1040820732+1040109863
1095+1040273185+1039860344+1038184759+1035341492+1032294072+1030757450
1087+1031628431+1034092637+1037032222+1040357010+1044689577+1049853062
1078+1054587443+1057756098+1059006069+1058535367+1056870739+1055229145
1070+1055275559+1057841248+1061884303+1065470825+1068086697+1070603809
1061+1072951317+1073548629+1071277267+1067319852+1064479726+1064885169
1053+1068421228+1072133661+1072534427+1069595122+1066956565+1067509836
1044+1069709517+1069678458+1066479093+1062902483+1061659282+1063256836
1035+1066118668+1067841016+1067802419+1068197114+1070831552+1073741823
1027+1073484696+1069700373+1064704956+1060482527+1057871749+1056832212
1018+1056875486+1057673529+1058664279+1058880995+1058378885+1058579338
1010+1060080155+1062100670+1064060533+1065280213+1065257669+1065307433
1001+1066649255+1067232887+1063938460+1057612458+1052383086+1051070648
993+1053561028+1058137601+1062959925+1066256654+1066102894+1062050138
984+1056215916+1050964698+1046801804+1043026765+1039078213+1035371364
975+1033804870+1036258956+1041349784+1044144473+1041436540+1035759428
967+1031551167+1029923881+1028843443+1026603002+1023574776+1021044962
958+1019508828+1018523592+1017531517+1015958531+1013114078+1008720230
950+1003816943+1000519027+999775493+999822187+998360735+995587264+992914089
940+989843288+984960940+979478977+976567869+977290045+979656747+981639363
930+982791131+982564784+979944584+975655151+972338599+971852402+973434461
920+974589789+974072533+973528755+975149620+978610649+981299039+981022858
910+977961270+974349762+972323872+971576639+969670519+965639050+961770066
900+960543686+961716742+963306479+963948041+963443139+962345392+961910635
890+963179799+965358123+966197346+964630224+961623216+958294660+955242145
880+953249618+953087901+954394826+955764357+956705691+957926836+959404620
870+960101810+959817741+959590068+960140965+961294757+962368564+962140542
860+959706557+956208118+954189487+954933020+957801204+961596205+964799548
850+965358891+962591422+958616069+956034047+954666819+952390642+949032562
840+946863941+946992016+947873396+947959942+947860693+948967164+951616538
830+955096272+958475430+960949548+961420250+959005738+955053976+953028086
820+954678266+957847339+959643601+960053511+960598266+961583642+962359560
810+962815466+963402657+964337710+965163881+965046834+963896182+962752161
800+962680970+963417384+963706129+963411033+963883200+965645472+967498477
790+968560628+969156614+969306953+968177520+965047741+960634700+957392481
780+957299164+959648138+961807337+962677201+963996130+966789423+968795979
770+966554561+959837284+953038207+950622508+952489264+955433734+958122474
760+961709623+966060896+968868846+968643057+966365065+964168037+963425550
750+963687074+963377042+962315170+962737993+966396334+971613701+975091899
740+976288616+977299607+978678421+979028865+978215815+977333807+976376280
730+974849359+973703384+973728580+973352451+971566170+970893758+974383543
720+981205653+986513196+986277217+981783142+977591143+976540718+978045094
710+980285676+981583736+980262573+976844958+974741176+975408004+975468587
700+971832301+966661697+963832389+963820454+963996479+962148568+957902896
690+952640441+949329334+949833189+952269966+952623411+949505079+945488198
680+942814046+941149558+939957448+940186936+942692113+945797393+945911229
670+940868631+933616370+931301456+933792116+934565661+930563925+923628258
660+917866205+915582700+916286868+919538231+925472749+930688511+928248384
650+917082609+906084763+904091538+911143624+919901587+922687552+917624991
640+908652825+900896570+896833903+894933017+892033844+887918760+886231868
630+889823903+896652434+900972578+898545014+890888217+883304567+880076098
620+883058537+891004218+898052256+897347390+888375712+878637608+876212976
610+882578971+890986699+891595666+881961139+870970482+868765916+873786040
600+876397237
##END=
