##TITLE=<SNM>
##JCAMP-DX=4.24
##DATA TYPE=INFRARED SPECTRUM
##DATE=2/5/2025
##SAMPLING PROCEDURE=Instrument type and / or accessory
##ORIGIN=Admin
##XUNITS=1/CM
##YUNITS=ABSORBANCE
##RESOLUTION=4
##FIRSTX=4497.3318
##LASTX=599.83466
##DELTAX=-1.4281778
##MAXY=1.8340578
##MINY=0.35858014
##XFACTOR=1
##YFACTOR=1.7080994e-09
##NPOINTS=2730
##FIRSTY=0.37770247
##XYDATA=(X++(Y..Y))
4497+221124406+221351854+221389802+220631719+219403213+218541840+218773545
4487+219986209+221133601+221379194+221069638+221069603+221556776+221885542
4477+221375792+220211301+219531715+220245987+221866612+223034627+223066626
4467+222496123+222310567+223021768+224192471+224757373+224100871+222733568
4457+221713509+221616308+222132968+222415689+221863715+220816473+220343589
4447+221092826+222446450+223051866+222160081+220235518+218367957+217392720
4437+217446686+218006720+218360594+218192520+217667503+217143515+217187937
4427+218435688+220651680+222358077+222243935+220576498+218537600+216877770
4417+215917364+216040754+217427511+219624065+221579266+222047666+220562574
4407+218305005+217257099+218206426+220076430+221268977+221216791+220492958
4397+219760209+219013171+217946439+216863969+216760208+218093784+219830471
4387+220374384+219421481+218068939+217025970+215897997+214540971+213812654
4377+214373596+215661774+216474380+216151791+215118279+214382913+214419065
4367+214773810+215012773+215259832+215410824+214833970+213401849+212003647
4357+211506546+211813799+212356944+213055129+214197828+215498149+216035171
4347+215500959+214677011+214244989+213967676+213457490+212924150+212686548
4337+212690648+212804703+212980401+213110770+213166847+213258970+213313355
4327+213046563+212472901+212023677+212038786+212461054+212961156+213206278
4317+213113143+212831119+212510222+212183811+211796735+211265681+210646586
4307+210260051+210380945+210841581+211311062+211834422+212641201+213509048
4297+213775648+213096777+211938375+211148939+211157401+211721728+212378858
4287+212942034+213479334+213874628+213673736+212595942+211076636+210008630
4277+209929313+210640375+211570352+212403355+213305974+214454553+215516435
4267+215953237+215698989+215083227+214278349+213352263+212678173+212719559
4257+213449551+214370647+215053339+215350664+215235789+214813835+214394952
4247+214221138+214187377+214140181+214254865+214665949+214934433+214470832
4237+213415197+212595314+212588283+213140658+213587091+213728713+214012953
4227+214700216+215321387+215228880+214280216+212871196+211760165+211764282
4217+212965187+214380540+214981978+214731238+214134406+213336316+212275307
4207+211334931+211241481+212244669+213631041+214292726+213870441+213126298
4197+213041416+213751064+214540605+214708521+214185318+213370129+212697453
4187+212478310+212888923+213877751+215077713+215863992+215723102+214794852
4177+213842926+213529985+213949182+214754548+215383257+215407614+214992866
4167+214725794+214859705+215092701+215083576+214805094+214439827+214225082
4157+214247240+214192489+213597769+212569928+211953694+212467754+213837203
4147+215078691+215551644+215450291+215261420+215051350+214535842+213730214
4137+213113213+212995982+213103843+213033739+212851463+212985496+213650373
4127+214515480+214969364+214712464+213970433+213144025+212542273+212409374
4117+212839093+213604835+214307906+214711034+214783145+214595757+214326191
4107+214134755+213991632+213864753+213955917+214365814+214688875+214434366
4097+213724090+213099063+212805977+212754349+212963547+213516079+214142799
4087+214288870+213675359+212611750+211698976+211331249+211489342+211865078
4077+212125187+212144885+212030429+211931850+211922062+212059427+212410526
4067+212955835+213579937+214133970+214445690+214413185+214136884+213774199
4057+213351164+212932455+212723467+212753233+212784935+212766981+212992667
4047+213618287+214344424+214656702+214201143+213035588+211705117+210900833
4037+210860965+211253398+211718256+212299803+213162956+214004927+214154733
4027+213495229+212893651+213229903+214243367+214907546+214778713+214338247
4017+214098447+214012325+213861350+213690486+213646605+213708195+213737891
4007+213671223+213627063+213855645+214428748+215043830+215425812+215779929
3997+216403997+216990447+216898428+216103775+215231113+214648955+214241430
3987+214085064+214542210+215479097+216108730+215923104+215334333+215221901
3977+216088316+217633131+218943258+219181488+218274961+216936987+216026743
3967+215948264+216613107+217781157+219158353+220297108+220879738+221030642
3957+220970047+220653895+220117642+219845336+220428507+221844750+223239445
3947+223869462+224167992+224894303+225464928+224533904+222222736+220158452
3937+219558689+220608113+222974956+225856628+227906884+228209060+227354020
3927+226743073+226962233+227348454+227199347+226892669+227195229+227992726
3917+228287888+227280967+225243517+223289642+222441023+223092048+225386239
3907+229712279+236104366+243004109+247550653+248018965+244877900+239568684
3897+234071645+230670051+230686277+233294282+235444042+234851276+233578312
3887+234788447+237931082+240067582+240890937+241897073+241682101+238650728
3878+235804127+236624707+240553342+245159295+249243494+251473984+250133533
3868+247143669+246185235+247055890+246247784+242532185+238809066+238263164
3858+242397175+251703351+264143770+270611317+263379737+250323050+240611460
3848+236756001+238147800+242824433+248422058+253656301+258417573+261724531
3838+261414696+257679188+253608338+250996267+249247943+247713213+246814048
3828+246724751+247240294+249566764+255333195+262428299+265273802+263315321
3818+260991834+258589589+253408719+246834880+242936639+243713845+248450829
3808+254061139+257502339+260018290+264502441+269383561+270228900+267566022
3798+264992319+262719745+259675043+256986011+256394186+258076838+261325119
3788+265676877+270615435+275278267+279701788+285283204+292632224+300094567
3778+306053079+311552125+318836903+329280020+342801879+357130658+368674303
3768+376103303+380464134+382426332+383371017+385908464+390456438+393975978
3758+394464094+394785759+399516515+410626202+425104018+435190784+437774572
3748+439595548+446251199+455524834+460750720+462235410+466553180+477243042
3738+493580080+511553184+525697366+533275125+536608359+540016234+545664493
3728+553109649+561084901+568957630+576598724+582650371+584974259+583966273
3718+582720511+583780107+587813445+593576125+597351029+595799305+590303155
3708+583929110+578287900+574805629+574407613+575649502+575875449+574660673
3698+573585898+573689258+575320090+579395024+586841960+595891149+601069472
3688+598941557+593114530+588001601+585063870+585201567+589526665+598327539
3678+609920735+618700533+618075767+611125949+605764286+602190728+595902455
3668+587279128+580632900+577453414+575964397+574318595+573274283+575127398
3658+579631474+582717650+582320053+582708123+588648350+598998995+605173230
3648+600475066+590299945+581670860+576028430+572371437+570118143+569449549
3638+570003581+570751283+571761362+574735314+581174510+590067123+596204021
3628+593907770+586097783+579592357+577770368+581435003+588595379+593933034
3618+594145198+592559834+593103713+595447979+598062614+601104996+603791934
3608+603384915+599774578+596710072+596784958+598776153+600095545+600519871
3598+602030280+605245951+608282401+609403796+609842221+612672300+618971251
3588+625070879+625490112+620362875+614955639+612784453+613150226+613500156
3578+612513317+610745032+609201543+608728782+610571742+615880923+623561727
3568+629113500+628644437+623884858+618800264+614803774+611758252+610156977
3558+610536986+612173855+613765221+614887453+616153804+617931091+619388947
3548+619140353+616722737+613217364+610179589+608422401+608047905+608507057
3538+608309829+605992502+601740090+597224359+594306554+594396723+597666832
3528+602109213+604722173+604370638+602055195+598748237+594892725+591321610
3518+589075678+588598310+589323644+589671760+588157094+585035256+582030840
3508+580586768+581390407+584522330+588641581+590772986+588755618+583952559
3498+580025163+579385951+581558532+584253427+585408426+584349493+581605152
3488+578363484+575898759+574465330+572750609+569765910+566808917+565749216
3478+566403573+567311688+567763373+567637820+566563289+564376365+561495967
3468+558836771+557931482+559722728+562531869+563104501+560531252+557266029
3458+555959758+557072220+559066173+559780619+558381213+556392530+555976822
3448+557218152+557957060+556659130+554352062+552859694+552254261+551114092
3438+548863380+546679702+545909737+546383964+546763171+546168416+544769288
3428+542945276+540948811+539442486+539094964+539339859+538668787+536611011
3418+534351017+533107872+532927917+533222084+533753435+534711939+535975358
3408+536692422+535962971+533831845+531281801+529495929+529170321+529830854
3398+529926084+528555326+526587022+525150731+524194181+523406315+523167945
3388+523659969+524248653+524448324+524540866+524756414+524661743+523917915
3378+523139296+523203992+523785976+523601659+522352023+521257532+521243190
3368+521626445+521153056+519822638+519055429+519921845+521659561+522462572
3358+521571416+519871456+518596207+518179522+518107045+517518571+516187978
3348+514698542+513537296+512660831+512260023+513063243+515253098+517860963
3338+519467159+519083311+516798087+513940965+512097271+511760462+512164061
3328+512251404+511582775+510519236+509762252+509583763+509479007+508845657
3318+507809267+506977991+506596132+506391925+506357378+507005070+508474441
3308+509972846+510457786+509708897+508535054+507929167+508151625+508652093
3298+508835957+508699062+508471824+507923933+506622862+504934941+504118670
3288+505045664+507175150+509228633+510656968+511776584+512714360+513198811
3278+513251015+513078667+512394475+510813543+508795757+507263121+506440813
3268+505881720+505520345+505851676+506907852+507835055+507895842+507284756
3258+506515663+505588286+504123870+502019125+499768343+498282431+498263762
3248+499460601+500717669+501084035+500565247+499587445+498366598+497125477
3238+496321245+496243115+496577621+496564884+495720139+494347951+493082752
3228+492023086+490889129+489920051+489757544+490341900+490709069+490162329
3218+489052205+488084140+487401029+486669938+485687705+484623189+483830088
3208+483531175+483559510+483469131+482944201+481950837+480652313+479400653
3198+478456212+477525694+476152773+474638317+473780486+473739588+473873482
3188+473572266+472748108+471712625+470809814+469997835+468927840+467536739
3178+466176102+465081680+464254243+463796277+463687159+463415674+462433162
3168+460844658+459239195+458019116+457218862+456668877+455989744+454771026
3158+453081954+451483505+450349512+449540151+448806721+448110944+447457564
3148+446793088+446145222+445637181+445352470+445213273+444972042+444385486
3138+443451828+442473398+441797965+441429122+441005283+440264491+439318863
3128+438346017+437410718+436718151+436492693+436495973+436281367+435939567
3118+435886771+435972509+435504004+434220485+432676996+431477086+430588687
3108+429688353+428796953+428107142+427415727+426319317+424937532+423953555
3098+423862897+424407298+424795613+424459292+423530693+422555335+421928650
3088+421680335+421552653+421194872+420496442+419756069+419366149+419394693
3078+419600436+419701283+419427041+418463791+416746803+414878404+413825438
3068+413942581+414541943+414642162+413920876+412763644+411689845+410969013
3058+410582792+410304118+409846292+409114712+408336616+407788271+407408366
3048+406890380+406124289+405292211+404576159+404052415+403809544+403874903
3038+404016752+403868133+403335387+402693383+402145980+401454216+400220353
3028+398498375+396902473+395985006+395606741+395161965+394406098+393667818
3018+393194882+392833367+392482669+392280834+392149663+391653138+390515586
3008+389028139+387834650+387331355+387233892+386851405+385906894+384897966
2998+384482433+384690513+384894511+384444187+383261167+381888630+380980166
2988+380655604+380405545+379775580+378953621+378372963+378012425+377563706
2978+377040521+376643447+376232974+375515108+374598373+373878623+373446444
2968+372957806+372122970+371140144+370519287+370455080+370505887+370098589
2958+369247981+368484682+368187478+368252384+368246731+367737469+366728890
2948+365787589+365402868+365377918+365231707+364907843+364641697+364439548
2938+364052978+363245815+361951374+360396893+359064695+358303000+358019616
2928+357885618+357720039+357520020+357221106+356684766+355934935+355153699
2918+354447349+353870111+353540350+353409842+353145789+352557349+351887220
2908+351481283+351422973+351529822+351464184+350934264+350006608+349082231
2898+348429340+347935955+347420831+346956025+346706350+346616075+346490557
2888+346295074+346140976+346051539+345922636+345620512+345017557+344109546
2878+343171560+342578200+342388754+342294397+342033659+341653998+341259472
2868+340757713+340089363+339471507+339102489+338817150+338350600+337767255
2858+337309080+336969444+336544349+336026608+335647435+335523941+335486393
2848+335288398+334848019+334268652+333714340+333262376+332843214+332345537
2838+331738603+331049107+330371859+329961211+330068444+330577113+330973768
2828+330783624+330011076+329142707+328671760+328591536+328450908+327925175
2818+327158246+326481626+325986462+325509269+324954049+324448277+324154772
2808+324076642+324085645+324005455+323658073+322965122+322000581+320922176
2798+319975013+319483094+319556444+319855462+319904246+319585337+319138712
2788+318741011+318275682+317566435+316715827+316016735+315528445+314987742
2778+314213136+313377708+312793072+312559273+312458077+312142902+311472773
2768+310653676+310009892+309675456+309518636+309261179+308684359+307836718
2758+307006454+306420352+306057057+305774859+305453857+304993623+304391539
2748+303864934+303669416+303723818+303604720+303000717+302028430+301011790
2738+300128346+299435220+299053919+299028062+299083650+298856831+298339926
2728+297820998+297433032+297043182+296541213+295985506+295456842+294958746
2718+294509539+294173811+293890915+293410965+292592164+291675569+291072125
2708+290940482+291090183+291194782+291035398+290651200+290272552+290025737
2698+289749139+289189576+288350815+287562635+287142652+287033133+286891999
2688+286528443+286084016+285775385+285630307+285517212+285322199+285017197
2678+284592975+284061293+283553775+283231098+283040710+282763990+282313841
2668+281793604+281328607+280987575+280767246+280613619+280548854+280641989
2658+280773283+280676012+280272570+279740085+279284196+279007546+278859223
2648+278634201+278187209+277631031+277195904+276979501+276898823+276794503
2638+276574506+276290563+276035077+275810805+275571859+275309795+275051692
2628+274837871+274698307+274622689+274581862+274548118+274476495+274353769
2618+274249990+274214153+274147886+273867660+273294557+272598744+272102167
2608+271921776+271840208+271697364+271646940+271803585+271972060+271971728
2598+271900908+271888520+271875714+271768899+271583605+271370691+271148845
2588+270924450+270684842+270406063+270144453+270040169+270128401+270247534
2578+270254443+270207369+270203688+270181843+270045298+269859847+269762507
2568+269754393+269732340+269698578+269791243+270077454+270445669+270743850
2558+270914802+270987489+271046113+271164914+271278201+271189742+270782025
2548+270148082+269495784+268973280+268567639+268178801+267821630+267639075
2538+267637924+267587674+267298166+266847929+266453158+266259594+266275786
2528+266349659+266248742+265919853+265579450+265395988+265247735+264972935
2518+264660901+264483737+264423560+264384495+264414348+264589383+264781778
2508+264755293+264472710+264137646+263929181+263844804+263804745+263742491
2498+263596681+263396295+263320921+263489972+263752803+263855971+263720403
2488+263437925+263142100+262957539+262912088+262871644+262711161+262494670
2478+262319949+262103232+261725438+261281221+260980005+260876366+260865880
2468+260883310+260939858+260992742+260923754+260664237+260265593+259847373
2458+259536543+259430619+259515676+259611516+259500828+259151631+258735766
2448+258433642+258308298+258328101+258380113+258301354+258030410+257691890
2438+257451636+257375285+257471509+257715881+257961143+257993962+257763792
2428+257434764+257176452+257019371+256925171+256885757+256920460+257005517
2418+257030502+256899575+256709832+256701579+256957554+257288134+257484298
2408+257540497+257578044+257688418+257884844+258092698+258180372+258092645
2398+257961230+258037633+258560208+259765142+262009608+265802134+271702127
2388+280255576+292011349+307475516+326956412+350417744+377399873+406983935
2378+437949118+469244899+500261029+530316736+558107424+582293392+602534098
2368+619132886+631732323+639638830+643379676+644045409+641203187+633393269
2358+620168439+601993640+578908374+551363907+523179356+501101064+490312554
2348+492469293+506210609+526457630+544881128+555765775+559984024+561301321
2338+562206122+563134267+563879212+564623249+565126823+564029925+560118789
2328+553882266+547038321+540730611+534556236+527429499+519036586+509837173
2318+500141164+490112743+480171944+470511075+460573382+449674009+437843211
2308+425594088+413305672+401271783+389894554+379389219+369575788+360209645
2298+351286846+342901471+335032545+327583550+320519869+313884632+307705511
2288+301966316+296709723+292090318+288239272+285101242+282447751+280036783
2278+277766616+275702350+273953624+272530838+271331452+270254007+269292188
2268+268490294+267816239+267138345+266362082+265532202+264755781+264084378
2258+263509164+262987723+262428195+261746829+261004571+260370279+259890329
2248+259434213+258917640+258419876+258035696+257760407+257530430+257258491
2238+256871275+256418543+256080617+255978304+256032357+256071841+256024767
2228+255924914+255761500+255468275+255112779+254912305+254941547+255011827
2218+254966131+254876607+254832151+254782093+254709284+254721393+254862562
2208+255017445+255062791+254993855+254901557+254905169+255070730+255348915
2198+255628043+255841532+255984655+256067532+256111552+256172811+256312322
2188+256510126+256632661+256549645+256289413+256025971+255918930+256012380
2178+256249528+256523857+256726965+256783705+256675251+256455567+256213272
2168+255987848+255785124+255682881+255778058+255983451+256037766+255811592
2158+255473736+255254052+255149122+254980648+254672662+254348292+254176922
2148+254202849+254341732+254550371+254964439+255769840+256957327+258332987
2138+259750853+261226575+262861961+264752902+266947415+269455882+272296499
2128+275479718+278953807+282651208+286594866+290871180+295477570+300252887
2118+304972686+309443402+313435110+316611804+318667556+319498902+319161639
2108+317740667+315327587+312062539+308168397+303947043+299697144+295604554
2098+291695582+287890337+284162105+280642373+277487419+274700558+272205108
2088+270005064+268159068+266682159+265535848+264636701+263873837+263180904
2078+262575575+262106739+261781271+261546530+261352268+261235456+261308335
2068+261625393+262052686+262308207+262222941+261943988+261746184+261705094
2058+261697941+261628604+261511460+261419947+261425217+261531682+261697033
2048+261916193+262193716+262495473+262801016+263077649+263213688+263167975
2038+263104169+263192611+263411195+263642289+263815231+263931031+264062917
2028+264292232+264602626+264911903+265189634+265505385+266000409+266727732
2018+267429407+267675000+267385543+266983445+266889524+267117321+267415344
2008+267583923+267593101+267538472+267553582+267728459+268033095+268262096
1998+268218320+268143155+268662223+269926288+271134276+271412723+270837561
1988+270048788+269405999+268994845+268898708+269101502+269441313+269779570
1978+270057128+270258788+270402923+270490806+270582267+270967058+271896651
1968+273011154+273508587+273142029+272532321+272281389+272376200+272614430
1958+273018814+273563861+273969728+274062724+274053652+274283455+274875104
1948+275787268+277125468+279027994+280955017+281624606+280461982+278531661
1938+277217678+276850248+276993197+277251126+277507292+277796173+278135809
1928+278564846+279414041+281005685+282862779+284119480+284878680+285768004
1918+286283181+285354006+283434433+282191201+282502048+283817619+284922805
1908+285033441+284393409+283805894+283700336+283910353+284188329+284617942
1898+285462862+286628383+287540878+288033617+288849137+290352549+291432314
1888+290913770+289373230+288164020+287733011+287775234+288025381+288354653
1878+288652380+288898723+289273900+290394633+293233069+297971327+302582358
1868+303773160+300859332+296657484+293821683+292843986+292945043+293296404
1858+293469624+293464250+293525073+293857381+294628567+296031672+298185794
1848+301304910+305541619+309593522+310439488+307209230+303069322+300893809
1838+300694592+301049058+301433151+302980932+306792685+311666826+314539198
1828+314399372+313216107+312038077+310106901+307601488+305999375+305885791
1818+306456783+306964858+307727007+309471004+312007160+313965833+314215963
1808+313232264+312519667+313326516+316036555+319840352+322887933+323773681
1798+323191313+323413666+326224727+331113663+334531902+333049934+328407079
1788+325009044+324622439+326117389+328064791+330153170+332093139+333181908
1778+333841324+335978557+341123764+348434260+354008854+354261601+350406263
1768+345754720+342329327+341538320+343899511+347481653+349365302+349610441
1758+350149957+351068158+352002375+354637947+360535357+367839398+372212023
1748+372017552+369683649+367966312+368122154+370126854+372685134+374118005
1738+375156663+378886657+386068703+391510730+389820437+384025025+378618452
1728+374713353+372757541+373016465+374784819+377929583+384080822+394384916
1718+405775929+410824163+406647160+398725229+392462395+389878223+391337894
1708+396277184+402571459+407532768+411607632+418014165+427024586+433379648
1698+433685017+430013368+423570335+416311135+412294825+413005014+416843986
1688+422807070+432226079+444311857+450878630+446395770+438179113+433429653
1678+433801742+438010708+442957117+446448741+449968770+454814924+457687122
1668+455154874+450924308+450569388+454470717+458344549+458890486+458322146
1658+461114224+470219455+486390112+504238047+509891714+504606018+503089224
1648+508267058+512787291+509888783+503730669+501098098+503902215+511882177
1638+524394585+538227920+545788859+544244882+541375232+543730874+551677372
1628+562142891+572586497+583243208+594371808+604149192+612326836+622254829
1618+636202969+650412406+658231815+660755094+663844724+669544732+676049635
1608+680904688+683455674+684922463+686744347+689338673+692328781+695370395
1598+698374322+701326744+704340093+707771976+711970788+716756050+721369977
1588+725116057+727786037+729546504+730984679+733158308+737173850+743726350
1578+752365519+759944569+762578746+762732494+766357977+774912630+784716674
1568+791923391+797811415+805384533+815420072+828669400+847757060+871617211
1558+886496009+885352978+879952512+876837478+875667508+875450250+875704776
1548+876457887+878568913+882797805+889335928+897973911+904165105+898096044
1538+882335302+870186433+865561968+863854611+859694952+853803089+850488315
1528+850966660+853306041+856171434+859928331+863367822+863448918+860328022
1518+856651035+852650149+847945634+844614598+845415236+851499930+862214741
1508+873490809+875097528+862516725+847936282+840358209+839809376+843266872
1498+846252444+844602455+839372277+836412388+839192357+845521039+849168714
1488+845977609+838528788+831631313+827663438+826614694+827603488+830210237
1478+834417772+839720881+845051069+848505145+847102424+840716723+834352588
1468+832273247+834365499+837186505+837590034+836980483+839391400+846367250
1458+853910707+853801135+845521597+837293634+832864234+831092250+829957874
1448+827967097+824825263+821672752+819804458+819562145+820971706+824374626
1438+829130506+832064503+830638821+827512341+826252970+826480278+825576769
1428+823257208+822177757+823726201+826381943+828543916+830428821+831681353
1418+830064653+825283788+820056960+816294828+814099076+813061010+813090043
1408+814353532+816462325+817899872+817520630+816492754+816759703+818436353
1398+820221038+821278086+821210529+819624049+817384748+816269215+816482425
1388+816003313+813186913+809771710+809209965+812674022+818439702+824372462
1378+829998003+835655579+840434490+842530302+842122795+841754161+842991478
1368+845002564+846741048+848600898+850918783+852553698+852382920+850996879
1358+849520389+848132045+846602723+845326183+845073681+845959324+847269782
1348+848400110+849489332+851023609+853219849+855838253+858245401+859738710
1338+860201282+860303665+860709986+861273336+861461282+861411242+861941651
1328+863600573+866300772+869688338+873310051+876767827+880117566+883558941
1318+886722828+889254064+891917692+895944400+901317020+906444396+909705502
1308+911200207+912678651+915518082+919194511+922218678+923931828+924603423
1298+924722416+924972126+925876473+927063262+927710221+927568546+926775027
1288+925201388+922878129+920544192+919031131+918395269+917999208+917271850
1278+916149826+914907554+913837524+913111213+912855919+913279479+914537245
1268+916378181+918157423+919515688+920785807+922334530+923900980+925019165
1258+925678617+926183272+926793731+927794737+929433072+931539562+933538853
1248+934898304+935409520+935138523+934435592+933891365+933714307+933259132
1238+931800648+929594707+927492125+925964270+925176334+925223861+925701996
1228+925895596+925602056+925009115+924169046+923285846+922717750+922326993
1218+921906016+922113224+923619933+925778766+927401049+928163441+928276432
1208+927920849+927900610+929531546+933024985+937008353+940203297+942496686
1198+944161820+945460414+946847781+948294261+949094132+949190652+949569475
1188+950725626+952028268+952823323+953201308+954080949+956843471+961816261
1178+967213307+970771930+972112957+972554522+973170633+973964711+974720334
1168+975729575+977380612+979599255+982103970+984647419+986504128+986757398
1158+985711237+985052832+986178345+988873449+991716858+993558283+994340077
1148+994469818+994105162+993518014+993478024+994823517+997777264+1001388998
1138+1003894969+1004451340+1004127442+1004225637+1004670692+1005059425
1130+1005830681+1007445636+1009408078+1011018217+1012434268+1014024238
1121+1015342582+1015880319+1016199262+1017145832+1018616320+1020205521
1113+1022216398+1024809956+1027100414+1028257403+1028827941+1030177133
1104+1033011539+1036601428+1039077459+1039003481+1037313292+1036828875
1095+1039183750+1042871834+1044928633+1044463479+1043386959+1043694526
1087+1045421285+1047019839+1046660487+1043851624+1040503560+1039391237
1078+1041578056+1046370926+1053098530+1060595018+1065358925+1064211288
1070+1058807192+1053470235+1050864324+1051788491+1055669128+1059930263
1061+1061989295+1062481877+1063790172+1066236053+1068182164+1068682772
1053+1068177209+1067734108+1068451626+1070656520+1072992830+1073407875
1044+1071902213+1070549112+1070156610+1069005274+1065818845+1062118966
1035+1060113323+1060345238+1061983572+1063348188+1063022963+1061791229
1027+1062128527+1065038935+1068884257+1071933967+1073741823+1073662401
1018+1070660428+1065288297+1060509874+1058840831+1059534341+1060580781
1010+1061630571+1062561229+1061888308+1059347581+1057301181+1057466445
1001+1059012865+1060468209+1060729086+1058886126+1055588450+1053088481
993+1052798989+1053866785+1054407383+1053403236+1051140346+1048481393
984+1046251235+1045105762+1045386390+1046595442+1047247845+1045926778
975+1042770289+1039796790+1039197987+1041398555+1045071983+1048196229
967+1048473717+1044600827+1038165784+1032573393+1029469945+1027605838
958+1025211532+1022037176+1018793727+1015921844+1013419781+1010923860
950+1007749574+1003452636+998832289+995284763+992880756+990560567+988163469
940+986491426+985510519+984161467+982133491+980578696+980604030+981851956
930+983225575+984515794+986172971+987740119+987982153+986829282+985652822
920+985240360+984805634+983555266+982461856+983333890+986109392+988006720
910+986747906+983656322+981279952+979724808+977736055+975367153+973349297
900+971993126+972171092+974790752+978376524+979517949+976582347+971666785
890+968678142+970146676+975137332+979709594+980174958+976062895+969542778
880+963336928+959558953+958650349+959106571+959313011+959225075+959472413
870+959705583+959033500+957729253+956800201+956182205+955480949+955999214
860+959479950+964736718+967935501+967149170+964215382+961254725+958579372
850+956641008+956801596+959128275+961263798+960763818+958151416+956335604
840+957201357+959459292+960241575+958818126+957062823+956326043+955936472
830+954792674+953201797+952663363+954138666+956880529+959373659+961169302
820+962429929+962310029+960169272+957842663+958096980+961052402+964224315
810+966338482+969059827+973671311+977784211+977905646+974628489+971677603
800+970574772+969414712+966024773+960804297+956418585+954999184+956014498
790+957605375+959234078+961350687+963568842+964929549+965112401+964348403
780+963173897+962681943+963806619+966325431+969083626+971169597+972602398
770+973710882+974226356+973525449+971768680+970142419+969362998+969065061
760+968992130+969464194+970339228+970628929+969450026+967104574+965299719
750+965535611+967264534+968683656+969465241+970763904+972822308+974671061
740+975631799+976268010+977885407+981102684+984814707+986947647+986206262
730+982619723+977695437+973990045+973086885+974246316+975713593+976732676
720+977350672+977112546+975782616+974854192+976157531+979010571+980316842
710+978099664+973615269+969096188+965271174+961843269+958152952+953675885
700+949738927+949149755+953080501+959296261+964045303+965062919+962841205
690+959480299+956115206+952417141+948414162+945261930+943291322+941119578
680+937891135+934603299+931457348+927892165+925156374+924392166+924453931
670+923208448+920885468+921247332+924836733+927335446+925939633+922447381
660+921251589+923713732+926465017+925915765+922836394+920259167+918291630
650+914658331+909410636+904693210+900857449+897807251+898113073+903477249
640+909703897+910381773+905734347+901152943+898047819+892066485+880876469
630+869164839+863412627+864967492+869597680+872411288+871999942+870012934
620+869051010+869578627+869479036+867463623+865135408+865083624+866223234
610+865562527+863465459+864574222+872664558+885774165+897793014+905184955
600+909125472
##END=
