##TITLE=<SNM>
##JCAMP-DX=4.24
##DATA TYPE=INFRARED SPECTRUM
##DATE=3/5/2025
##SAMPLING PROCEDURE=Instrument type and / or accessory
##ORIGIN=Admin
##XUNITS=1/CM
##YUNITS=ABSORBANCE
##RESOLUTION=4
##FIRSTX=4497.3318
##LASTX=599.83466
##DELTAX=-1.4281778
##MAXY=1.7177845
##MINY=0.17955028
##XFACTOR=1
##YFACTOR=1.5998115e-09
##NPOINTS=2730
##FIRSTY=0.19491996
##XYDATA=(X++(Y..Y))
4497+121839328+121733880+122486943+123523413+124404986+124784601+124600922
4487+124252660+124187301+124472440+124958918+125547574+126038560+126084377
4477+125682762+125420005+125770801+126451017+126905602+127031802+126963687
4467+126587947+125784838+124906982+124580133+124963994+125460504+125426013
4457+125001131+124785653+124941696+125198212+125411753+125471215+125074528
4447+124243709+123617944+123684672+124079944+123990052+123082650+121942232
4437+121561985+122314051+123551850+124392300+124491330+123780004+122229235
4427+120411582+119443982+119800618+120726350+121072014+120403991+119260713
4417+118503645+118423440+118627703+118759947+118778315+118535044+117865661
4407+117107158+116808494+116986854+117166500+117026394+116692531+116512150
4397+116694645+117121083+117469793+117468498+117019799+116291913+115736881
4387+115764685+116256975+116535864+115959773+114580546+113163660+112474922
4377+112638351+113181329+113543647+113544187+113430292+113457126+113566681
4367+113660058+113884225+114317192+114659475+114591378+114272987+114141738
4357+114273732+114326209+114217948+114400164+115113241+115833098+115912102
4347+115397784+114779788+114317388+114035276+114028551+114340860+114694879
4337+114663601+114128261+113395447+112819626+112462096+112232144+112246236
4327+112810507+113893530+114780654+114688554+113817032+113285966+113802539
4317+114913868+115791780+116141887+116105449+115889832+115783304+116076146
4307+116710685+117228021+117248224+116928603+116813450+117206235+117795924
4297+118021592+117685801+117105016+116837341+117318062+118496706+119736927
4287+120305352+120025913+119251325+118268375+117120338+116052050+115608633
4277+115966666+116614095+117131021+117813510+118996596+120261044+120902223
4267+120817286+120430192+120046106+119708732+119516950+119670916+120109090
4257+120427994+120451745+120557658+121074771+121765326+122281302+122610805
4247+122751330+122555469+122184340+122128230+122577376+123198194+123587310
4237+123656291+123603992+123639023+123661526+123291934+122412690+121544455
4227+121368778+121963078+122770220+123257303+123414734+123599428+123969895
4217+124191316+123852870+123083898+122464990+122364963+122662183+123045067
4207+123353194+123717515+124377686+125224293+125762232+125745904+125507234
4197+125434591+125469911+125317445+124902622+124482016+124381859+124671450
4187+125105749+125382534+125393031+125201351+124886350+124527935+124322023
4177+124549898+125348350+126577524+127919783+129038070+129700859+129869457
4167+129687185+129394958+129241215+129335905+129549780+129657705+129547144
4157+129254265+128942850+128818746+128864442+128779449+128390417+127934015
4147+127792624+128134367+128793625+129326581+129356490+129029380+128878544
4137+129175186+129731941+130307370+130807419+131154312+131351543+131580983
4127+131910458+132030743+131570765+130616214+129704072+129302224+129430641
4117+129838739+130427190+131276628+132286766+133087202+133403144+133259955
4107+132804987+132204856+131728522+131629855+131889147+132267458+132601274
4097+132879232+133128073+133361332+133555563+133632658+133570671+133523438
4087+133657620+133924243+134126066+134169722+134220205+134600658+135436386
4077+136381436+136831215+136448108+135465121+134530261+134165288+134262651
4067+134303913+134116574+134030398+134248828+134517407+134519354+134315351
4057+134269869+134570210+134955199+135111288+135165805+135410436+135763691
4047+136002157+136241423+136672909+137118189+137289638+137175119+136855647
4037+136340043+135866084+135937757+136733042+137783586+138490413+138681422
4027+138489984+138076698+137683774+137626705+137996074+138562943+139049850
4017+139304922+139237226+138830730+138237557+137760254+137709677+138167290
4007+138819162+139252138+139541059+140200336+141373065+142432840+142666462
3997+142103159+141368324+140895492+140634514+140488335+140569472+140855552
3987+141020509+140877683+140631422+140497351+140457719+140538865+140950391
3977+141772631+142746192+143485051+143781945+143663970+143267096+142797607
3967+142598262+142985365+143842190+144589031+144804732+144697450+144687167
3957+144767633+144656560+144408063+144515997+145372645+146696341+147582161
3947+147415509+146645373+146135991+146052460+145994404+145875861+145955014
3937+146322715+147014481+148189045+149650080+150553216+150215991+149114013
3927+148487671+148996978+150050745+150669831+150795425+151041351+151497315
3917+151495536+150475637+148738534+147234355+146772653+147601367+149709273
3907+153167578+157688788+161982151+164355366+164213565+162079783+158657757
3897+154972117+152542885+152470467+154312672+155942455+155852339+155611554
3887+157288105+159942612+161082089+160849399+160887923+160366656+157966057
3878+155606040+155873427+158679087+162471805+166278364+168840529+168527214
3868+166309511+164785389+164415257+163734752+162107857+160565293+160436644
3858+162860324+168827060+177435172+182490837+178100363+169129198+162022389
3848+158636297+158619326+160821903+163933688+167461022+171644066+175645126
3838+177191472+175735997+173436011+171772138+170467257+169281413+168704857
3828+168863051+169523455+171453979+175730557+180814408+182774123+181198959
3818+179230247+177233461+173503428+168968918+166339894+167066001+170821760
3808+175323689+177941759+179455579+182251832+185298714+185600405+184017864
3798+183032577+181969831+179533223+176979999+176173509+177165056+178988074
3788+181143278+183495275+185720672+187926005+190997441+195176312+199052188
3778+201269891+202490458+204476384+208553114+214919025+222209961+228545750
3768+233685728+238412505+242793832+247293023+253493530+261987597+271130779
3758+279294895+287477956+298091590+312525232+329437770+344138641+353696366
3748+361483475+371153382+381443026+388178288+391921342+397459266+407643882
3738+422909983+441429726+458559325+469781594+474714645+476117941+476841478
3728+478621706+481771102+485254137+487882080+489418310+490395346+491949198
3718+495288458+500783237+508388308+518033550+528291861+536397856+541570919
3708+545396535+549437647+555082015+562903737+570816366+575605567+577294775
3698+578660591+581511928+585574948+590188705+595914666+603230359+610115618
3688+613504616+613155478+611169217+609810332+610706817+614111575+619449501
3678+625981375+630901201+630409628+626484721+623852345+621948087+618017629
3668+613801631+612474117+613912434+616422235+619326925+623539570+629874539
3658+636934200+641927347+644743179+648169211+653583217+659588124+663051711
3648+662437189+659856525+658201035+658234045+658475397+657502982+656093688
3638+656290108+658803560+662649332+667264020+673444483+680931932+685820163
3628+684693652+681273060+680669417+683752086+689274287+695700499+700742305
3618+702641980+703051363+705190751+709711849+713961714+714922207+712212782
3608+707927001+704444786+702869771+703293088+705296115+707713219+709628318
3598+711879031+715233082+717672391+716773969+714614015+715514896+719438536
3588+721633959+719954177+717429027+716368460+716229714+715734565+714299638
3578+712545266+711796022+712216508+712423286+712012040+712965752+717165990
3568+722862630+724938308+721590964+717596833+717639828+720762287+722522396
3558+721034564+718458744+716902805+716274572+716001402+716067422+716174946
3548+716094470+716716742+718884669+721682766+723019260+721910185+719532648
3538+718148092+719507685+723617388+728359645+730825855+729353372+725106264
3528+722278883+724717596+731100590+734994126+732121365+726023017+722978873
3518+724324234+726531505+726757433+725744407+725433905+725767954+725025937
3508+723012702+721637014+721880155+721934998+719582200+715862432+713968271
3498+715134350+718033042+721054385+723087664+723012702+720753271+718493914
3488+718712242+720966606+722959574+724307840+726491416+729864095+732498558
3478+732507872+730348514+727728507+726231136+726271002+726260793+724245844
3468+720992090+719641439+721630308+724829368+726596332+727043047+727524635
3458+727511893+725531668+722342965+720629801+721771960+724510371+726640892
3448+727040216+726057964+724538836+723005325+721813837+721350953+721896921
3438+723716493+726883213+730659166+733809419+735771909+736787692+736882326
3428+735819524+734132812+732727318+731653116+730310437+728362775+726209900
3418+725015058+725779429+728313968+730954914+731658928+730171095+728224178
3408+727369496+727621355+728157487+728345488+727936924+727112569+726498271
3398+726589701+727136190+727532086+727602130+727538271+727493413+727456603
3388+727237828+726437318+724662083+722442964+721491562+722999513+725959158
3378+727940203+727671950+726031437+724424381+723322758+722197811+720369745
3368+718421337+718511053+722216440+727899592+731554905+731170336+728755318
3358+727516811+728594068+730718181+732286862+733197207+734333107+735634430
3348+735725263+733354209+729049352+725242030+724061644+725267365+726656764
3338+726488510+725417884+725658715+728495411+732633057+734792564+732881712
3328+728465903+724965506+724514469+726930605+730290914+732287384+731871741
3318+730014689+728713962+729058965+730310363+730873693+729980636+728287143
3308+727027995+726831649+727447214+728345860+729093763+729091453+727937446
3298+726660862+727251837+730118264+733228354+734413359+733396310+731187847
3288+728774245+726850054+725717880+725167739+725010736+725510580+726861232
3278+728571863+729927283+730670864+730701490+729955450+729024539+728639373
3268+728671340+728646825+728978638+730588526+732704963+732985436+731045077
3258+729714321+731357442+734265448+734465892+731033676+727165922+725990901
3248+727763827+730845601+733187073+733051903+730516470+727791770+726581429
3238+726209006+725469150+724938904+725901558+727924331+729062542+728596676
3228+727986849+728327530+728641013+727494010+725010438+722367183+720557447
3218+720312965+721766595+723976474+725674736+726404755+726466453+726284712
3208+726315934+726917416+727884988+728362850+727347588+724823705+722244681
3198+720884715+720340833+720035249+720760797+722749442+723852482+721917636
3188+717720453+713860598+712048254+712371945+713793311+714859466+715170937
3178+715826292+717394973+718532513+718010836+716907723+716850197+717444153
3168+717231861+715800138+713535565+710977703+709383314+709942248+711813980
3158+712815456+712105630+710508857+708721252+706738196+704600670+702822380
3148+702039902+702255622+702681920+702411357+700930678+698471175+696074637
3138+694965711+695760782+698314769+701643633+703716182+702922825+700036056
3128+697283785+695903775+695541783+695142385+693739275+691230891+688653879
3118+687062172+686442360+686147953+685798405+685507724+685597588+686090055
3108+686502419+686336177+685511822+684350289+683466546+683287636+683569748
3098+684031739+684927926+685977836+685901608+684253718+682057251+679937982
3088+677843675+676503381+676818876+678139647+678861768+678260510+676605615
3078+674339701+672194501+671193398+671556060+672253517+672320356+671856056
3068+671082520+669577772+667363124+665566280+664987301+665033649+664868376
3058+664655637+664971206+665614789+665642732+664534476+662885096+661666857
3048+661098311+660543848+659379632+657778537+656579225+656154343+655553010
3038+653544991+650554944+648474646+648471144+649844671+650953001+650709413
3028+649198034+647178092+645303678+643844608+642734937+641763490+640980938
3018+640783474+641271768+641901193+642113410+641832788+641193602+640299800
3008+639242140+637968611+636363418+634473430+632291568+629702187+627073238
2998+625274381+624605240+624325438+623681744+622878253+622646885+623320832
2988+624667050+626142625+627017203+626804464+625861929+624970063+624204538
2978+622919646+620895979+618747798+617125094+616181627+615742326+615466511
2968+614978924+614187393+613349961+612724001+612344387+612138056+612017901
2958+611810937+611272718+610264648+608945963+607790875+607271546+607277954
2948+606932318+605398659+602839865+600237406+598496447+597976224+598436575
2938+599115813+599304223+599104412+599187980+599598593+599290736+597345942
2928+594421953+592297914+591896765+592394895+592502159+591909992+590948381
2918+589635508+587810870+585606169+583416633+581892959+581675078+582480134
2908+582922713+581872281+579610242+577246825+575492938+574286324+573223857
2898+572107405+571122770+570564357+570472630+570557912+570361007+569496303
2888+567908620+566056113+564782137+564626551+565130456+565220134+564330467
2878+562690178+560636071+558353988+556261246+555046174+555147476+556184570
2868+556985267+556552151+554956793+552972917+551212920+549934399+549128002
2858+548436022+547501199+546573791+546192910+546209191+545794704+544594609
2848+543203124+542194420+541392606+540456069+539457536+538541268+537591058
2838+536475500+535202903+533757394+532073253+530236841+528680231+528074428
2828+528673040+529654547+529620717+528063809+525865219+524104514+522922899
2818+521827907+520690219+519938441+519780582+519718548+519097954+517863396
2808+516506858+515418871+514509122+513454592+512132628+510719683+509516794
2798+508767550+508475974+508342071+508008581+507359224+506483566+505485592
2788+504471896+503567177+502773708+501885010+500699036+499352297+498242216
2778+497517673+496881244+496007262+494894015+493690865+492467820+491281846
2768+490243708+489429078+488788960+488119819+487156830+485828458+484406683
2758+483262213+482407196+481436308+480032714+478330279+476690959+475375143
2748+474504850+474015103+473551734+472745784+471612864+470423313+469292592
2738+468139963+466869713+465447751+464019455+462928972+462305583+461717588
2728+460621180+459091769+457727481+456889006+456399594+455939727+455329714
2718+454373021+452889994+451120236+449671896+448814531+448204629+447491487
2708+446716163+445932642+445016448+444021455+443191213+442529971+441804050
2698+440942624+440052100+439087062+437820910+436192841+434539735+433357747
2688+432810102+432591253+432304595+431821554+431246898+430709238+430240839
2678+429756159+429113843+428215496+427051801+425687663+424234927+422865609
2668+421819425+421257920+421045218+420791570+420193255+419273746+418294400
2658+417473585+416753737+415868876+414726940+413607023+412836095+412421496
2648+412128617+411776759+411355081+410930049+410511017+410004690+409283575
2638+408292084+407124776+406012050+405137733+404459948+403846469+403353481
2628+403109818+402941043+402439448+401481228+400410341+399621902+399157006
2618+398767369+398234515+397547752+396850854+396279476+395836152+395393051
2608+394792351+393976081+393085707+392389480+392023986+391844294+391587814
2598+391101905+390358100+389410088+388481935+387937084+387909588+388032426
2588+387799605+387176178+386569071+386240238+386069898+385844342+385483505
2578+385021291+384539815+384074658+383567735+383025530+382621027+382466000
2568+382407580+382203075+381789035+381312663+381008867+381036773+381309086
2558+381518882+381465530+381287999+381217433+381169446+380811366+380016705
2548+379016012+378097657+377405789+377021368+376965706+377094020+377199458
2538+377236976+377278667+377297668+377201358+377004304+376764256+376474990
2528+376216834+376202974+376458783+376682029+376583260+376164003+375619786
2518+375166961+374934289+374898373+374978812+375163831+375408425+375507232
2508+375229739+374547558+373662810+372844155+372255937+371942193+371887202
2498+371979227+372005195+371840444+371555649+371260124+371000552+370792843
2488+370570082+370206898+369729147+369309258+368997973+368703454+368433600
2478+368321716+368414114+368600177+368748200+368801627+368718543+368407035
2468+367820941+367097963+366522934+366318540+366446519+366621852+366604639
2458+366460900+366393651+366389851+366265188+365989633+365731701+365608379
2448+365564751+365509796+365475743+365564565+365730583+365759308+365555101
2438+365260135+364954849+364498782+363859335+363305320+363047276+362954915
2428+362831258+362681372+362520905+362237488+361851987+361608995+361612013
2418+361662347+361618496+361616782+361765327+361894088+361819201+361666558
2408+361720432+362041589+362381711+362449222+362181453+361780826+361535710
2398+361587833+361828366+362008915+361951166+361663950+361300803+361009153
2388+360773947+360380436+359540992+358084120+356023084+353427815+350274731
2378+346501796+342219294+337771109+333526199+329659451+326174479+323069791
2368+320388421+318109914+316109384+314395399+313418774+313967350+316574988
2358+321005849+326415123+332253490+338933276+346877015+354960357+360999019
2348+363593766+363043811+360956322+358728336+356281985+353025995+349227167
2338+345549165+342104691+338535852+334705169+331074818+328403359+327038885
2328+326584421+326361063+326104621+326140947+326926592+328429402+330084520
2318+331421907+332488174+333566474+334789296+336149038+337639665+339240574
2308+340856311+342318212+343440812+344156673+344587629+344903682+345190153
2298+345504866+345906127+346370576+346821948+347218776+347516052+347669813
2288+347762248+347953452+348253634+348489100+348503407+348308961+348080910
2278+348007513+348074427+348048235+347751928+347283380+346899369+346741696
2268+346716547+346630818+346417893+346187568+346073151+346100349+346185929
2258+346192859+346034739+345789512+345667904+345805644+346098300+346303923
2248+346310927+346209215+346122666+346145505+346394868+346885025+347409608
2238+347761838+347951478+348081841+348224313+348451843+348769946+349067334
2228+349280445+349444377+349558944+349633086+349776303+350033713+350296526
2218+350508408+350742384+351036270+351370989+351769195+352229509+352651895
2208+352971153+353275209+353676508+354136374+354538679+354908793+355404240
2198+356059596+356694311+357150974+357508122+357956737+358532102+359082578
2188+359505448+359869266+360241876+360577825+360895816+361353224+361988498
2178+362611961+363106403+363586649+364128743+364631307+365076419+365639489
2168+366432324+367391178+368477638+369778625+371396150+373365496+375646984
2158+378177201+380995194+384220483+387814806+391513263+395050805+398289172
2148+401145167+403630154+405968533+408474011+411234926+414011526+416546363
2138+418949607+421628257+424811520+428305323+431775355+435133765+438556369
2128+442205758+446043371+449860976+453363572+456257718+458416182+459912919
2118+460784516+460878666+460018805+458195656+455614695+452659707+449695740
2108+446862957+444235908+442082362+440662002+439828109+439051295+437777617
2098+435663973+432623331+428808110+424495206+419898103+415127158+410340266
2088+405775540+401539088+397518356+393614201+389921445+386635910+383916873
2078+381804832+380140176+378645339+377195434+375913597+374943156+374239552
2068+373643883+373079956+372587862+372163800+371685416+371080246+370471834
2058+370046915+369835368+369707911+369556050+369416447+369412907+369597108
2048+369879592+370151422+370465128+371021752+371960971+373264157+374904223
2038+376958776+379512912+382573040+386101753+390006205+394068852+397945920
2028+401200010+403384293+404254213+403909211+402675473+400891221+398759359
2018+396291473+393435404+390308585+387201886+384356770+381851925+379634297
2008+377556681+375476010+373398655+371459935+369761375+368295971+366998821
1998+365860425+365049855+364805373+365003097+364981525+364130680+362582081
1988+360988549+359799744+359025872+358509859+358173239+358001222+357903124
1978+357702493+357314980+356839615+356423302+356190444+356294391+356738312
1968+357114983+356906156+356139550+355360053+354923360+354719451+354552986
1958+354403807+354274264+354077247+353755568+353388881+353144697+353122641
1948+353304605+353742341+354564573+355478829+355616234+354512524+352889298
1938+351809359+351544944+351611224+351515249+351236528+351068199+351149644
1928+351392896+351868486+352744777+353746589+354392742+354810769+355336059
1918+355480916+354541622+353019587+352106560+352184130+352678683+352929313
1908+352769069+352441354+352200709+352028133+351761036+351458544+351453849
1898+351955221+352673355+353064892+353104236+353407957+354217931+354808533
1888+354460066+353455497+352495191+351894231+351673034+351738495+351871280
1878+351920758+351926272+352019378+352581441+354283429+357237597+360003951
1868+360400480+358119663+355114341+353122604+352430847+352530697+352894961
1858+353153862+353095406+352740157+352326490+352214755+352731961+354078663
1848+356439173+359734953+362697914+363099026+360609382+357626041+356061645
1838+355836499+356010826+356274906+357396686+360120902+363598348+365666836
1828+365582262+364675196+363667088+362095240+360222018+359159216+359265511
1818+359875413+360399027+361011053+362194307+363901585+365358755+365839449
1808+365497315+365177312+365754577+367698401+370634462+373208047+374138250
1798+373766571+373912471+376140308+380188648+383422320+383194417+380609059
1788+378863629+379310903+381128575+383232420+385375757+387402144+388895640
1778+390161270+392476438+396899139+402902519+407838514+409182347+407615678
1768+405325547+403706419+403788460+406029970+409218487+411409774+412550444
1758+413878554+415522495+417266211+420138115+425099258+430878386+434551769
1748+435050011+434120553+433731810+434707616+436915483+439396148+441081668
1738+442722181+446657073+453363907+458874298+459125337+456379028+454090946
1728+453068829+453461931+455360041+458253480+462101301+468165857+477229066
1718+486926692+492120693+491054613+487384211+484758913+484822661+487997280
1708+493704203+500196882+505593489+510373786+516955697+525667234+532782520
1698+535787134+536270771+535038076+532832854+532310135+535066653+540488185
1688+547967474+558326790+570801239+579201715+579395453+576869223+577107669
1678+581291589+588318053+595828192+602122737+608114045+614721514+619771255
1668+621052944+621342544+624776288+631610431+638297668+641962146+644210400
1658+648415854+656638836+669476433+683954020+691563897+691845264+693483839
1648+698833614+703548450+703313431+700415335+699169898+701253848+706928208
1638+715641571+724321626+727000797+722417256+716769871+714197180+714202396
1628+714903280+715761465+717043414+717250788+714503360+710758034+709755440
1618+711601241+711877690+707337963+700934851+696204069+693305899+690854667
1608+687944127+684624502+681274401+678165057+675553469+673774881+673104175
1598+673461025+674196782+674477777+674117275+673587626+673038826+671991076
1588+670186035+668086736+666271188+664870984+664015110+664505714+667369011
1578+672335855+676501146+676613961+674840141+675884165+680433355+684919580
1568+686297131+686341467+688150831+693049345+702244743+717657712+737185972
1558+748736255+747891855+745840841+748743110+756002321+765145484+773974046
1548+781762236+789778962+799643576+811305406+823169991+831917854+832523732
1538+826621953+822172911+822114045+823720281+823470732+822137368+823237874
1528+828037209+834771986+841281729+847441924+853370826+857133291+857571810
1518+856496266+855512524+854965066+855574446+858510842+864428940+873138130
1508+882348281+885635045+879679244+872079874+869064343+870773409+875310081
1498+880156062+882496640+881695534+880671182+882248506+886058363+888945654
1488+888570026+886306794+884761809+884971269+886523185+888613095+890871632
1478+893524724+896986597+901113140+904136271+903294778+899037536+895626482
1468+895757255+898591194+901287728+901859329+901779450+904199236+910424483
1458+917756345+919728299+914369657+907138613+901816185+899039474+898573460
1448+899319276+899533058+898626589+897583086+897425413+898610866+901345104
1438+905055632+907671169+907526461+905884235+904758394+904583657+904943413
1428+905714937+906942714+908182190+908896114+909517715+910944818+912576538
1418+912361564+909902433+906898229+904603776+903091726+901739659+900070607
1408+898560196+897883678+897616022+897055821+896779670+897740014+899734769
1398+901765217+902876379+902214093+899632237+896429302+893987236+892128619
1388+889481861+885341979+881222888+879542286+881009701+884347210+888130911
1378+892141957+896687570+901101963+903764146+904267417+904423525+905922311
1368+908562512+911447791+914313920+916802708+918086221+918191659+918082943
1358+918193075+918441730+919024211+920101021+921393998+922577513+923507753
1348+924068550+924375699+925004826+926600556+929332111+932655909+935545137
1338+937274919+937974313+938157991+938093089+937949052+938188319+939409613
1328+941617107+943758284+944531075+943904929+943256205+943764618+945352151
1318+947297205+949105823+950434791+950882176+950394031+949537635+948871251
1308+948256804+947300782+946225611+945598347+945364744+944946344+944254700
1298+943948445+944619151+946123377+947682222+948303897+947180441+944143673
1288+940040304+936396616+934256184+933310221+932350772+930474345+927572822
1278+923851638+919553264+915275829+911865073+909572557+907701198+905515015
1268+903241128+901686679+901022232+900344522+898596336+895777300+892850814
1258+890586912+889014878+887620412+885603377+882569888+879319115+877274211
1248+876940907+877428605+877567798+877215791+877228012+878069729+878946020
1238+878959731+878602955+879092963+880780420+882952520+884635805+885287509
1228+885197421+885251742+886064920+887581888+889532233+891750830+894032317
1218+896094359+897726899+898905571+899865990+900991085+902530110+904457876
1208+906593241+908875772+911549504+914908845+918661772+921838925+923708198
1198+924596486+925401914+926473881+927586980+928856112+930665624+932543988
1188+933449489+933672362+934863702+937624988+940675392+942938996+945018177
1178+947663593+950083902+951058999+950953412+951459962+953619246+956775982
1168+959473931+961260046+963322461+966935598+971431734+974327371+974201143
1158+972929179+973709421+977100282+980179970+980228255+978393408+978272247
1148+981579801+986474962+989774691+990150095+989093777+989201078+991842694
1138+996220724+1000015901+1001034962+998989686+995828405+994237444+995441004
1128+998107657+1000182888+1001929361+1005058750+1008946548+1011031690
1120+1011087949+1011238692+1011855672+1011292566+1009683870+1009064132
1111+1009720010+1009983344+1009340656+1009255858+1011125131+1014837522
1103+1019301691+1023800137+1028335020+1032590995+1035467705+1036100110
1094+1034882542+1033258049+1032798667+1034313101+1037062764+1039321152
1085+1040699970+1042940251+1047024619+1050957200+1052070597+1050483809
1077+1048402319+1046933487+1045309815+1043056196+1041513371+1042158667
1068+1044748496+1047886380+1049696265+1048599783+1045490587+1044087477
1060+1047398980+1054127871+1060219438+1063415517+1063921024+1062317769
1051+1059698208+1058241672+1059603724+1063442790+1068243988+1072304362
1043+1073741823+1071504597+1066911965+1062515009+1059584052+1058083328
1034+1057830351+1058348824+1058734511+1059035625+1060688582+1064319826
1025+1067983485+1068882950+1066560033+1063030650+1060092465+1058049275
1017+1056982003+1057378495+1058770353+1059201047+1057365455+1054573840
1008+1053057469+1052828262+1051879766+1049566684+1047402631+1046186404
1000+1045212797+1044419216+1044549691+1045597515+1047010386+1048193082
991+1048171026+1046284912+1043298219+1040350198+1037571102+1034773080
983+1032026547+1029139107+1026050552+1023446938+1021748899+1020495862
974+1019358024+1018445370+1017433760+1015691385+1013089857+1009679250
965+1004998617+998952578+992815110+987918235+984116575+980565284+977017794
955+973566204+970044496+966394175+962957786+960069228+957805177+956078227
945+954818633+954240176+954545239+955276897+955630991+955290981+954435926
935+953461350+952927229+953073129+953358967+953050402+952039015+950949314
925+950759376+951916439+953357774+953153232+950942235+948713429+948185568
915+948601359+948160382+946696170+945499913+945000666+944384654+943382507
905+942735869+942868803+943308737+943336531+942613665+941433876+940352148
895+939287483+937650323+935664808+934357748+933938379+933502022+932430726
885+930827694+928804399+926511958+924561166+923773770+924612060+926680137
875+928742403+929815786+930159968+930468459+930618084+930104530+929037481
865+927790703+926363823+924941414+924189860+924378307+924998567+925377771
855+925310634+925111531+925189846+925860700+927552927+930492527+933719083
845+935467791+935496405+935364141+935768532+935818531+935075546+934067066
835+932999123+931387522+928925783+926209801+924504535+924592090+925641553
825+926289755+926688856+927728185+929224214+930722479+933049271+937274025
815+942540045+946196699+946462195+944610731+943660297+944916166+946901086
805+947557186+946397292+944225490+942044448+940419732+939059990+937158155
795+934478983+931977007+931276420+933534883+938032136+942076937+943360153
785+942153389+940434337+939618105+939694184+939824361+939535542+939494112
776+940518837+941879920+941878132+940355277+939163119+939688148+941076504
766+941544605+940578150+938983613+937640711+937114564+937688549+939181971
756+941474412+945093064+949905588+953733924+954056647+950911535+946683577
746+943595246+942511431+943267754+945423908+948929149+953278863+956056618
736+954479666+949083245+943658956+941150646+941291777+942152346+942453161
726+942041840+941463533+941519866+942570521+944274819+946199456+947992501
716+949092336+949052769+947687662+945004242+941593337+939127277+938819606
706+939116994+937283041+933502246+931020910+931525970+932599352+930943713
696+926283422+920622996+915983643+914052970+915300419+917547183+917442937
686+913722498+907570202+900415088+893501550+888570547+886742481+886976159
676+886428327+883180758+877553491+870178634+861966382+857708320+862776728
666+872389854+878578663+879760017+878335000+876921384+876394864+875674159
656+873349155+869779757+866962659+866069602+866026011+865231909+863410772
646+860935770+858571497+858038792+860276540+863008096+862028601+855903130
636+848157488+843702186+843799651+845133388+844110526+841043432+838529533
626+837222398+835450069+832004738+827659569+824364236+823354563+824269304
616+826300274+829603058+834295540+838665224+840780097+840872122+840009095
606+838030807+835340607+834860509+838287957+842018902
##END=
