##TITLE=<SNM>
##JCAMP-DX=4.24
##DATA TYPE=INFRARED SPECTRUM
##DATE=3/5/2025
##SAMPLING PROCEDURE=Instrument type and / or accessory
##ORIGIN=Admin
##XUNITS=1/CM
##YUNITS=ABSORBANCE
##RESOLUTION=4
##FIRSTX=4497.3318
##LASTX=599.83466
##DELTAX=-1.4281778
##MAXY=1.741051
##MINY=0.2040967
##XFACTOR=1
##YFACTOR=1.6214801e-09
##NPOINTS=2730
##FIRSTY=0.22076274
##XYDATA=(X++(Y..Y))
4497+136148911+137285732+138857206+139914930+140095548+139551775+138676405
4487+137903005+137483149+137479151+137958310+138866800+139720179+139898995
4477+139337817+138521556+137829781+137346882+137159556+137311271+137668333
4467+138108389+138498480+138545257+138178122+137875509+138052892+138401546
4457+138386557+138111542+138108656+138422260+138491147+137956463+137112779
4447+136437573+136033486+135678574+135188369+134626934+134243652+134187604
4437+134364609+134669271+135147677+135743813+136098357+135883131+135263331
4427+134759497+134656893+134773760+134805685+134581784+133938843+132767073
4417+131284722+129989339+129320052+129446679+130198997+131059755+131421063
4407+131037074+130225261+129580869+129435439+129589498+129582247+129116790
4397+128258477+127428284+127100721+127282992+127519217+127572776+127734637
4387+128286542+129018312+129435283+129264453+128669493+127993331+127379835
4377+126840584+126480792+126286868+126040809+125870622+126393718+127867724
4367+129628500+130677613+130526550+129418594+128038205+127040481+126679348
4357+126824694+127231851+127693696+128049178+128194313+128125325+127969667
4347+127873799+127778390+127474224+126991260+126670507+126707910+126936654
4337+127161953+127358772+127470190+127365039+127077856+126923522+127345878
4327+128503846+129813537+130262857+129571964+128602085+128263219+128534880
4317+128866339+129020325+129136705+129262725+129185393+128794888+128451675
4307+128705296+129623684+130656477+131230383+131314672+131305133+131416634
4297+131337371+130681988+129746718+129412171+130130422+131346837+132145251
4287+132228465+132021712+131964505+132047296+132020425+131725918+131186483
4277+130631719+130423881+130741850+131391077+132015224+132370733+132435191
4267+132446476+132757874+133482586+134337453+134872560+134819314+134298709
4257+133731364+133488495+133612953+133863229+134028114+134248422+134862653
4247+135792492+136429358+136448574+136266486+136282559+136238558+135844424
4237+135492673+135776621+136642875+137450396+137673774+137261453+136455374
4227+135644397+135365430+135900105+136734626+136983892+136494220+135901695
4217+135573599+135352941+135318571+135817488+136691985+137274806+137194064
4207+136769014+136649896+137150825+137873671+138161194+137898190+137499020
4197+137292349+137373817+137772261+138320730+138682755+138801093+138963422
4187+139288348+139533395+139512718+139392662+139411556+139526972+139589839
4177+139706008+140065332+140521056+140765157+140851790+141146775+141774322
4167+142430340+142760449+142718966+142497812+142230001+141944537+141800697
4157+142034515+142548586+142919148+142910087+142650271+142340693+142120449
4147+142101316+142247214+142387083+142450989+142454279+142364053+142262285
4137+142395804+142800957+143161089+143240104+143233597+143543304+144269358
4127+145023771+145348495+145187194+144737994+144152013+143722185+143898152
4117+144666258+145397476+145634621+145534166+145368519+145156592+144885537
4107+144668363+144660423+145017357+145784084+146689726+147255729+147239233
4097+146844694+146499229+146534812+146992706+147564866+147835958+147773329
4087+147789301+148140381+148605424+148949639+149205586+149278718+148901980
4077+148292886+148182709+148822130+149582103+149873017+149861925+149933697
4067+150029198+149931740+149748338+149682888+149657965+149509283+149286098
4057+149146927+149168743+149368182+149721835+150100346+150336296+150390837
4047+150379304+150421238+150454385+150234702+149649446+149021311+148900786
4037+149456946+150208456+150557348+150554408+150804574+151526887+152175222
4027+152284011+152236518+152696139+153622320+154408806+154743960+154809686
4017+154768423+154472584+153723620+152631158+151670506+151400278+152033670
4007+153205625+154262375+154895372+155336117+155798330+155984038+155472697
3997+154448727+153614582+153385865+153545272+153738379+153951969+154384912
3987+155079187+155790996+156169232+156077260+155747896+155602182+155989755
3977+157012438+158316239+159088223+158629981+157064618+155311286+154308765
3967+154342896+155110800+156251114+157560429+158735241+159341753+159261599
3957+158859984+158568997+158561351+158894428+159627962+160512650+160879822
3947+160418271+159817126+159932844+160612452+160977418+160639415+159965248
3937+159501528+159806226+161250963+163326693+164583534+164088514+162659418
3927+161880082+162373338+163352921+163687524+163298444+163111320+163768192
3917+164766449+164971769+163966583+162500728+161630761+161876902+163283960
3907+165984067+170054014+174521440+177391026+177593019+175715753+172608756
3897+169174288+166989290+167291949+169359059+170598108+169592279+168407174
3887+169219355+170987353+171449677+171197342+172213813+173607821+173151711
3878+171541943+171033578+172160989+174280096+176912547+178862578+178539188
3868+176801534+175941676+176170834+175887860+174461246+172966921+172771894
3858+175035097+180605471+188323292+192526454+188764386+181641332+176319912
3848+174088965+174612787+177025858+180302591+183863530+187525116+190413854
3838+190924240+188942945+186335270+184313870+182722243+181512582+181141459
3828+181490086+182081765+183704840+187705954+192789486+195034861+193879807
3818+192317624+190679184+187443051+183751524+182184214+183707726+187450697
3808+191015018+192458045+193207624+195485403+198065104+198085009+196333203
3798+195219485+194347956+192504086+190512939+189912162+190916392+192799356
3788+194970679+197052456+198763827+200570607+203544811+207628340+210995207
3778+212397891+213016974+214843439+218986794+225362419+232505599+238516534
3768+243152005+247357226+251465807+256055862+262633774+271583972+280870152
3758+288590344+295893630+305321958+317997428+332342934+344307606+352119715
3748+359455532+369897226+382094438+390589022+394696187+399795820+409323527
3738+423150027+438756233+452580490+462230128+467796274+471055069+474009680
3728+477891473+482546978+486599776+488956900+490111403+491513737+494262201
3718+498631461+504631625+512505711+521989785+531313000+538728217+544835021
3708+550879186+557363288+564749797+572512648+578471569+581742751+584390862
3698+588157562+592683417+597265808+602598605+609970778+618370265+623472912
3688+622771101+619151770+615897313+614186236+614765528+618364090+625190679
3678+633976545+639893853+637682775+631295755+628880074+631570053+634505586
3668+634413467+632804728+631816709+631889787+632550059+633671295+635669168
3658+638672632+642391288+646886375+652399992+658314801+663265117+666447305
3648+668157426+668092215+666044495+663759163+663902231+667945839+674819921
3638+681551451+685851125+687959057+689819891+692995683+696996357+698635606
3628+695576120+691496855+691220719+695320495+701175313+705107320+705071737
3618+703444765+704858826+710928098+718697860+723421371+722882037+718772923
3608+714829448+713608741+714671676+716297912+717584344+718729621+720299321
3598+721967242+721582445+717357539+711911927+710971915+717253730+727431234
3588+734447575+734274585+730092394+726746847+725552828+725768606+727226925
3578+729861325+731929850+731229289+728375436+726659948+728186640+731354198
3568+732234071+728642750+722643615+717968480+716439436+718066481+721651920
3558+724619433+724737137+722501430+720269325+719455104+720431581+723497977
3548+727288387+728660909+726839701+724485041+723180302+722441953+722643836
3538+724759634+727739792+729305302+729161058+728912491+729488070+730270236
3528+730272662+729257515+727586947+725852123+724710302+724465558+725163178
3518+727061949+729890217+731911323+731372283+729179511+727907268+727996079
3508+727825221+727158038+727316985+728130765+727994094+727448731+729089524
3498+733221355+736602412+736213865+732757084+729101655+726775740+725123184
3488+723615166+723408725+725375427+727936529+728362055+726452478+724974088
3478+726135391+729549458+733060569+734631446+734285246+733895449+734537562
3468+735363399+735106083+733507417+731127980+728968439+727766921+726876387
3458+724714567+720750212+716679401+715281441+718436575+725501880+732785682
3448+736074399+734922580+732949556+733095270+734944268+736810690+738022869
3438+738934943+739878998+740349665+739319593+736760624+734085863+732598577
3428+732638424+734432577+737854952+741150800+742110147+740714613+738855396
3418+737502429+735885456+733404049+730949771+730045269+731065195+732969112
3408+734712537+735628140+734984924+733053806+731586223+731728555+732992344
3398+734580056+735792087+735656445+733911035+731789797+730965945+732092326
3388+734162028+735006906+733361776+730527037+728755969+728309122+727785521
3378+727049818+727614369+730002701+732825162+734732681+735677986+736007350
3368+735827964+735316715+734665926+733899639+733058805+732447863+732546085
3358+733532266+734671881+734723418+733716578+733423385+735148651+738010076
3348+739946929+739981998+739140355+738990964+739709317+740218581+739714022
3338+738219605+736009188+733580274+732122690+732845747+735536536+738409578
3328+739822389+739792613+739077422+737930823+736877960+736957728+738140719
3318+739126607+739508022+740226742+741436347+742044789+741311365+739493098
3308+737357156+735910747+736208277+738625943+742257185+745317038+746382472
3298+745123683+741850405+737409869+733780465+733104239+735405746+738341058
3288+739790922+740113302+741189177+743442749+745085233+744923124+744223151
3278+744315417+743884744+740986485+737161743+736099322+738293932+740516039
3268+740846726+740844888+741796369+742369374+741026480+738469495+736983974
3258+738516033+742809164+746781753+747175593+743947529+739731813+737003310
3248+736630128+738060437+740059781+741474577+741642861+740334300+737862671
3238+735442505+734822742+736707838+739433474+740389586+738979936+736775401
3228+735153723+734227239+733695772+733523885+733992714+735193718+736222246
3218+735969121+734614463+733396550+733258629+734546752+737449054+741489722
3208+745036269+746247418+744177864+739023607+732478962+727485932+726015482
3198+726997179+727535925+726503132+725679501+727032247+730139961+732824868
3188+733610196+732722456+731004542+729025122+727192445+725494307+723605682
3178+722203752+722715443+724649796+725250519+723269775+720848506+720325935
3168+721362329+722175300+722058405+721263741+719634490+717305855+715821290
3158+716446567+718189625+719319462+719564721+719070748+717273433+714385173
3148+711748201+710062120+709274881+709814729+712055362+714839814+715805042
3138+713664762+709720625+706411249+704762811+704157383+704177748+705013142
3128+706009837+705855006+704619228+703755235+703729504+703445500+702282065
3118+700966373+700186779+699968134+700364033+701344259+702043056+701080474
3108+697802711+693157719+689432153+688507801+689971781+691715721+692528251
3098+692815415+692766819+691521043+688783202+686241363+686115425+688706596
3088+692374743+695526127+697515988+697966584+696599134+693727122+690149476
3078+686854730+684897880+684469633+684390012+683608948+682371186+681003074
3068+679046371+676783756+676031879+677874922+680613865+681417279+679706276
3058+677458879+676277211+675756183+675074223+674744712+675595324+676854849
3048+676803826+675263387+673780733+673293524+673162587+672483273+671137511
3038+669495983+668021269+667097652+666578536+665791002+664540815+663550517
3028+663273792+662942737+661531910+659146078+656734514+655002117+654152533
3018+654033874+654027110+653532255+652785157+652441383+652542324+652541442
3008+652029457+650878152+649258165+647873218+647334325+647070539+645942540
2998+644171472+643233078+643643166+644337992+644337404+643642504+642477157
2988+640962596+639517143+638553532+637943105+637327606+636523972+635503310
2978+634558446+634332155+635170637+636531103+637152925+635936924+632935739
2968+629697529+628128858+628600629+629632245+629677018+628631506+627204874
2958+625602899+623677221+621839618+620839468+620806458+621230221+621557379
2948+621224560+619770063+617549869+615598238+614416166+613754166+613584080
2938+614052322+614411939+613507290+611636751+610454237+610621015+610867450
2928+609925711+608211436+606759513+605533182+603793286+601576252+599842973
2918+599283495+599534157+599613594+598903660+597624984+596392184+595381484
2908+594165078+592520573+590961202+589973697+589262770+588399880+587632049
2898+587333563+587240121+586851316+586085030+585127300+584098037+583097740
2888+582268742+581704338+581372474+580971429+579917610+577897129+575506408
2878+574040957+574323233+575596358+575976083+574495524+572232836+570810908
2868+570441182+570081014+568978930+567376146+565900035+564905583+564401134
2858+564129445+563622312+562556767+561194574+560139506+559587673+559252979
2848+558940267+558632554+558112812+557068184+555567775+554046266+552834235
2838+551882681+550859704+549463728+547729346+546046684+544843806+544236063
2828+543968859+543615380+542833912+541595157+540183963+538875218+537668995
2818+536428953+535140609+533906412+532774039+531715074+530801970+530327186
2808+530554616+531229813+531540687+530813807+529158531+527267002+525725827
2798+524703438+524101907+523705751+523211631+522333559+520981070+519331344
2788+517763078+516689299+516269470+516199517+515920549+515100851+513837798
2778+512421495+511052685+509833265+508875095+508204493+507596566+506767016
2768+505740877+504797851+504041012+503198854+501901247+500152639+498484276
2758+497396602+496687513+495730556+494369722+493036826+492036015+491198672
2748+490256235+489250718+488429072+487763212+486824781+485319814+483501289
2738+481854909+480655560+479914086+479406990+478757635+477741642+476445064
2728+475096398+473921494+473087423+472580400+472150536+471451850+470300141
2718+468876559+467584540+466573289+465604715+464472709+463247481+462104521
2708+461199027+460567794+459956926+459041249+457934387+457030804+456305872
2698+455333328+454033295+452841849+452072658+451556777+450969398+450191275
2688+449297213+448396056+447505964+446564372+445612524+444829107+444229818
2678+443529662+442523778+441395337+440391548+439448853+438452931+437618382
2668+437232739+437198038+437131246+436773871+436070296+434983174+433484897
2658+431709271+429940775+428377435+426995722+425793579+425065155+425134630
2648+425809055+426368055+426161835+425114890+423682082+422398958+421472143
2638+420786948+420200783+419675380+419183245+418662475+418056165+417362442
2628+416664234+416041309+415444336+414802848+414218152+413829716+413549425
2618+413162422+412634410+412115882+411657014+411064783+410145357+409054191
2608+408199902+407706738+407196628+406313704+405319068+404881778+405293814
2598+406075245+406414608+405937508+404959046+404013116+403298219+402664267
2588+402016051+401510131+401308911+401316961+401271820+401022371+400639889
2578+400283985+400010127+399704179+399201053+398490236+397778537+397294305
2568+397054083+396853854+396452883+395790331+395105356+394755995+394798195
2558+394898732+394808524+394679719+394712178+394759450+394559847+394174939
2548+393919682+393923615+393992906+393921667+393722982+393500147+393306939
2538+393168797+393032898+392733750+392240034+391836636+391805244+392022896
2528+392085902+391781975+391305683+391004183+390981796+391034031+390958822
2518+390762894+390536971+390342477+390247343+390254328+390201210+389927794
2508+389509729+389188636+389098685+389120594+388976056+388507410+387902939
2498+387512076+387392792+387260605+386962449+386722153+386749098+386883196
2488+386848900+386629446+386368381+386103125+385808241+385540228+385362239
2478+385232809+385055959+384749129+384259567+383640428+383096205+382824259
2468+382801799+382809335+382682111+382486293+382406341+382503644+382671414
2458+382793565+382832383+382781104+382638698+382425934+382182183+381976073
2448+381896525+381936372+381921044+381682512+381256434+380790766+380352189
2438+379959084+379701768+379651408+379677617+379515802+379054582+378473967
2428+378052998+377897800+377911879+377957461+377946984+377831854+377607879
2418+377328471+377070162+376886071+376777815+376686284+376541599+376356331
2408+376222931+376197714+376261235+376416029+376705729+377076963+377343726
2398+377374824+377213230+376959884+376662390+376374748+376202824+376178783
2388+376133128+375774871+374917531+373581584+371848966+369657995+366826088
2378+363330672+359520119+355885679+352588581+349440726+346395724+343664059
2368+341277344+339079940+337201792+336051112+335940246+337000461+339189631
2358+342330648+346434138+351851665+358869661+367030543+374827949+380407769
2348+382690712+381988240+379857003+377816635+375917975+373314380+369695270
2338+365454962+361156170+357193469+353731836+350894230+348870772+347639148
2328+346824449+346135762+345696156+345742767+346274675+347161422+348328791
2318+349670914+350998994+352197388+353287892+354298886+355202616+356027203
2308+356922295+358002286+359129550+359975678+360356028+360406609+360390655
2298+360454874+360620401+360878710+361195576+361481307+361650216+361710171
2288+361748584+361848460+362047585+362316444+362529317+362546337+362385882
2278+362241675+362279206+362438522+362466569+362185286+361712339+361300634
2268+360999428+360681385+360355954+360170062+360103123+359961967+359727552
2258+359632235+359797726+360034015+360121025+360098087+360133891+360268798
2248+360413703+360499132+360556881+360696162+360986966+361359927+361680028
2238+361880624+361968847+362000276+362079676+362260827+362449549+362522774
2228+362496896+362480758+362543433+362707747+362983958+363343538+363721682
2218+364068103+364351297+364537631+364641586+364772707+365056710+365507307
2208+366005875+366387805+366559692+366594136+366706252+367074508+367668025
2198+368262241+368643656+368833372+369094621+369663693+370489898+371295223
2188+371855252+372160319+372349519+372572171+372906057+373330738+373757368
2178+374133564+374535417+375092249+375799794+376497965+377097658+377753997
2168+378716469+380041976+381553119+383069591+384598819+386300082+388322988
2158+390674929+393238346+395939427+398815042+401817955+404697540+407246804
2148+409521697+411683555+413811373+415952314+418141447+420321684+422429763
2138+424538466+426752154+429044324+431377774+433906601+436852536+440180476
2128+443556423+446669320+449442008+451856587+453748520+454897913+455221947
2118+454810058+453822810+452334679+450245017+447450494+444158946+440883867
2108+438008767+435429139+432721698+429624865+426234582+422774309+419390495
2098+416199595+413284022+410565076+407892116+405280617+402852769+400570745
2088+398284163+396059079+394199163+392834103+391679269+390384824+389011235
2078+387929222+387308796+386939732+386545377+386065336+385604998+385267583
2068+385084191+384999093+384863083+384500157+383849700+383033751+382271030
2058+381742467+381497833+381430637+381388621+381337893+381345391+381416411
2048+381470631+381461661+381443061+381535768+381817235+382203282+382521950
2038+382745226+383035920+383547942+384273021+385073567+385807947+386417675
2028+386887901+387163891+387157384+386799752+386123232+385362018+384803239
2018+384390026+383714719+382560915+381179018+379959856+379120528+378636922
2008+378249147+377664047+376859715+376032481+375293396+374610149+373948700
1998+373365733+373067430+373276481+373833092+374129189+373731783+372862129
1988+372011847+371434945+371159911+371090510+370974754+370587678+370005335
1978+369496989+369204715+369069183+368952546+368780512+368677291+368855023
1968+369208612+369263861+368772388+368044074+367484007+367189454+367109760
1958+367203092+367328552+367291388+367057635+366749849+366490364+366371815
1948+366505031+367001062+367825613+368581423+368641892+367831494+366710001
1938+365872769+365382252+365027413+364725471+364513075+364397247+364369346
1928+364551415+365237530+366509736+367824730+368519740+368714859+368876454
1918+368732173+367736214+366336011+365549066+365668754+366156515+366410375
1908+366261353+365891112+365518078+365213011+364966392+364803916+364799836
1898+365051748+365533149+365977166+366248781+366655708+367302784+367521796
1888+366753819+365514108+364625780+364233557+364081005+364070602+364205326
1878+364379124+364454481+364511715+365048476+366715883+369473353+371958399
1868+372340807+370422628+367859725+366144017+365551088+365584612+365661403
1858+365496169+365217864+365152285+365443493+366001501+366733197+367735626
1848+369390681+371945570+374461347+374907165+372792948+370135647+368680122
1838+368461771+368686481+368972727+369879434+372129073+375160143+377131146
1828+377242012+376531821+375663269+374309568+372711820+371823823+371991189
1818+372674987+373307543+373927895+374931059+376341186+377506827+377767819
1808+377334242+377121295+377923164+379907106+382493130+384595916+385461673
1798+385526811+386146611+388406396+391976837+394681484+394463022+392373728
1788+391092626+391724006+393570357+395703763+397853490+399780124+401052293
1778+402004546+403949339+407949497+413420620+417696438+418474414+416779915
1768+414915772+414059793+414866662+417573183+420988500+423267693+424390362
1758+425550563+426823247+428026346+430307451+434725894+440081887+443534882
1748+444044000+443302673+443204415+444470666+446858410+449425650+451222119
1738+452905112+456491985+462351581+466998558+466989662+464445838+462527953
1728+462086362+463204362+465628866+468598474+472145243+477705728+486086799
1718+494961328+499581875+498653847+495722248+493958532+494614173+497991553
1708+503660221+510166232+515840965+520987834+527485279+535246366+541002448
1698+543258005+543773777+543016202+541547553+541865302+545309291+550915725
1688+557832485+567051524+578494359+586860911+587795702+585667369+585665054
1678+589422710+596360093+604070194+610133806+615238217+621199710+626942412
1668+630018733+631668789+635155639+641028910+646744998+650306543+653187011
1658+658156000+666891579+679701570+693478187+700550403+701229423+703387200
1648+708642913+712811430+712500077+710514922+710740111+714137488+720413422
1638+728682009+735742756+736515071+731485649+726904986+725727876+726896458
1628+728530634+729747664+730329566+729383893+726408514+723424311+722856379
1618+723918505+722533116+716575152+709401554+704207596+700993354+698328959
1608+695210291+691839894+688954428+686795548+685040874+683399420+681943527
1598+680912646+680323099+679822435+679007773+677884185+676852055+676164948
1588+675539450+674534889+673224710+672115752+671680227+672521429+675453286
1578+680370445+684736139+685367004+683809067+684188865+687453541+691148964
1568+693050308+694317037+697102591+702319413+710875900+724226328+740483837
1558+750322566+751136272+751661564+755798982+762187988+769017297+775672882
1548+782460433+790246075+799650749+810347074+821299466+829558202+829863011
1538+823810795+819546998+819921209+821944667+821862694+820437899+821165441
1528+825036133+830333090+835892289+842595661+850262349+855816769+857716128
1518+858143419+858565711+858936467+859989477+862971400+868590001+877209053
1508+887455811+892784161+887965076+879885946+875669495+876217578+880016736
1498+884469330+886579981+886031237+885945220+888634171+892796659+894499281
1488+891799670+887537490+885186800+885564981+887714818+890567495+893729760
1478+897221462+900899976+904338083+906712961+906864925+904947848+903184646
1468+903361753+905107972+906281921+905354481+904099662+905774126+911323620
1458+917336136+917617860+912135268+906987995+904775079+904820072+906023502
1448+907148928+907148193+906317651+905791182+906044528+907159221+909600854
1438+913016685+914758125+912803848+909696428+908747742+910072036+911785245
1428+912765104+913369428+913989045+914706000+915961040+917898114+918974208
1418+917128666+913267605+910275830+909340891+909584092+909676358+909166799
1408+908427567+907685321+906803757+906092021+906317063+907396245+908172383
1398+907986675+907396319+906688038+905375287+903713320+902546136+901306902
1388+897997968+892059706+886273481+884035275+886088361+890711224+895781008
1378+900202282+903693029+906108416+907673999+909335745+911843545+914845171
1368+917639107+920217264+922601847+923744550+922625226+920263508+918901131
1358+919570005+921630296+923676472+924583988+924544802+924944524+926687729
1348+929085765+930899180+931961160+933124595+935172535+938138578+941020221
1338+942193435+941098004+939289441+938684749+939367518+940217690+940925235
1328+941948396+943178293+944084191+944711233+945536114+946654189+947594494
1318+947721682+946980097+946322104+946794977+948213596+949421290+949769254
1308+949517085+949044800+948667942+948866296+949646110+949984150+948919156
1298+946928708+945241378+944252329+943535520+942931784+942525960+941785773
1288+939863035+936708269+933199952+930143628+927563926+925160890+922902466
1278+920708958+918193145+915349510+912788777+910814429+909077253+907474469
1268+906473143+906199579+905997991+905178918+903651270+901559440+898834685
1258+895520457+892090805+889023894+886462719+884567257+883624452+883506822
1248+883672533+883858903+884147391+884413014+884358610+884155184+884566963
1238+886144162+888396852+890138145+890799667+890997139+891591318+892762472
1228+894169255+895377978+896055086+896303947+896803213+898143094+900109428
1218+902053412+903940052+906419695+909639745+912702024+914624835+915317456
1208+915218426+914522277+913506835+913166149+914508602+917347752+920591328
1198+923598909+926464967+929311174+932047691+934384707+935971096+937014108
1188+938387292+940505737+942701670+944348859+945866214+948039577+950914016
1178+953687954+955474314+956214722+956996962+959046961+962014107+963848842
1168+963349429+962283774+963460516+967144470+971042217+973537004+975112586
1158+976562230+977866233+979260150+981519162+984356327+985886988+984662312
1148+981516516+978800069+978389319+980550993+984079381+987310019+989367590
1138+990497427+991079990+991093811+990976034+991869729+994202040+996781668
1128+998235208+998856075+999879604+1001760877+1004142445+1006415647+1007716341
1118+1007749646+1008020342+1010393970+1014259516+1017103150+1017890463
1110+1017966996+1018624622+1019529933+1019700055+1018905684+1017896859
1101+1017639690+1018323783+1019222403+1019706378+1020197998+1021692415
1093+1024153384+1026552964+1028798596+1031500486+1033784642+1034493437
1084+1035185690+1038579466+1043738207+1046497368+1045608305+1043806212
1075+1042512649+1040684677+1039033591+1041051903+1047904004+1055640241
1067+1059443737+1058515930+1055067530+1050656181+1046245566+1043949427
1058+1045421862+1049368572+1052856599+1054705670+1055904247+1056913514
1050+1056833525+1055590249+1054730152+1055617671+1058047836+1060849564
1041+1063637030+1067166668+1071332611+1073741823+1072086547+1067609913
1033+1063839059+1062295532+1061695839+1061364416+1062025571+1062572404
1024+1060604893+1056881239+1054938798+1055853299+1057071506+1056650684
1015+1055713246+1056307278+1058763027+1061289721+1061696207+1059741930
1007+1057035628+1054799113+1053063628+1051685223+1050459003+1048496786
998+1045282617+1042231439+1041588150+1043537354+1045595660+1045559195
990+1043853705+1041986916+1040504482+1039289143+1038171583+1036189810
981+1031870286+1025381148+1018994054+1014918906+1013488377+1013297081
973+1012893536+1012292667+1012561746+1013685040+1013675997+1010436170
964+1003899465+996131247+989828773+986468228+985004983+982551219+977288081
954+970409955+964637699+961415810+960004543+958903158+957462483+956008134
944+955139436+955216631+955871904+956141424+955645613+955057683+954911454
934+954779708+954230008+953614803+953485263+953991954+954763755+955075916
924+954556505+953622743+952819697+952052013+950957980+949518114+948003994
914+946873348+946577067+946955101+947217049+946687493+945280048+943451488
904+941781435+940358405+939008453+938438020+940008308+943425242+945786225
894+944615144+941000077+937954707+936687978+935976757+934465063+932134958
884+929767726+928320214+928616127+930572242+932908817+934249139+934224289
874+933162825+931648190+930699430+930983433+931623929+931246557+929906897
864+928695748+928189424+928643991+930525999+933324860+935005868+934042404
854+931319708+929007027+928220008+928546358+929298676+930549084+932517550
844+934239287+933794425+930530704+926440264+924397471+925400267+928230668
834+931355879+934237890+936684817+937929490+937137252+934702456+932205316
824+930691122+929891164+929469166+930020998+932184951+935723779+939705778
814+942750340+943729757+943167044+943100289+944675503+946892316+948210508
804+948077072+946825340+945138598+943635947+942783350+942829299+943045665
794+941307386+936383316+930873890+929449684+933717745+940386930+944885032
784+945773139+944829158+944196675+944626687+944977224+943391056+940078078
774+937870161+939131523+942525372+944140654+942207697+938811275+936596521
764+935898680+935598429+935404340+936034984+937469336+938517273+938311641
754+937155337+935882065+935284137+936185918+939076384+943467736+948077660
744+951459305+952599728+951413502+948626037+945519132+943697041+943771222
734+944091690+942497949+939707984+938742094+940568375+942679026+942288936
724+939130126+935199369+933256488+934720247+937935151+939845097+939904059
714+940358699+942491700+944783723+944992149+942840915+940042936+938122477
704+937433974+937816492+938412583+937007344+932327577+926896596+924181987
694+923992897+923712716+922570381+921524576+919944583+915570949+908010348
684+900126558+895152349+893225567+891870028+889949055+888725849+889211073
674+890659981+890731515+886800170+878704867+872405040+876173761+886621446
664+893987149+894178077+888334802+880116207+872922906+868161313+865788052
654+865491845+866792981+868321290+868452742+867395835+867385396+870096917
644+874653466+878154137+877515185+871635592+862922142+855847868+853302132
634+854513354+856294348+855942339+852909027+848582592+844975685+842501998
624+839325691+834433455+830115327+830168482+835626886+842089190+843310999
614+838513308+833683931+834592109+841187555+849532087+856493436+859194077
604+853329554+839450452+827130170+825332120
##END=
