##TITLE=<SNM>
##JCAMP-DX=4.24
##DATA TYPE=INFRARED SPECTRUM
##DATE=3/5/2025
##SAMPLING PROCEDURE=Instrument type and / or accessory
##ORIGIN=Admin
##XUNITS=1/CM
##YUNITS=ABSORBANCE
##RESOLUTION=4
##FIRSTX=4497.3318
##LASTX=599.83466
##DELTAX=-1.4281778
##MAXY=1.7208546
##MINY=0.17516589
##XFACTOR=1
##YFACTOR=1.6026708e-09
##NPOINTS=2730
##FIRSTY=0.19958389
##XYDATA=(X++(Y..Y))
4497+124532057+124710396+124658757+124684195+124923118+125272340+125523676
4487+125482068+125138360+124837049+124928725+125161818+124957436+124400531
4477+124234540+124733175+125324844+125466699+125185221+124678868+124008568
4467+123231001+122499076+122031876+121949786+122070089+122127168+122184507
4457+122494864+123043838+123462123+123297796+122446767+121436469+120953798
4447+120980426+120931158+120642501+120462544+120432968+120252081+120060502
4437+120429137+121406382+122236537+122185121+121188444+119663992+118160451
4427+117221410+117136336+117696746+118334141+118410894+117473425+115633976
4417+113678296+112468088+112286216+112846077+113660231+114297998+114544750
4407+114454766+114240185+114116804+114143386+114116934+113773812+113192947
4397+112817933+112966594+113462534+113885626+114100784+114274800+114392602
4387+114213640+113793402+113504122+113424655+113214164+112617707+111663623
4377+110539391+109624264+109296241+109458877+109676434+109834281+110206933
4367+110932479+111794451+112442557+112616833+112275775+111640258+111022918
4357+110586568+110374385+110465307+110872286+111423259+112011134+112750339
4347+113571410+114022934+113868090+113454575+113109946+112682308+112056293
4337+111536226+111334140+111216812+110998837+110873671+110924744+110865499
4327+110630462+110580152+110760937+110779895+110740082+111301914+112481914
4317+113417068+113540439+113012962+112120308+111212377+110926278+111612142
4307+112763123+113523889+113539677+113128114+112907693+113264725+113970467
4297+114429188+114401844+114217312+114211920+114349888+114464129+114473418
4287+114316621+114031749+113831606+113833010+113880382+113817818+113731833
4277+113847952+114344300+115163893+115884642+115979135+115304084+114234048
4267+113395953+113381913+114396814+115883033+116860594+117005666+116944804
4257+117206097+117562692+117695445+117722036+117791918+117871738+117980084
4247+118054234+117865351+117554064+117683153+118392038+119177369+119679742
4237+119917354+119756718+118988049+117917055+117204925+117131808+117468859
4227+117983952+118646451+119302395+119586635+119433920+119341957+119740791
4217+120340335+120577798+120466291+120446571+120609076+120631995+120369446
4207+120096986+120245610+120995470+121974834+122450775+122050044+121173614
4197+120548362+120521398+120912255+121360451+121632642+121675932+121559273
4187+121428427+121418488+121547763+121741685+121938964+122135025+122400279
4177+122864895+123579330+124386985+125030451+125390003+125532890+125485583
4167+125088413+124262842+123305280+122596312+122146786+121812924+121777277
4157+122334869+123276913+123943159+123959848+123629175+123484205+123684087
4147+123974780+124057149+123834469+123432808+123092884+122955724+122935790
4137+122895726+122909960+123226696+123910933+124606615+124834948+124558806
4127+124240946+124286960+124608661+124763988+124492569+124139340+124354452
4117+125235447+126119780+126449820+126420923+126483041+126656071+126698348
4107+126587649+126459917+126361408+126395066+126747877+127255708+127443057
4097+127284670+127292341+127639880+127969605+128114500+128218337+128271176
4087+128219583+128249912+128461779+128664320+128764884+128911490+129103106
4077+129018228+128374706+127329058+126437817+126175993+126525680+127110906
4067+127615176+127950126+128182308+128415876+128597181+128461435+127918142
4057+127365570+127305516+127788588+128490369+129129642+129568894+129709940
4047+129536724+129173239+128798346+128541032+128428121+128383631+128333284
4037+128333442+128537685+129016043+129624113+130050468+130034365+129612202
4027+129133956+128985416+129329850+130083931+130944498+131451633+131352789
4017+130981922+130969007+131538696+132297659+132602493+132034747+130788706
4007+129660885+129363591+129883528+130718471+131497210+132099404+132468811
3997+132673797+132924882+133221330+133240427+132894887+132648098+132896319
3987+133408837+133745293+133816922+133709571+133398293+132971761+132821045
3977+133290077+134205455+134909700+134885861+134300245+133715001+133425461
3967+133467329+134022058+135195400+136496103+137132884+136907368+136353411
3957+135954028+135701260+135500523+135628459+136514568+138049210+139314070
3947+139478323+138915803+138662338+138924645+138974109+138446306+137808288
3937+137603701+138138794+139589394+141589033+142923876+142592023+141193313
3927+140279544+140480086+140973199+140952270+140978899+142061709+143935532
3917+144949168+143782585+140997466+138395568+137237018+137609261+139329030
3907+142759400+148090993+154054076+158265862+159315890+157388271+153214419
3897+148249807+144871495+144829460+147511634+149840598+149555446+148646744
3887+149963551+152626813+153677872+153154830+153081108+152723454+150424177
3878+147922937+148014426+150843067+154878011+158982809+161660975+161242820
3868+159149684+158360160+158821177+158063526+155398264+152864444+152500523
3858+155488842+162756840+173201139+179396628+174199434+163413165+154933453
3848+151122100+151447706+154432837+158658672+163583109+169020481+173317769
3838+173662789+170110582+166085493+163549209+161780414+160025918+158818072
3828+158629719+159442059+162135921+167794467+174310727+176637552+174298863
3818+171482849+169005289+164979884+160351319+158103525+159645010+164283784
3808+169335134+171971889+173174566+175687606+178498637+178252657+175725875
3798+173942222+172726101+170597707+168151592+166961951+167490339+169418814
3788+172483672+176155652+179462939+182221624+185528149+189843809+193706243
3778+195793578+197152029+199890854+205371554+213616890+222788314+230216344
3768+235377649+239859701+244868189+251391367+260799566+273056601+285568245
3758+295979221+305565397+317590771+334083748+353950193+372022366+384216605
3748+393640611+404742852+416441077+423652861+427058350+432262462+441977040
3738+456098730+472923188+488389922+497719017+500009451+498673110+497457640
3728+497956331+499699911+501536097+503257325+505084101+506189041+505981702
3718+506143631+509558603+517832186+529665747+540421780+545804333+547072986
3708+548059547+550917290+556684545+564697457+571366143+573823081+573813783
3698+574129682+575522404+578576068+584700653+594105951+603696237+608095428
3688+605518253+600391461+597330396+597680324+600722050+605413040+611708331
3678+619587095+625527027+623846523+616406313+609879509+606019325+602922482
3668+599984296+598073096+597242663+597074225+597994847+601378803+607791393
3658+615291815+620615086+623623154+628324000+637710815+649664243+655777596
3648+650126971+639850701+634061056+633802134+634882155+634066114+632459248
3638+632900777+636122692+641057989+647218649+654907256+662912209+666964000
3628+664461207+660232685+658762606+659696839+662261890+667160145+673744706
3618+679055704+682122162+684466448+685891303+684933490+682711859+681918505
3608+683084586+685192413+687984774+691303386+694014002+695500221+697207875
3598+700669002+704567567+705688647+703458314+701134408+701512415+704427432
3588+707983321+710179141+709746017+707213545+704404522+702537394+702098840
3578+703128877+704231511+703519455+701969342+702951403+708130002+715571067
3568+720883702+720784477+716779546+712958412+711442291+712108527+713886843
3558+714611916+712180231+707148684+702302423+700032667+701253121+705377137
3548+710127521+712723291+712706927+712509072+714018499+715966554+715846948
3538+713417123+710991017+710391204+710917677+710608770+708717840+706510490
3528+705758938+706287643+705565992+701998722+697438384+694928152+695567834
3518+698264466+701337098+703974745+706575648+709225643+709964179+706715560
3508+701417504+698906380+701186624+705466841+708187275+708803007+708474389
3498+707699852+706508407+705594926+706320445+709210321+712508477+713442711
3488+711476952+708490381+705703449+703008379+701012794+701108225+703379023
3478+705658969+705685449+703906091+702293869+701042100+699268842+698147687
3468+700035419+704586088+708671723+710120082+709173427+706993227+704419473
3458+702118031+701277592+703002503+706883811+711054985+713515828+713117291
3448+710147306+706476349+704110343+703423131+703706823+704636668+705862998
3438+706139846+704636221+702588197+702048484+703176779+704051656+703396354
3428+702039558+701237724+701097068+701321998+701832182+701981540+700744053
3418+698071372+695353466+694158823+694894606+696684526+698280235+699004489
3408+698910545+698641581+699270552+701221732+703275335+703837362+702758977
3398+701168326+700252539+700621472+702209297+704462689+706615071+708110588
3388+708776973+708483314+707265166+705535570+703894487+702623454+701098333
3378+698508438+695438931+693639639+693934041+695426286+697107385+698922149
3368+700651671+701411033+701223368+701439670+702674554+703920447+704336910
3358+704162559+703246772+700970173+698063859+696418388+696582772+697132898
3348+697056880+697183552+698524356+700456940+701234823+699905028+697264182
3338+694990484+694349388+695682159+698415759+701445100+703998696+705711408
3328+705633754+702874641+698664788+695932081+696145854+697926402+699074631
3318+698852081+697690835+696101597+695263911+697126948+702031748+707071997
3308+708638623+706330114+702505485+699161583+697094443+696554730+697002879
3298+697381928+698003982+700597967+705301342+709444102+710711565+709864805
3288+708885942+708362519+707898451+707498799+707236455+706318808+703853875
3278+700555272+698459867+698810576+700807798+702218967+701575119+699538550
3268+698112058+699074854+702310233+705577819+706699791+705638514+703667028
3258+701198302+697983378+694970698+693791154+694785414+697055318+699728297
3248+702068046+703251830+703085661+702228785+701149656+699855043+698470504
3238+697150378+696129416+696119374+697371961+698520488+698085207+696991945
3228+697483608+699733132+701521490+701238616+699430622+697263587+695213108
3218+693409948+691818330+690171520+688775749+688701069+690324151+692496988
3208+693700260+693414039+692178039+690732953+689349380+688066743+687531269
3198+688766005+691594739+694244882+694978360+693314963+689863952+686202962
3188+684245609+684480506+685402169+685469856+684766429+684030869+683336368
3178+682343373+680863475+678910734+676707327+674693667+673126892+671650267
3168+669675881+667393629+666216986+667367075+669932869+671355344+670396788
3158+668628587+668073775+668603744+668828748+668659679+669309105+670814887
3148+671299483+669365858+665874904+662609550+660452334+659272715+658467534
3138+657325924+655701280+654511323+654869842+656315747+656783831+655220626
3128+653108931+652133416+651756450+650741215+649644160+649676888+650305785
3118+649941538+648297927+646637431+646105379+646660638+647290278+646936742
3108+645437060+643645950+642592780+642690889+643703075+644825122+644773947
3098+642886662+640190699+638540245+638597295+639336872+639555331+639088512
3088+638498517+638036235+637275162+635950350+634655961+634157976+634468593
3078+634998265+635118838+634435345+632989440+631377664+630389504+630276146
3068+630379016+629726243+628215329+626863145+626467732+626547023+626074476
3058+624779343+623237039+622012420+621325989+621298579+621736427+621816015
3048+620831983+619324007+618578963+618903044+619270378+618718317+617101781
3038+614549152+611266057+607984897+605834152+605410176+606144881+606751649
3028+606325740+604996317+603580202+602690635+602250704+601957194+601868420
3018+602073230+602057275+601145914+599516547+597969929+596746202+595349761
3008+593567503+591965508+591242444+591592893+592723234+594031607+594706620
2998+594106695+592192781+589460557+586649675+584551666+583684004+583866239
2988+584244358+584043900+583373535+582999805+583138973+582902774+581501163
2978+579595134+578603329+578859462+579241561+578541518+576593351+574172898
2968+572390453+571956622+572434227+572568114+571780189+570650741+569647816
2958+568420630+566696947+565004876+564132491+564272403+564845105+565089597
2948+564740189+563998232+563062920+562037160+561079534+560279485+559514432
2938+558550483+557205440+555551564+553972963+552818745+552205803+552172778
2928+552535351+552675226+552055441+550826024+549449108+547996546+546224255
2918+544118659+542077813+540568758+539776259+539597631+539707493+539593019
2908+538965387+538145739+537580475+537188781+536632965+535830312+534850892
2898+533735056+532542978+531281837+529918868+528619458+527710403+527366946
2888+527524300+527930647+528148325+527753470+526658832+525177187+523807523
2878+522837773+522018385+520896784+519544116+518466140+517796854+517158437
2868+516297841+515371715+514621316+514103062+513695078+513234507+512740427
2858+512390387+512128750+511529606+510244216+508419932+506528109+504951851
2848+503852787+503277259+503138129+502999965+502215461+500645711+498947876
2838+497773538+497105777+496672355+496383978+496043273+495319428+494303486
2828+493410051+492633953+491561592+490094303+488591236+487365947+486432680
2818+485633859+484837566+484159875+483922151+484165342+484459707+484427909
2808+484110560+483594723+482701920+481337166+479802896+478490283+477430307
2798+476328901+474994234+473592995+472416389+471446750+470359699+469057351
2788+467937312+467386330+467226819+466953615+466332342+465446308+464350183
2778+463014252+461525280+460126384+459056070+458371498+457790689+456808591
2768+455255911+453631639+452579027+452170003+451956788+451544751+450863638
2758+449996571+448978621+447792569+446494832+445241501+444123173+443078223
2748+442083814+441314745+440856926+440324317+439153103+437368725+435651476
2738+434491010+433688358+432858370+432003205+431314096+430737155+430068538
2728+429318102+428686862+428211377+427655337+426808725+425713642+424516543
2718+423317772+422251622+421414494+420617123+419538068+418180715+416866503
2708+415840519+415136572+414607644+413902171+412778115+411541112+410725926
2698+410320992+409755097+408674740+407381467+406426258+406009163+405889148
2688+405706690+405205506+404274620+403047955+401859857+400861469+399826932
2678+398532989+397155515+396121573+395632551+395406840+394965831+394165894
2668+393294104+392665430+392353102+392244690+392095369+391606942+390690969
2658+389607638+388719819+388126625+387593197+386855480+385946276+385107511
2648+384406018+383627168+382597688+381466901+380577855+380111854+379921400
2638+379682932+379163004+378374745+377557216+376998573+376803321+376771895
2628+376496571+375692506+374541784+373575158+373106776+372964187+372825391
2618+372541550+372077334+371395775+370481662+369403277+368394216+367772050
2608+367601419+367578993+367401816+367047834+366576923+365927460+365073410
2598+364169561+363411501+362875767+362523421+362220837+361784365+361167518
2588+360573246+360239347+360180213+360254483+360348613+360348204+360069571
2578+359423789+358602541+357937570+357559860+357330281+357103305+356875660
2568+356669772+356473553+356309616+356210167+356158100+356129054+356077768
2558+355869648+355391449+354733915+354140349+353796967+353705514+353701832
2548+353608632+353369495+352995356+352499081+351992207+351693602+351686908
2538+351770773+351677796+351391129+351145744+351113574+351193014+351184014
2528+351064743+350965108+350974146+351108442+351337946+351523826+351473991
2518+351149017+350668065+350101314+349491050+349078232+349152763+349571717
2508+349780618+349468922+348868141+348294361+347791206+347329520+346962409
2498+346667114+346332025+345959968+345664858+345441193+345111385+344577733
2488+344039248+343801859+343861959+343879364+343640339+343310977+343118589
2478+343045992+342979681+342916754+342859964+342687101+342298903+341812447
2468+341472449+341392786+341468209+341512540+341418745+341216315+341006522
2458+340819489+340566108+340185125+339766022+339430933+339178407+338951766
2448+338762502+338616342+338418524+338091505+337724618+337517874+337592813
2438+337846715+337988078+337842104+337608880+337588648+337687873+337521965
2428+336986715+336380579+335963372+335718917+335558810+335493131+335550740
2418+335704412+335938119+336289982+336742817+337108180+337113387+336665014
2408+336017336+335601877+335631890+335941615+336257886+336471994+336551731
2398+336424427+336128388+335889325+335878837+336020646+336126193+336085507
2388+335840084+335279284+334274723+332757597+330677031+327970060+324682912
2378+321041968+317306187+313584017+309834141+306070244+302532039+299483861
2368+296843982+294364581+292233398+291038383+291092310+292210675+294174704
2358+297182493+301730410+308101532+316143304+325215075+333898649+340291937
2348+343077679+342394335+339888380+337400686+335306842+332874674+329599948
2338+325506689+320956354+316493939+312590874+309494198+307291367+305957017
2328+305295094+304971274+304758710+304727599+305077212+305904391+307240714
2318+309023809+310894600+312365460+313323421+314119528+315128924+316413904
2308+317776911+318971220+319859337+320478750+321013926+321646802+322365738
2298+322989874+323428503+323793010+324206460+324640291+324976571+325154566
2288+325245274+325344388+325379831+325190939+324843279+324635568+324735463
2278+324996468+325161930+325113024+324922904+324745950+324652936+324560108
2268+324321231+323894913+323438209+323203089+323283793+323519285+323695830
2258+323747600+323702934+323567931+323354121+323139307+323039933+323152175
2248+323486409+323892198+324116830+324040775+323800076+323629073+323674297
2238+323971228+324464416+325011344+325465779+325803806+326154664+326696311
2228+327494352+328402180+329133054+329509500+329700995+330128838+331015988
2218+332159606+333307761+334539447+336033551+337721866+339425949+341120958
2208+342913370+344929298+347234348+349712596+352111367+354333593+356563666
2198+358998029+361589485+364155838+366589791+368869738+371037330+373224634
2188+375501084+377711856+379679362+381447525+383158600+384869973+386539321
2178+388013453+389122670+389859754+390287300+390382025+390176100+389836808
2168+389527417+389392824+389503541+389613216+389284078+388411990+387418326
2158+386867121+386921084+387189825+387202619+386845475+386194264+385346871
2148+384497098+383795233+383544976+384800538+388722422+395016745+402090217
2138+408810003+415085992+421099265+427042916+433184608+439574326+446032513
2128+452405235+458566490+464432933+470003523+475122877+479404359+482538281
2118+484476852+485332576+485200474+484134957+482468436+481047561+480915087
2108+482882407+487465246+494930598+505086370+516779388+527715424+535314550
2098+537795327+534490587+526186546+515140983+503486123+491918327+480404308
2088+468952027+457373408+445449063+433354608+421473999+410324563+400594514
2078+392635566+386260389+381196970+377148824+373665122+370535068+367884515
2068+365731316+363966871+362514458+361147100+359640463+358109949+356755125
2058+355612771+354745816+354183491+353783727+353497060+353427773+353597363
2048+354053323+355035644+356842597+359799863+364268749+370509667+378819101
2038+389695669+403421537+419660240+437628019+456166305+473546990+487733578
2028+497084987+501004268+500155276+495857318+489296523+481396746+472825451
2018+463850524+454607861+445436195+436691815+428504552+420787754+413306076
2008+405885503+398622507+391732684+385344751+379556930+374418683+369797835
1998+365550233+361840189+359009967+357019737+355224536+352967834+350278157
1988+347684915+345616957+344215309+343340915+342608256+341719805+340740719
1978+339858850+339133704+338587519+338222194+337952746+337773301+337783565
1968+337829719+337454092+336488581+335374604+334627068+334306670+334225147
1958+334310761+334479421+334473619+334151695+333689674+333314418+333079819
1948+333026338+333374482+334305145+335401716+335647733+334567638+332976689
1938+331916155+331504378+331289490+331081072+330991777+331036109+331079027
1928+331166537+331681778+332828706+334078615+334790857+335220932+335875230
1918+336234828+335425704+333845726+332759978+332738444+333299170+333610234
1908+333284443+332648070+332265898+332289997+332419979+332391826+332324696
1898+332554796+333130993+333679112+334069355+334763075+335845068+336350677
1888+335512619+333993374+332879844+332433070+332370590+332490419+332694708
1878+332882707+332970812+333002611+333475789+335290292+338684029+342085725
1868+342941560+340659383+337294357+334894582+333938034+333860752+333978089
1858+333949563+333828916+333815751+333982812+334357137+335084292+336390137
1848+338602767+341844022+344948749+345517322+342982359+339804738+338124419
1838+337950254+338221673+338460252+339470987+342224001+345958963+348284394
1828+348234298+347246175+346203158+344578514+342508139+341174624+341129884
1818+341757293+342315044+342910655+344187416+346173220+347852683+348249435
1808+347630765+347130140+347713775+349726914+352668262+355202780+356169443
1798+355968427+356383328+358911411+363114123+366003032+364800281+361086665
1788+358629579+358975714+361192064+363940280+366662016+368843109+369840083
1778+370210132+371873417+376349407+382970043+388340286+389310148+386823719
1768+383626163+381360424+381176925+383581237+387100233+389333653+390137496
1758+390986785+392103328+393354874+396053105+401279234+407345317+410690557
1748+410242334+408338759+407334755+408034240+410145637+412548574+413984883
1738+415187077+418797227+425544163+431115237+430764118+426827618+423270502
1728+421193357+420847074+422241246+424686059+428141905+434150082+443736984
1718+454242015+459551526+457517448+452575048+448933137+448185787+450722759
1708+456173446+462847674+468586367+473747374+480938331+490402392+497899392
1698+500755796+500699898+498348583+494708680+493236109+495754783+501164337
1688+508426626+518678165+531860787+541511062+541922950+538237302+536883184
1678+539806346+546220610+553618943+559914829+565973660+572891897+578259797
1668+579359567+579015849+581749412+587961135+594196734+597787359+600400275
1658+605339997+614753441+629367054+645461754+652599194+650996046+651669200
1648+657090506+661479172+659607581+654921686+652852835+654949282+660932839
1638+669784106+677954186+679390570+673752888+668068494+666552447+668474097
1628+671201597+673302879+675351721+677171617+677238932+676445652+678079668
1618+682806696+686085216+683383302+677356902+672382331+669042224+665932327
1608+662337462+658902890+656683936+656266953+657531813+659794205+662298932
1598+664705922+666912528+668514560+668855154+667692197+665528137+663170760
1588+661107041+659375659+657881258+656621456+655870127+656532570+659815255
1578+665562130+670402738+670310431+667720982+668305622+673274465+678994711
1568+681807230+683050221+686083802+692645677+704142773+722725391+746396680
1558+761715060+762957382+762206945+766070774+773797317+783168883+792606203
1548+801834511+812045772+824045540+836607781+847654795+854157461+851474292
1538+842348929+835761765+834396266+834427432+831573185+827511724+827097121
1528+831599963+838428347+845443280+853416025+861989105+866950881+866196949
1518+862971538+860024909+858041596+857938355+860877917+867361914+877006387
1508+887082645+890423051+883474392+874362417+869562198+869435526+872455049
1498+875979772+876649132+874184199+872544009+874698027+879434799+882553398
1488+881236992+877198664+873762604+872551001+873123516+874216852+875534449
1478+878002581+882472545+888631718+893947104+894141761+888784423+883220750
1468+881374152+882697029+884440758+884824791+885123730+887845206+893647049
1458+899487644+899710269+894045214+888171890+885017885+884371211+884976380
1448+884997654+883330091+880999417+879813848+880502696+883203420+888224999
1438+894444941+897488638+894329872+888967476+886169388+885887556+885570095
1428+884302483+883405366+883794456+885201459+887459537+890478763+892658740
1418+891679654+888101153+884451023+881683803+879526065+878019391+877571018
1408+878309033+879611232+880100812+878992526+877450743+877189515+878418002
1398+879973694+880564136+879258143+876005136+872534637+870919663+870888943
1388+869660902+865300948+860185871+858498969+861380514+866662280+871921807
1378+876582337+881148627+885498986+888743067+890610641+891918345+893326687
1368+894890710+896923783+899894810+903125725+904878677+904453363+903081914
1358+902049869+901310367+900292826+899241590+899228945+900908780+903710588
1348+906411311+908215587+909241310+910485566+913271977+917864076+922408125
1338+924338478+923286945+921325054+920599238+921871164+924627153+927739132
1328+930294439+932086516+933208415+933593712+933492181+933786732+935130213
1318+937161427+939029745+940363408+941271013+941830214+942069872+942077608
1308+941813702+941302477+941117861+941877075+943238185+944271420+944636336
1298+944528855+943780575+941987234+939453870+937217585+935965519+935538568
1288+935538940+935539015+934577781+931738559+927672114+924256360+922400836
1278+921168109+919096506+915739513+912022811+909401305+908458963+908343300
1268+907758512+906248713+904315311+902600739+901136314+899330402+896833187
1258+894015833+891192083+888044846+884260383+880078423+876101609+873069739
1248+871425755+870636269+869561826+867856775+866308744+865742775+866262479
1238+867430197+868668353+869545164+870011388+870391553+871048120+872095339
1228+873487243+875192814+877017396+878560071+879807228+881337333+883455945
1218+885620302+887061744+887591788+887836875+888973576+891702341+895281883
1208+898324613+900480416+902493035+904977531+908012971+911430064+914767048
1198+917292230+918567057+919087952+920085261+922168914+924486274+925974130
1188+926875710+928059048+929804041+932287496+935987834+940576735+944613576
1178+947207040+948982530+950902023+953069132+955033031+956571838+957769755
1168+958646640+959131311+959405110+959977923+961197038+962882675+964779332
1158+967113800+970226449+973826149+977054461+979194123+980226466+980840412
1148+981761331+983096928+984477898+985674698+986941046+988727321+991036946
1138+993135921+994170198+994088230+993363009+992228168+991196346+991575469
1128+994303936+998546740+1002150530+1003875664+1004965132+1007477744+1011126238
1118+1013661462+1014547124+1015485746+1017060629+1018072442+1018476037
1110+1019869949+1022440430+1024233697+1024280558+1024170473+1025595179
1101+1028133899+1030456466+1032316825+1033891187+1034235202+1032188442
1093+1028527973+1025826431+1026111313+1029189895+1033061534+1036114082
1084+1038773152+1042592947+1048085436+1053918222+1057763084+1057871755
1075+1054477795+1049575301+1045278124+1042725867+1042303082+1043938957
1067+1046719938+1049076200+1050491459+1052190336+1055182487+1058760169
1058+1061526274+1063226192+1064334851+1064601955+1063352344+1061063100
1050+1059547722+1060055080+1061924290+1063185505+1062987948+1063105322
1041+1065818541+1070569892+1073741823+1072708588+1068382625+1063243300
1033+1059120995+1056748815+1056341130+1058052503+1061615681+1065430120
1024+1066530448+1063317756+1058841022+1058141314+1061664773+1064255932
1015+1062154650+1057857251+1055803350+1057226197+1060241703+1061940505
1007+1060326275+1056393792+1053641448+1053534859+1053890254+1052671437
998+1050361068+1047982567+1045449797+1042687412+1040665570+1040155832
990+1040222553+1039077224+1035945757+1031397096+1026949966+1024529067
981+1024932810+1026744598+1027744585+1027146706+1025621808+1023506617
973+1019783369+1013593998+1006160147+999858460+995381354+991259198+986353877
963+981557972+978197112+976162699+974414136+972151000+969610271+967817153
953+967004459+965979406+963681608+960812187+958931522+958354246+957770647
943+955756913+952324721+949089937+947955543+949243238+951046323+951049076
933+949120359+947062442+946020876+945590281+945178207+944966963+945273787
923+945664216+945440551+944827125+944668841+944735041+943962215+942770026
913+943032371+945247679+947454434+947527030+945539553+943224573+941986713
903+942028962+942666785+942966543+942434119+941361908+940399409+939743735
893+938993670+937549402+934973863+931627582+929003100+928448213+929497886
883+930173495+929009273+926493835+924595987+924926837+927247767+929786487
873+930957180+930510964+929148293+927760034+927166914+927689668+928513445
863+928144140+926305054+924508142+923871882+923890328+924228988+925670132
853+928108214+929762090+929682427+929060745+929074134+929457795+929829703
843+930819202+932931269+935172239+935968271+935194107+934092292+933532496
833+933375625+933199563+932957897+932592014+931632640+929975119+928671506
823+928972752+930562139+931721377+931649301+931543382+933027742+936486637
813+940853509+944152707+944744859+943234540+942409424+944002902+946166144
803+945601513+942020557+938215341+936093381+935154313+934440175+933999687
793+934267535+935321597+937317777+940622108+944609113+947341374+947610486
783+946321453+944919730+943902933+943640664+945000360+948014899+950910651
773+951271402+948115240+942670504+937064805+932788679+930576048+930659133
763+932418779+934683849+936942671+939560533+942525311+944679701+945084411
753+944468159+944359413+945155818+945674258+944838431+943309740+942546435
743+942694678+942592403+941732328+941077844+941616367+943035346+944354430
733+945211901+945496337+944623543+942651760+941212103+942083633+945319755
723+948789510+949247106+944971054+937860763+931783039+929287089+930746903
713+935309771+941431454+947089071+950343119+949829365+945658191+939921507
703+935283960+932912599+931764146+930009706+927067838+924203029+922719710
693+922070879+920858756+918562594+914779544+909159044+903886575+902661137
683+905458036+907867332+906865262+903598272+899855610+896456295+894360592
673+893013912+889158563+880777685+872389072+871813284+877510992+882772824
663+885112053+884246027+880113680+874057750+868576120+865236682+864160677
653+864830707+866303538+867116678+865606135+861621883+858037357+857847758
643+860085381+860965316+858918333+856358340+856129096+858222790+859692795
633+857545620+852487370+848308386+847098494+846276800+842465634+836716230
623+832629479+831764495+832532337+832717101+832429764+832968362+834157129
613+834890904+835701367+837126445+837195248+835317632+835583100+842045972
603+852515412+858508862+852811377
##END=
