##TITLE=<SNM>
##JCAMP-DX=4.24
##DATA TYPE=INFRARED SPECTRUM
##DATE=2/5/2025
##SAMPLING PROCEDURE=Instrument type and / or accessory
##ORIGIN=Admin
##XUNITS=1/CM
##YUNITS=ABSORBANCE
##RESOLUTION=4
##FIRSTX=4497.3318
##LASTX=599.83466
##DELTAX=-1.4281778
##MAXY=1.8548425
##MINY=0.40414596
##XFACTOR=1
##YFACTOR=1.7274567e-09
##NPOINTS=2730
##FIRSTY=0.42421538
##XYDATA=(X++(Y..Y))
4497+245572215+247637296+248869996+249026248+248878673+249195630+249932503
4487+250301681+249647929+248317410+247390211+247413139+247774157+247636071
4477+247101375+246977919+247691571+248848241+249780857+250264210+250593467
4467+250884286+250636166+249520211+248170318+247423317+247225297+247015046
4457+246799825+247148732+248157120+248943127+248597015+247429753+246589194
4447+246566870+246922195+247231370+247377737+247081208+246020874+244473029
4437+243370376+243479082+244460901+245065243+244559325+243549695+243110990
4427+243747180+245293696+247034851+247931634+247491015+246280105+245156369
4417+244541727+244554045+245099731+245751102+246052514+245996669+245906009
4407+245962544+246204437+246758869+247535836+247901771+247307538+246051738
4397+244904574+244317519+244265262+244377987+244176586+243622878+243200149
4387+243137697+243106142+242852501+242575639+242626550+243041654+243243176
4377+242521071+241064852+239810691+239149813+238771474+238659421+239070591
4367+239709783+239986645+239917688+239920518+239891621+239314053+238293262
4357+237698805+238084804+239131319+240198398+240782245+240600442+239903559
4347+239397882+239413616+239623902+239718823+239743442+239829271+240083292
4337+240417345+240351666+239641741+238970719+239090034+239516248+239071799
4327+237580610+236042444+235139812+234712908+234757608+235679131+237254683
4317+238511225+238984727+239037726+238821626+238070675+236976527+236265394
4307+236312216+236802936+237280285+237569534+237622361+237320017+236641352
4297+235789976+234994480+234515268+234907530+236618821+239050009+240681320
4287+240517218+239012745+237453031+236760651+236865716+237057974+236977890
4277+236968832+237240726+237398549+237213381+237150635+237716850+238773492
4267+239783553+240384480+240446001+239823526+238563378+237375758+237191678
4257+237987468+238760018+238858304+238538104+238227203+238131592+238425292
4247+239104405+239783829+240090555+240085724+240023858+239852941+239227965
4237+238079991+236975267+236650944+237222352+238078386+238647638+239033827
4227+239592900+240102390+239923865+239017834+238201377+238225133+238930918
4217+239420810+239103043+238463540+238375106+238781152+238819245+238149896
4207+237357040+237131123+237562427+238087840+238153243+237980222+238107698
4197+238347537+238133490+237603418+237321552+237347620+237333663+237103157
4187+236701993+236214275+235777124+235629514+236015479+236849447+237526490
4177+237524265+237162298+237212105+237921064+238930676+239901782+240644538
4167+240831465+240261541+239320092+238550560+237902259+237049106+236262599
4157+236178857+236776160+237362647+237557648+237585079+237572692+237250059
4147+236549139+235971797+236052485+236763359+237656140+238344466+238659093
4137+238541140+237993954+237082041+235965586+235031572+234810435+235429804
4127+236264427+236571912+236405274+236451855+237119426+238126641+238811826
4117+238706623+238037257+237553369+237620601+237788136+237459673+236622289
4107+235741912+235241962+235225176+235575722+236192883+236969177+237588046
4097+237650982+237084370+236223661+235502073+235142659+235039077+234915000
4087+234701763+234702229+235286317+236408397+237455636+237721146+237164023
4077+236546828+236622116+237328608+237980791+238056562+237517209+236549726
4067+235434720+234560986+234146417+234018061+233954314+234012213+234265560
4057+234591712+234869333+235015045+234907909+234637327+234551946+234783124
4047+235110794+235422437+235874736+236506078+236988413+236909019+236191951
4037+235171505+234347404+234156285+234789266+235977455+237040584+237393476
4027+237084629+236823224+237332093+238481724+239310034+239201500+238603386
4017+238202688+238009895+237713210+237301108+236920319+236625860+236514376
4007+236695248+236965934+236941229+236661123+236659622+237213692+237861389
3997+237948184+237437469+236878949+236672492+236713932+236786270+237011687
3987+237759411+239158405+240729729+241549586+241008783+239499773+238116962
3977+237623965+237941594+238553769+239045265+239251704+239272079+239447775
3967+240055378+240940292+241638469+241901063+241974833+242247158+242687571
3957+242845169+242385365+241466948+240660100+240564592+241202386+241743310
3947+241496466+241139468+241902737+243673375+245021251+245135149+244540175
3937+243997353+244016400+245028824+246819355+248061871+247635139+246207939
3927+245320972+245440115+245783985+245858221+246376354+248152048+250577526
3917+251739751+250405988+247546774+245092416+243910299+243764381+244680849
3907+247413984+252252364+257839486+261846071+262989508+261422548+257821837
3897+253566718+250667203+250468768+252503986+254440607+254451062+254019759
3887+255475908+258133100+259412484+259164605+258916399+257963977+255332370
3878+253205837+254054660+257410856+261396118+264940518+266829609+265801261
3868+263570594+263008157+263744979+262953830+259856381+256789003+256077542
3858+258767012+265124857+273392909+277219779+272300383+264192172+258377356
3848+256017487+256721892+259757475+264019064+268406507+272299262+274818333
3838+274473980+271387555+267939284+265823292+264760733+263988959+263633427
3828+264088072+265424820+268132767+272695492+277353690+278662730+276786232
3818+274648002+272131054+267797903+263142690+260746247+261579232+265161863
3808+269616365+272780338+275227329+278779493+281969706+281677352+279189300
3798+277635900+276705665+275032691+273557133+273988798+276395782+279760346
3788+283510978+287571113+291765229+296338391+302279545+309710731+316790663
3778+322117330+327102956+334030104+343755341+355721942+368197136+378897740
3768+386991304+392836950+396283962+398062381+400289529+403431350+405243894
3758+404613535+404195137+407348758+414950154+424349533+430555541+432602266
3748+435487030+443021005+453600878+461077886+463942155+467603473+476400442
3738+490833374+507330524+519966369+526369915+530259271+536104848+544658596
3728+553507700+560010100+564549103+570073652+577125498+582478216+584091498
3718+583621480+583459517+584983019+588466502+591710663+590912441+586035883
3708+581004400+578488038+578109595+577761101+576145577+574358083+573717925
3698+573865431+574404456+576079052+579724360+585243112+591289366+595110645
3688+594699630+591603907+589175151+589849985+593876910+599188223+603614017
3678+606404102+606128620+601743333+597436648+597443755+599508146+597947518
3668+591759866+584745423+579599386+576889558+576187706+577096653+579579028
3658+582366905+582626308+580417206+580039177+583898205+589100069+590094621
3648+584810291+576625083+569730162+565970300+564845668+564452940+563723520
3638+563786179+565819206+568857066+571696112+575474745+580897437+583603883
3628+578898949+571348516+567933214+569736856+573969392+577436037+578571227
3618+578604973+579807792+582049672+583325710+583308250+583736172+584942580
3608+585217234+584391892+584922430+588625221+594194971+598117693+598419812
3598+596908111+596525459+597893898+599646301+601427964+604588763+609425089
3588+613087235+612372928+608399070+604626718+602640790+602076093+602616430
3578+604576686+607236207+608411009+607420943+606916076+609662341+614595486
3568+617319323+615102837+610054102+605534387+602641273+600963882+600341908
3558+601096654+603076717+605134276+605595322+603688408+601018260+600294637
3548+602005428+603632304+602731812+599611728+596111545+593525864+592364105
3538+592564644+593485149+594363973+594924667+595375776+595727720+595296209
3528+593594596+591501636+590368032+590307857+590365617+589753166+588328278
3518+586531709+585162924+584887511+585586085+586122488+585170860+582624100
3508+579868588+578394600+578726497+580565713+582859902+583832853+582218467
3498+578508844+574284761+570825190+568844472+568641794+569629375+570304382
3488+569752038+568815799+568744961+569199141+568621850+566571158+564654238
3478+564545170+565958396+567201999+567096968+565651377+563448175+561244353
3468+559495814+557820183+555716492+553733048+552924578+553387626+554181776
3458+554421512+553780871+552375684+550645950+549395826+549531048+550908390
3448+551585536+549735417+546252866+543709659+543282186+543820038+543433383
3438+541482443+539027705+537706709+538262676+539740770+540045339+538011140
3428+534871630+532846160+532703071+533486387+533981316+533584897+532351990
3418+530994385+530271210+530092201+529815891+529378480+529373960+529918886
3408+530183155+529393110+527856014+526444582+525511172+524954653+524699597
3398+524526800+523963759+522827395+521373799+519708898+517706650+515544784
3388+513725063+512551193+512072101+512438226+513694182+515323198+516494894
3378+516747258+516266648+515636945+515448138+515859463+516385792+516310158
3368+515419430+514370397+514298455+515626559+517253091+517650442+516628322
3358+515165858+513925188+512917008+512219780+512009649+511993811+511720917
3348+511411068+511603154+511999711+511713084+510794546+510347026+510950471
3338+512070480+512972594+513334440+513105470+512443091+511635795+510743342
3328+509626369+508431521+507603729+507383902+507643616+508042968+508115772
3318+507479789+506140713+504501277+503047853+502125312+501859629+502038982
3308+502162473+501811185+501038462+500385020+500277677+500504301+500730477
3298+501208706+502173825+502932540+502660025+501809874+501483153+501746214
3288+501910419+502154606+503356080+505400700+506981755+507186089+506390041
3278+505430132+504603858+503748980+502865808+502335064+502527839+503232589
3268+503765576+503653714+502975325+502141667+501510894+501265051+501330472
3258+501335578+500888886+499855759+498374835+496891151+496121913+496467577
3248+497359098+497597247+496463022+494420507+492735491+492279827+492623352
3238+492587260+491799597+490978775+490630626+490556166+490570313+490656401
3228+490581492+490177723+489763983+489635937+489284373+487703180+484712694
3218+481616971+480042610+480197258+480798426+480861569+480728175+480939272
3208+481147506+480717789+479660613+478413939+477147494+475799377+474623368
3198+474096453+474075337+473663252+472374310+470820790+469760542+469161134
3188+468652092+468099472+467376159+466337028+465165987+464245206+463762698
3178+463580343+463256452+462399020+461203516+460191816+459422164+458547653
3168+457408391+455992370+454316739+452783507+451954127+451726537+451379321
3158+450461576+449171944+448028438+447463189+447459773+447443590+446824687
3148+445665378+444500031+443623104+442997404+442720093+442931639+443229065
3138+442850243+441582142+440006021+438845711+438297887+437889805+437038377
3128+435776073+434658686+433964288+433368295+432482398+431365322+430400824
3118+429919627+429952337+430154567+430000885+429270878+428376803+427911271
3108+427825770+427534588+426895569+426441458+426499287+426705899+426495423
3098+425584510+424047621+422329170+421049130+420484882+420358699+420288759
3088+420226755+420208261+419981568+419361181+418691832+418362075+418098152
3078+417376288+416286539+415393845+414933282+414613461+414144376+413671184
3068+413559770+413791362+413820829+413192058+411990067+410515699+408919462
3058+407354935+406161121+405635276+405708391+405987979+406152150+406196833
3048+406168471+405842888+405021238+404011643+403356372+403131956+402950291
3038+402605973+402270385+402049592+401795951+401311062+400378446+398837106
3028+397017212+395718644+395345583+395407967+395133451+394226920+392951090
3018+391841743+391310239+391260898+391196272+390718801+389722318+388348116
3008+387096128+386579703+386787591+386965254+386514904+385657438+385005273
2998+384788241+384672824+384236690+383485911+382792306+382375874+382079345
2988+381679613+381145797+380470203+379524061+378342255+377384831+377144957
2978+377459394+377522917+376777866+375579774+374746254+374597851+374668206
2968+374288831+373275889+372064927+371289961+371161708+371235341+370974695
2958+370459029+370150802+370081138+369798582+369072613+368136166+367292261
2948+366694819+366393528+366254062+365932792+365184326+364186427+363397660
2938+363048925+362894311+362556790+361957451+361225753+360458965+359826157
2928+359530972+359406654+358948713+357916621+356550528+355247991+354362508
2918+354074984+354179808+354288738+354315962+354392147+354424788+354182568
2908+353667385+353074360+352553621+352189567+352001967+351863881+351604685
2898+351226966+350854044+350485745+349975703+349246662+348415316+347734685
2888+347444987+347548189+347714638+347599463+347215706+346765253+346237648
2878+345524479+344805168+344400640+344292814+344143376+343753685+343211864
2868+342651411+342150099+341805712+341661518+341590405+341393247+340941345
2858+340204955+339342279+338729000+338581942+338594261+338287863+337650672
2848+337057682+336700838+336469729+336230373+335896751+335413346+334915415
2838+334667674+334646592+334468757+333898401+333141964+332531652+332175671
2828+331961883+331667976+331102485+330338077+329714516+329473814+329517566
2818+329575533+329444244+329061281+328536057+328059622+327646226+327114653
2808+326425154+325785687+325314048+324889507+324437225+324073550+323876599
2798+323750314+323591042+323384706+323068889+322507470+321734781+321024200
2788+320548317+320192543+319858921+319682087+319752545+319844878+319588994
2778+318827382+317771551+316834415+316245634+315867812+315483917+315132353
2768+314976290+314963386+314837411+314476772+314024662+313584905+312992639
2758+312084832+311001122+309998289+309179054+308581751+308290190+308283461
2748+308369446+308374035+308272696+308091652+307763240+307140611+306167901
2738+304994134+303884856+303053993+302577834+302402069+302397411+302398032
2728+302215367+301747558+301108884+300514478+300032316+299581759+299134721
2718+298782950+298623333+298603563+298481521+298037002+297346813+296715937
2708+296340013+296146824+295944007+295660624+295433758+295374445+295285838
2698+294834384+294001520+293112000+292437510+292029359+291872020+291908284
2688+291947377+291791763+291435541+290998475+290566757+290227270+290078349
2678+290057647+289942196+289625481+289198853+288723246+288154719+287529605
2668+287041766+286899988+287148695+287588728+287871421+287725848+287115070
2658+286230467+285385509+284833717+284614908+284600727+284635938+284580973
2648+284348725+283991243+283645113+283361419+283093442+282823756+282586315
2638+282390055+282214773+282055208+281900025+281710355+281481661+281263490
2628+281052341+280771804+280435491+280171464+279995613+279745129+279331147
2618+278886525+278613303+278630503+278942198+279396170+279716870+279693287
2608+279316535+278733602+278138835+277698474+277500661+277526522+277649581
2598+277693195+277558404+277284854+276957080+276638658+276421005+276385189
2588+276467051+276498070+276409291+276287180+276229937+276223675+276156995
2578+275958113+275727935+275655044+275769668+275911359+275967653+275982542
2568+276012077+276041682+276049463+276013509+275902319+275759247+275714875
2558+275846440+276111346+276420315+276669867+276737616+276560316+276202800
2548+275807484+275484145+275222430+274914703+274537071+274248857+274185593
2538+274241180+274205123+274016764+273750598+273458778+273132644+272748697
2528+272324519+271965174+271781508+271723627+271624548+271446954+271318978
2518+271284284+271206856+270991584+270743757+270648301+270792719+271118180
2508+271451647+271601551+271494346+271204303+270852342+270551154+270411705
2498+270466861+270584123+270567630+270356412+270056225+269815368+269735905
2488+269834069+269993065+270003744+269734007+269248601+268736920+268347384
2478+268108062+267975790+267916408+267912474+267925483+267906471+267835944
2468+267741402+267695529+267752478+267821055+267680675+267207880+266515189
2458+265839613+265386468+265243258+265333746+265489256+265593304+265601033
2448+265501281+265356501+265260786+265201008+265093406+264939103+264794409
2438+264651579+264469051+264252951+264057501+263950538+263945086+263928645
2428+263755261+263452814+263232297+263244080+263415135+263578202+263679593
2418+263774359+263870505+263903630+263874473+263890173+264001622+264084656
2408+263983300+263724311+263483851+263384910+263434992+263613069+263912411
2398+264333743+264904857+265730372+267087201+269495910+273625589+280119139
2388+289542843+302382505+318929894+339165755+362800494+389426823+418611817
2378+449737607+481613348+512416144+540516495+565351190+586906356+604805450
2368+618949167+630210949+639119056+644590537+645000448+639945088+630506995
2358+617941642+602354059+582553228+557831811+531434038+510234059+499656807
2348+501248800+513256737+530499904+545747447+554995594+559345099+561278719
2338+562143776+562179108+561654436+561546438+562507589+563767582+563857845
2328+561974808+558200179+552974402+546579621+538909493+529875480+519879798
2318+509662495+500015445+491547681+484046106+476134552+466351209+454587908
2308+441878223+429145386+416783401+405031796+394109847+384067515+374784830
2298+366059147+357642760+349356765+341240221+333505156+326316293+319676601
2288+313543121+307965263+303021249+298683129+294879550+291636459+288986324
2278+286775152+284742643+282782558+280974707+279385095+277974146+276685635
2268+275518114+274503637+273657937+272935486+272229650+271455839+270614936
2258+269745307+268889912+268152866+267642530+267270850+266774644+266056196
2248+265337990+264865005+264617005+264412964+264148092+263832792+263507710
2238+263216701+263019492+262946895+262928228+262839897+262671361+262549509
2228+262533672+262498857+262306858+261990885+261690128+261476599+261314256
2218+261148291+260981600+260855384+260781614+260731513+260689815+260671649
2208+260676048+260677531+260676979+260694542+260694939+260609800+260455807
2198+260325605+260257269+260226664+260235980+260289100+260340718+260368114
2188+260410244+260480995+260528145+260487723+260341581+260173493+260142129
2178+260288289+260432931+260375171+260102362+259752955+259499124+259456822
2168+259572860+259660483+259655394+259704959+259898356+260085645+260097635
2158+259968503+259797724+259568547+259254799+258950920+258761958+258696762
2148+258727833+258821357+258911516+258979507+259105551+259339266+259615145
2138+259874306+260173234+260615907+261244023+262034188+262972480+264065403
2128+265250055+266397978+267486140+268657939+270041699+271614231+273263035
2118+274863792+276310850+277566184+278633695+279435247+279824041+279774458
2108+279417684+278834182+277970022+276826706+275557898+274300268+273061893
2098+271819480+270596476+269453470+268492095+267791830+267285031+266800436
2088+266251370+265692676+265226437+264919729+264759853+264671229+264618144
2078+264649388+264801155+265011355+265163001+265188155+265135536+265145473
2068+265321238+265594908+265751523+265647389+265401391+265291064+265463395
2058+265815391+266137764+266308457+266365423+266431051+266569982+266749887
2048+266939333+267166526+267472683+267851747+268208400+268396794+268382699
2038+268311568+268341828+268507449+268771320+269087690+269402921+269683544
2028+269923953+270123215+270311609+270554881+270890383+271315407+271793671
2018+272175495+272243779+271989707+271701889+271665505+271905637+272264947
2008+272605229+272884299+273099675+273230860+273280080+273313739+273368705
1998+273427293+273627211+274270784+275347939+276269859+276439534+275925006
1988+275240717+274745391+274523528+274551149+274741871+274966253+275143898
1978+275296769+275511386+275826220+276148007+276388881+276684048+277240084
1968+277918214+278267605+278117753+277816547+277724611+277835784+278033217
1958+278354555+278803249+279190922+279368584+279444200+279669237+280210575
1948+281091348+282307935+283809060+285161387+285557875+284719300+283439554
1938+282666313+282562783+282757853+282991326+283246641+283532836+283770002
1928+283969505+284469886+285577180+286924106+287875683+288547136+289346928
1918+289781268+289105243+287843663+287204385+287545252+288304140+288822377
1908+288843648+288551294+288320684+288353394+288584228+288901305+289319963
1898+289913764+290574831+291012484+291278374+291919739+293057207+293843801
1888+293581707+292754708+292180246+292039262+292145397+292375334+292652541
1878+292948001+293296908+293770997+294733942+296888286+300374495+303723790
1868+304646814+302730343+299922523+298028066+297413338+297627885+298157836
1858+298664773+299060020+299449055+299927526+300596046+301656673+303296593
1848+305687981+308860856+311829569+312515031+310394847+307679740+306336316
1838+306378446+306847186+307336146+308536378+311208941+314618377+316719964
1828+316800704+316198777+315664513+314638735+313119477+312067062+311988461
1818+312472487+313002335+313689591+315036776+317007419+318632156+318991346
1808+318380931+317950835+318642232+320696168+323492808+325725477+326444235
1798+326166441+326488884+328665068+332353748+335087315+334424729+331491210
1788+329402080+329515116+331056870+332899330+334703041+336273710+337169303
1778+337680001+339167273+342812546+348122030+352411429+353145715+350981779
1768+348041290+345759660+345333739+347289683+350228309+351939031+352368851
1758+352917503+353743501+354675669+356955194+361680968+367416097+370908792
1748+370978008+369504088+368584135+369104701+370967139+373236382+374771373
1738+376066905+379211039+384624104+388524088+387247671+383305247+380094900
1728+378217143+377549416+378041999+379271973+381335743+385547231+392736991
1718+400600723+403968133+401191919+396199012+392508366+391263865+392653560
1708+396385025+401094030+405016131+408558271+413880694+420736038+425069189
1698+425011429+422707233+418907864+414431727+411964430+412779835+415939495
1688+420790313+428247861+437645100+443029044+440349063+434822030+431861321
1678+432836274+436715624+440948471+443729895+446214859+449605594+451880219
1668+450809862+448840047+449652244+453337956+456780241+457721345+457794701
1658+460191575+467099607+479146810+492551307+497599317+494903429+494686259
1648+499207665+503384235+502376883+498921107+497889257+500822534+507598104
1638+517737324+528895800+535572757+535632415+534657186+537554717+544810691
1628+554434554+564609900+575186013+586070249+595860837+604212183+613370722
1618+625106455+637279840+645818268+651339159+657131806+663817079+669936619
1608+674614985+678400794+682105173+685714804+688585698+690606268+692598131
1598+695269797+698467170+701567932+704165207+706476096+709099525+712158467
1588+715078426+717457634+719553217+721776672+724420804+728024293+733365555
1578+740437896+746964104+749901453+750913326+754438282+761640567+769971280
1568+776845360+783245627+791401196+802153004+816395334+836161661+859688333
1558+873975657+873266180+869292184+868559935+870353260+872166874+872206002
1548+870967229+870789946+873310967+878501859+885035313+888081626+880664380
1538+866880128+857035989+853040877+851009472+847543932+843565658+841573174
1528+841871981+843624108+846930239+851883259+855985955+855753189+852165021
1518+848793056+846065700+842907661+840338335+840620925+844875785+852523796
1508+860687577+862885982+855903421+846779593+841332472+840066855+841784823
1498+844118830+843784277+840388435+837839673+839268978+843633631+846449318
1488+844272720+838923384+834515255+832896107+833093403+833365228+833399663
1478+834256128+836686816+840194797+842844449+842054785+837744855+833295115
1468+831510554+832359980+833662723+833703646+834036060+837395534+843802219
1458+849123055+847847294+841422390+835846637+832934131+831634838+830666234
1448+829043912+826727571+824914578+824535721+825130989+826158112+828340715
1438+832023977+834591165+832812124+828216292+824535997+823113248+823131880
1428+823509978+823869306+824085095+824135679+824628469+826107184+827374388
1418+826245753+823088750+820326683+818961486+818393339+817954652+817540669
1408+817183205+816548257+815189962+813581028+813214730+814982660+818174720
1398+821403078+823809475+824642409+823161416+820468219+819118619+819888478
1388+820588225+818857836+815905443+815091763+817697526+822238634+826665946
1378+830372120+833944692+837249167+839031313+839216325+839741549+841835682
1368+844603408+847003043+849442288+852379775+854843312+855561139+854712126
1358+853384471+852180272+851206561+850750690+851133826+852012098+852581901
1348+852615785+852721575+853442576+854574730+855576389+856341073+857184013
1338+858225835+859239640+859994248+860434592+860719873+861230191+862281053
1328+863849825+865801456+868205714+871119324+874270668+877338651+880491997
1318+884257655+888496437+892075082+894333525+896144793+898551190+901381852
1308+904113417+906811031+909514234+911843893+913571522+914789937+915603065
1298+916182461+916918575+918273420+920489147+923219125+925396345+925785553
1288+923972215+920866003+918048797+916430202+915597268+914491130+912549092
1278+910256283+908864863+909363726+911402860+913574283+914838865+915171210
1268+915001518+914811192+915215444+916643438+918869861+921362864+923922667
1258+926632219+929284218+931239713+932155595+932482488+932761352+932996671
1248+933237373+933908964+935015999+935994057+936706433+937500445+938123385
1238+937763782+936369878+934883296+933912069+933096181+931908475+930231291
1228+928117766+925946895+924759534+925373917+927074633+928112591+927855051
1218+927633533+928852086+930889840+931750722+930782325+929685227+930213211
1208+931974930+933315974+933693036+934143800+935747007+938475605+941390457
1198+943808241+946102568+949080149+952719660+955983627+957975490+958877156
1188+959621413+961060241+963445246+966002289+967068609+965935419+964552902
1178+965729291+969568099+973221342+974578534+974856155+976455014+979642933
1168+982662886+984239662+984688770+984830030+985343385+986837834+989294332
1158+992018099+994553956+996809846+998273448+998436378+998091059+998836903
1148+1000826213+1002426935+1002684751+1002765491+1004506301+1008068729
1140+1011588856+1013162113+1012499010+1010672077+1009112415+1008649367
1131+1009291009+1010692366+1012832597+1015973452+1019344382+1021104031
1123+1020591643+1019383855+1019595642+1021630359+1024009291+1025107907
1114+1024226392+1022254335+1021985891+1025773771+1032417914+1037988423
1105+1040066339+1039384604+1037659528+1036399708+1036666564+1038113052
1097+1039259905+1039477489+1040028730+1042517109+1046619184+1050102253
1088+1051666884+1052578556+1054321781+1056621629+1058843567+1061194136
1080+1064200562+1067754158+1070321621+1070624224+1069888247+1069411122
1071+1069267101+1069056556+1068231283+1066502895+1063750420+1060506397
1063+1058682086+1060805273+1067372265+1073686685+1073727745+1068551621
1054+1063793688+1061891122+1061418759+1061399712+1062623924+1065018452
1045+1066840761+1067434786+1068197331+1069758166+1070258685+1067935305
1037+1064508272+1063948888+1067239699+1070473992+1069806127+1066919775
1028+1066843107+1070709380+1073741823+1071872105+1067561555+1065491091
1020+1065880231+1065909697+1065303595+1066198291+1068481025+1068909775
1011+1065270885+1059914096+1056975643+1057416332+1059068534+1060167772
1003+1061086137+1062160256+1062113468+1060261416+1057777591+1055885308
994+1055119934+1056132842+1059562360+1064817637+1069666316+1072056151
985+1072334739+1072099281+1071019229+1067145226+1060511020+1053919461
977+1049894537+1048737816+1048814346+1047499734+1043299390+1037750481
968+1033820996+1032883584+1033817684+1034117871+1032224000+1029409969
960+1028277815+1028851621+1028029108+1024128607+1019934336+1019020939
951+1021085192+1022722696+1021620353+1018130453+1013648968+1009243738
943+1004886331+999543965+993454443+989326766+989184608+991355410+992580450
933+992074824+991633790+992710462+994630832+995064758+992361486+987764481
923+984269819+983478912+984779447+987055418+989921067+993238722+996374540
913+998255230+997999691+995651261+992272603+989177086+987191089+986791736
903+988087648+989717699+988971786+984840520+979736647+976299124+974103962
893+971269298+967797753+965160384+963785941+963125805+963569599+966174741
883+970463554+974161791+975665349+975497383+974650579+972985057+970015205
873+966592381+964418749+963888626+963584022+962422815+961204952+961122763
863+961992685+962649715+962415155+961993513+963139745+966458642+969499228
853+968975177+964939833+960448066+957790547+957139244+957949750+959690973
843+961293697+961564832+960719960+960358976+961319092+962889796+964864131
833+968224571+972434369+974563835+973161374+970617236+970029421+972211954
823+976067738+979786126+981291065+979383668+975511322+973036123+973596818
813+975132051+974639537+972161233+970199734+970260945+970985120+969712810
803+966113047+962641572+961431162+962311987+964483548+968096146+972643672
793+976153171+977646171+977990869+977444942+975343010+972248460+969807558
783+968822116+969091940+970570655+973428851+977473788+982033045+985589262
773+985871231+982068998+976483722+972680177+972874022+976449356+980117643
763+981298034+980929115+981105294+981523347+980227781+976938971+973573838
753+972475705+974879894+979758385+984073696+985067144+982160227+976674392
743+971207535+968702248+969832884+971702671+971453964+970336716+971672722
733+976119288+980448194+981121787+978672742+976900533+978332944+982335647
723+986946523+990838812+992909483+992076756+989128573+986413362+984928781
713+984289210+985235663+988714798+993170680+995777892+994489157+988216487
703+978769147+971529253+971151845+976764035+983444062+987296258+986256161
693+979373938+968465549+957320668+948576732+943218149+941518123+942856613
683+945743793+948915081+951586954+952667352+951715172+950184148+950002449
673+950491029+948608062+943271907+937937131+935853073+934326742+930793159
663+926931923+925316088+924935851+923011616+920758901+921826740+925530291
653+927103755+925722203+926523600+932388361+938974882+940388246+936402450
643+930923102+926370263+921776708+916694090+913113237+912347725+913084460
633+913968046+915222621+915918020+912697391+904622631+895756412+890687458
623+890791730+895185781+902244183+908608151+911630312+910955477+904188844
613+892034022+882098378+880815233+886164845+890656197+890897175+890297284
603+892376304+895980621+896900850
##END=
