##TITLE=<SNM>
##JCAMP-DX=4.24
##DATA TYPE=INFRARED SPECTRUM
##DATE=3/5/2025
##SAMPLING PROCEDURE=Instrument type and / or accessory
##ORIGIN=Admin
##XUNITS=1/CM
##YUNITS=ABSORBANCE
##RESOLUTION=4
##FIRSTX=4497.3318
##LASTX=599.83466
##DELTAX=-1.4281778
##MAXY=1.7595497
##MINY=0.19438472
##XFACTOR=1
##YFACTOR=1.6387084e-09
##NPOINTS=2730
##FIRSTY=0.21393113
##XYDATA=(X++(Y..Y))
4497+130548626+131024156+131755680+132159074+132065996+131616881+130850412
4487+129862495+129115086+129099373+129830114+130915719+131938181+132655064
4477+132989032+132925797+132544527+132174569+132172959+132425824+132438427
4467+131906900+130916829+129856203+129325422+129593227+130069994+130011706
4457+129657634+129818175+130465004+130691653+130131619+129469568+129325240
4447+129467122+129455482+129284302+128984416+128372542+127616712+127321218
4437+127726522+128400594+128814064+128750784+128274489+127766177+127765504
4427+128370086+128969285+128803325+127669134+126014211+124553974+123870872
4417+124133848+124954995+125612399+125676097+125441555+125553511+126191784
4407+126862092+127042783+126707534+126082128+125355988+124809339+124682770
4397+124787652+124795545+124863426+125326353+125968627+126278824+126162894
4387+125822562+125229337+124222134+122926421+121764178+121090988+120860783
4377+120748582+120686202+120941077+121506531+121958346+122102792+122138374
4367+122077949+121727569+121246746+121017560+120997309+120807634+120405340
4357+120213582+120590696+121375270+121985771+122017188+121689759+121532464
4347+121781810+122321794+122914891+123237728+123101229+122745948+122431285
4337+121904487+120891119+119773342+119146909+119056658+119200750+119535626
4327+120193467+120968984+121247864+120616266+119468109+118684163+118620692
4317+118845486+118998471+119266867+119808642+120386608+120800150+121160642
4307+121604537+122059899+122296578+122110258+121623260+121312617+121443151
4297+121674637+121603592+121424919+121621487+122219858+122782830+123022264
4287+123033448+122967768+122782757+122349583+121641338+120816727+120217283
4277+120180710+120750173+121682257+122721851+123631774+124062193+123833762
4267+123294597+122939379+122758223+122375380+121706063+121117731+121007085
4257+121424591+122120097+122857176+123544816+124087654+124426268+124742377
4247+125219380+125620292+125605934+125363290+125347340+125560595+125660166
4237+125561832+125411993+125203367+124898144+124708059+124840174+125169722
4227+125516684+125949367+126419942+126535799+126211698+126064560+126588212
4217+127363847+127614084+127170907+126512202+126134933+126152856+126334948
4207+126442493+126539927+126802867+127051049+126870730+126304394+125989314
4197+126357544+127044393+127434120+127453543+127421326+127462918+127497218
4187+127550631+127748955+128132098+128598308+128965220+129140211+129232871
4177+129352365+129416118+129347937+129292923+129481844+129983608+130620653
4167+131117771+131393023+131587400+131700584+131460286+130769518+130002240
4157+129569120+129416018+129232871+129024281+129142884+129722132+130406007
4147+130790606+130844874+130756997+130671475+130654689+130629292+130445317
4137+130285758+130638421+131516246+132173769+131998378+131249105+130557955
4127+130128291+129739682+129257723+128872469+128873161+129309463+129965813
4117+130623863+131178141+131525348+131583872+131395797+131040342+130582853
4107+130220660+130222879+130631338+131235001+131796227+132120837+132094157
4097+131804974+131459968+131180887+131068395+131250396+131633058+131894997
4087+131902035+131821160+131770747+131697674+131597185+131532850+131444746
4077+131218779+130968788+130988547+131343520+131720680+131795190+131567623
4067+131213514+130809447+130349456+129845609+129348428+129016315+129048624
4057+129357275+129527601+129352720+129131899+129206018+129498475+129756459
4047+129979607+130313911+130680141+130800126+130577297+130231790+130020945
4037+129973287+129969186+130010442+130296088+130970815+131842384+132468117
4027+132568624+132278041+132029805+132273430+133096550+133966718+134122349
4017+133434209+132532597+131953885+131662283+131500887+131568896+131938263
4007+132394452+132698403+132906411+133245734+133731949+134094760+134150938
3997+134061697+134012184+133802367+133125476+132173559+131571442+131747059
3987+132611399+133696285+134382825+134246553+133468918+132774022+132819125
3977+133704551+134979095+135970685+136233998+135837206+135216793+134798613
3967+134820082+135350409+136251557+137160581+137702847+137756897+137440943
3957+136947672+136544996+136590962+137360004+138829944+140503936+141471702
3947+141214254+140439310+140335429+141010657+141406676+140829865+139804621
3937+139326444+140026532+141862238+143953719+144871499+143968923+142440613
3927+142086268+143195270+144340799+144466022+144370398+145234292+146685581
3917+147113545+145562912+142853510+140657139+139908938+140458152+142117294
3907+145405017+150624762+156524789+160779223+162086758+160608561+156869641
3897+152073396+148446523+147815307+149885882+151887276+151486064+150459892
3887+151859932+155237533+157729625+158978963+160392251+160560349+157732844
3878+154676553+155024696+158592155+163028999+167008526+169453806+168824190
3868+166296871+164865723+164774427+163647139+160586847+157642675+157183230
3858+160522739+168265848+178813528+184582276+178890056+167949821+159410164
3848+155445677+155702888+158941698+163642010+168812806+174088919+178360521
3838+179470387+177125223+173784750+171054652+168493724+165914555+164363449
3828+164313818+165240564+167756954+173334362+180207012+182983613+180847248
3818+178235180+175942593+171511496+165887294+162691058+163754948+168345832
3808+173576151+176760857+179255441+183786782+188639005+189305703+186413308
3798+183898429+182191446+180048007+178187804+178068246+179832134+183012729
3788+187555364+193163817+198762122+203968581+210076671+217978729+226299840
3778+233474548+240491489+249318420+260674125+273790880+286119653+294427614
3768+298368604+300292569+301854187+304007884+307977917+314053981+321023437
3758+328169701+336899716+349407862+366725783+386742831+403261421+413140712
3748+421893715+434853503+449933034+459781735+464029949+469469086+479510564
3738+493563832+509808170+525268671+535817115+540626745+544070863+550259900
3728+558996681+566842616+570830145+570955741+568250030+563099221+556609961
3718+550941420+548003141+548630684+551663314+553286893+550299656+544320745
3708+538803951+535759027+536187209+539491000+542948357+544548767+545484315
3698+547679968+551523242+556933062+564604152+574850082+584815941+588454399
3688+583754033+576340973+571506027+570535851+572745144+577210286+583798881
3678+591942528+597479581+595850218+591706213+591665257+592825736+587932338
3668+577886495+569490784+565517113+564160402+562891023+561902006+563360052
3658+567075802+569467214+569487910+571545273+579048793+589154324+593900847
3648+589580978+581024680+573297576+568179758+565422761+563935836+563376747
3638+564496088+567356311+570859789+575092872+581982343+591256352+596746120
3628+592894590+584733083+579858309+580858856+587249873+596519153+604243529
3618+608069999+610535830+613905928+616900658+618359868+619718761+621763866
3608+623025643+622765213+622156985+622431819+623887173+626218969+629113092
3598+632389784+635460243+637255175+637851618+639455447+643952888+649597532
3588+651479614+647769646+642782843+640736865+641921823+644017996+644451852
3578+642447339+639127945+635738205+633017581+632367815+635606535+642361790
3568+648495214+649542682+646499140+643435956+641770584+640314139+637950989
3558+635100514+633181187+632879583+633037587+631992956+630261676+630316527
3548+633176386+636618357+637382698+634611371+630396620+627583173+627354533
3538+628243997+627546873+624371879+620696684+618776847+618535404+618010906
3528+616319855+615216591+616307779+617928412+617111694+614053821+611690380
3518+611362732+611764799+611781894+611980854+612838164+613521757+613276749
3508+612724390+612814304+613031741+611498694+607453623+602927484+600404329
3498+600002881+600296229+600457142+600203769+599278623+598471034+599282478
3488+601569318+603355047+603394985+601893183+599103014+595606920+592976429
3478+592366127+593176043+593853526+593578983+592718181+591929943+591462223
3468+591385985+591948020+593187283+594461245+594694286+593051466+589701300
3458+585912076+583094882+581756431+581530955+581972523+582905125+584047599
3448+584625674+583879847+581896903+579159548+575819130+572412513+570438081
3438+570814359+572422152+573277244+572497735+570592302+568735027+567907506
3428+567999857+568164226+568369697+569406653+571141279+572097051+571202604
3418+569157608+567575021+567280982+567750375+567973159+567318446+565652893
3408+563506744+561786449+560481352+558473274+555558601+553367568+553292931
3398+554663609+555640150+555139149+553498183+551876314+551214763+551496981
3388+551868385+551397355+549844958+547981572+547036749+547517344+548761772
3378+549735621+549769120+548592492+546534075+544756711+544404002+545529199
3368+547266917+548638795+549011363+548346538+547376035+547020526+547321621
3358+547491301+547142630+546785266+546817929+546761733+546146048+545345516
3348+544691421+543852880+543037471+543302266+544540255+544881397+543344822
3338+541269891+540055945+539447934+538858729+538639873+539255412+540320121
3328+540953883+540675703+539975960+539914308+540851130+541704293+540929113
3318+538348962+535466989+534028912+534519364+535848104+536640780+536781070
3308+537053904+537698178+538417562+539316410+540562765+541382829+540737755
3298+538901576+537077255+535716543+534435925+533343755+533045824+533434287
3288+533813766+534025638+534299272+534401916+534168620+534301090+535447675
3278+537028734+537934347+537883898+537490706+537479795+538097407+538897248
3268+539003748+538010294+536470700+535022293+533528893+531829476+530684092
3258+530830057+531626806+531767970+531030217+530262348+529906948+529608435
3248+529118601+528691510+528557876+528609853+528569661+528147953+527238011
3238+526231426+525936878+526728499+527790916+527732646+526115396+523852308
3228+521955750+520588637+519489738+518504686+517509122+516573573+516285973
3218+517109420+518290340+518193842+516068571+512973634+510739899+510388573
3208+511493619+512605140+512342491+510522680+508240496+506701702+506091292
3198+505638485+504726397+503684858+503151776+502985042+502423881+501150209
3188+499548381+498091536+497109758+496875407+497324976+497813647+497405942
3178+495527498+492582163+489800360+488106618+487326200+486766384+486189109
3168+485756599+485422040+484922422+484251013+483740774+483520317+483077513
3158+481818391+480105807+479010946+478766483+478295017+476743966+474742217
3148+473483422+473178253+473120129+472795465+472248415+471588101+470670375
3138+469396122+468075930+467112447+466369712+465483812+464701248+464455076
3128+464312785+463468096+462069411+460974659+460543348+460602600+461038966
3118+461615950+461755367+461091779+459918534+458775078+457798173+456692327
3108+455229989+453567964+452080238+451073362+450621719+450520784+450528168
3098+450622738+450742404+450479683+449516745+448178949+447127516+446650230
3088+446445414+445993117+445131587+444269039+443910984+444037817+444097614
3078+443606361+442687762+441943353+441762289+441940007+442086663+442058037
3068+441726789+440777237+439151985+437376040+436002161+434956184+433866742
3058+432851500+432465401+432875324+433500248+433540913+432643811+431109164
3048+429603506+428589646+427969488+427309973+426360240+425294840+424487324
3038+424051176+423694067+423105589+422277086+421369181+420605640+420259624
3028+420312874+420306254+419898586+419184622+418256603+417011557+415537471
3018+414219970+413400233+413198800+413471269+413709730+413322431+412242955
3008+411036246+410252482+409824082+409248407+408251316+407029149+405887766
2998+404969203+404328712+403945305+403584231+402910459+401902746+401006808
2988+400642060+400598158+400205876+399184705+397970940+397097299+396639145
2978+396408468+396341651+396392973+396199578+395274651+393642488+391951182
2968+390783392+390146211+389762622+389470329+389123877+388530525+387796992
2958+387376812+387478183+387719918+387595959+387030796+386277549+385486947
2948+384598683+383519934+382224330+380766248+379381857+378504106+378388040
2938+378649743+378521310+377797343+377141284+377077086+377126990+376523781
2928+375413351+374597652+374324127+374078610+373480457+372770384+372354932
2918+372286369+372270002+371983128+371346420+370577678+369998439+369722332
2908+369528464+369124324+368504711+367878005+367300257+366665077+365982466
2898+365367727+364787360+364032985+362980680+361817800+360957653+360650083
2888+360706534+360704534+360403620+359881196+359355971+358932189+358472981
2878+357780477+356901888+356108121+355569656+355205818+354844671+354414161
2868+353950551+353473302+352951241+352433181+352028314+351662475+351102732
2858+350330534+349605112+349099347+348742237+348421610+348096617+347702371
2848+347117058+346298485+345444812+344942683+345031470+345514029+345877613
2838+345686764+344852224+343650971+342558764+341925002+341667918+341351292
2828+340698797+339936348+339459826+339301676+339167715+338894336+338582838
2818+338324335+338054412+337709524+337350123+337049318+336742549+336277703
2808+335561556+334564646+333279554+331853953+330658702+329977727+329702021
2798+329522375+329293807+329021665+328644914+328067166+327342617+326666517
2788+326167153+325768978+325297912+324683246+323985176+323260373+322526148
2778+321833317+321219560+320589944+319782574+318782645+317791519+317055767
2768+316628931+316275531+315673559+314805373+314044160+313685268+313534612
2758+313187687+312560144+311854691+311158040+310375440+309482302+308621355
2748+307973880+307591237+307326369+306955874+306379763+305693806+305080722
2738+304559261+303845933+302694238+301372409+300453683+300138003+300105831
2728+299958011+299529447+298911089+298352309+298006257+297739116+297342469
2718+296836067+296361600+295856362+295067869+293962259+292921193+292313001
2708+292028492+291727269+291350755+291042239+290775353+290416188+289978876
2698+289559751+289165214+288752308+288307376+287799664+287168830+286429186
2688+285725188+285219877+284929439+284692306+284310426+283719748+282998327
2678+282238514+281517566+280975591+280734693+280709960+280668931+280473135
2668+280137795+279771465+279569104+279655217+279812003+279599530+278863469
2658+277926738+277197916+276758512+276402985+275949105+275408512+274906948
2648+274524595+274219081+273890160+273513464+273170685+272937062+272794444
2638+272661319+272449501+272088499+271540032+270837598+270124106+269588642
2628+269310862+269219220+269201961+269155531+268978722+268680646+268418470
2618+268272578+268111045+267815843+267483503+267249825+267051593+266729692
2608+266298636+265943764+265754988+265618972+265417684+265197227+265081216
2598+265096874+265135921+265065939+264868871+264662327+264559155+264515962
2588+264374108+264059154+263674729+263369723+263185331+263069101+262970749
2578+262879234+262804197+262735979+262628679+262472130+262363611+262399584
2568+262515396+262561753+262527526+262566263+262808362+263243109+263766316
2558+264249476+264565902+264626627+264424848+264051480+263672437+263407315
2548+263156305+262665962+261883325+261103580+260641080+260497443+260445866
2538+260314014+260111163+259950158+259887505+259849805+259736703+259549492
2528+259364335+259232610+259171122+259200366+259299046+259335273+259151717
2518+258756434+258348312+258116907+258077624+258116161+258124563+258074660
2508+258000495+257928568+257825778+257640330+257412418+257285840+257315375
2498+257330160+257138402+256784748+256436459+256140456+255873551+255689377
2488+255648730+255695797+255677919+255446569+254963609+254343887+253753227
2478+253284252+252946075+252684826+252391606+252001397+251594602+251311984
2468+251185825+251125991+251032513+250844264+250511307+250030074+249515197
2458+249141556+248988881+248990899+249016415+248955127+248773098+248532691
2448+248316581+248113293+247854609+247575519+247404803+247341896+247194058
2438+246831383+246378249+246082283+246086138+246297210+246400255+246139825
2428+245668995+245402636+245495296+245723027+245865409+245931844+246001153
2418+246043927+245978765+245843058+245800829+245938191+246177180+246443811
2408+246734431+246964308+246967527+246715517+246393417+246238195+246345714
2398+246599542+246796374+246870466+246917169+246997135+247068044+247108309
2388+247134006+247086376+246865683+246465635+245898381+245008317+243566057
2378+241604028+239523095+237779922+236495866+235406751+234215556+232980531
2368+232064442+231717444+231833910+232111599+232423406+233064334+234539566
2358+237085890+240598734+245040325+250612096+257232008+263961438+269365621
2348+272422512+273154336+272724317+272435206+272264163+271220241+268854363
2338+265604822+262152794+258857824+255684357+252614863+249985390+248160942
2328+247009138+245989241+244710895+243293515+242246156+242012496+242546523
2318+243296934+243669102+243541814+243268945+243211112+243448427+243928131
2308+244602104+245325762+245837765+245990095+245928007+245925533+246058622
2298+246183108+246229266+246303121+246461161+246618893+246726193+246837421
2288+246989333+247148574+247277370+247360737+247366284+247242416+246999790
2278+246744016+246550730+246364682+246115236+245840312+245582500+245262764
2268+244803992+244336872+244130274+244268200+244510626+244569587+244420821
2258+244224025+244042979+243810101+243522537+243307318+243249030+243275201
2248+243289350+243301280+243339399+243367315+243373681+243415491+243512189
2238+243606176+243663209+243738156+243908090+244173631+244484656+244849076
2228+245314031+245855224+246419514+247034672+247738888+248484497+249229979
2218+250031166+250960949+252027422+253220618+254561434+256043267+257579278
2208+259097412+260644281+262285719+263974387+265633412+267284088+268980777
2198+270687759+272310447+273840693+275390253+277017160+278609768+280040316
2188+281303893+282452424+283552978+284650859+285631600+286318085+286781349
2178+287266037+287819469+288255308+288388215+288156592+287640587+286994040
2168+286300553+285541250+284672701+283670353+282546484+281321207+279990121
2158+278593582+277212192+275848007+274491387+273237830+272190016+271434587
2148+271055963+270990728+271369988+273161101+277521962+284323229+292242128
2138+300302045+308438908+316796282+325309697+333832568+342324195+350961168
2128+359909712+369046850+378191116+387319379+396323537+404914098+412696162
2118+419089579+423632305+426544323+428579826+430538909+433322421+438053486
2108+445630042+456166774+468974923+482874916+496210655+506975154+513868118
2098+517074647+517459618+515710080+512329760+507436690+500774550+492296526
2088+482035028+469723951+455261088+438885917+420957985+402332347+384248448
2078+367450696+352213452+338872257+327584388+318196168+310617538+304681892
2068+299922547+295958006+292539986+289289500+286122635+283453389+281497179
2058+280070360+279052081+278383601+278016361+278168982+279087053+280758117
2048+283335595+287302610+293079506+301073078+311827229+325638290+342463831
2038+362222377+384469741+407904827+430666869+450899645+467225494+479236349
2028+487279606+491908973+493970009+494403429+493569034+491366652+487754382
2018+482759541+476473787+469072148+460574192+450911539+440220258+428745504
2008+416668087+404171836+391512706+379069377+367312515+356517026+346554659
1998+337165930+328438206+320836334+314576551+309118827+303701860+298284001
1988+293392550+289313833+285974834+283254992+281018148+279103149+277427011
1978+275948232+274614473+273402381+272287187+271303935+270701890+270670991
1968+270832069+270451626+269328848+268036099+267146071+266664930+266355433
1958+266216179+266345103+266592002+266676806+266536243+266354814+266329608
1948+266575125+267250116+268445349+269640819+269730842+268314225+266426778
1938+265274156+265006051+265064230+265040824+264927958+264871071+264916665
1928+265127264+265851667+267297001+268842760+269723694+270292294+271239009
1918+271948682+271297388+269759122+268932892+269491162+270729079+271595191
1908+271668883+271271872+270925384+270844927+270915763+271008896+271239937
1898+271859441+272791461+273527704+273915803+274588193+275822982+276610329
1888+275941612+274395562+273212205+272764181+272731573+272876683+273127856
1878+273385158+273535324+273640296+274287589+276481932+280454040+284386500
1868+285377826+282824119+279118662+276528162+275485441+275342004+275439484
1858+275471510+275435356+275491588+275775752+276372268+277407478+279093601
1848+281783452+285573331+289124149+289759311+286885158+283324919+281535880
1838+281533752+282105480+282711181+284190104+287470034+291618223+294084163
1828+293997814+293056973+292176548+290588596+288297773+286637349+286344055
1818+286881538+287541580+288406456+289999354+292210829+293951784+294272066
1808+293583435+293193262+294113643+296572545+299888248+302583374+303466272
1798+303048602+303283589+305779428+310114137+313192015+312024516+308114534
1788+305366631+305438140+307314839+309501835+311515877+313205400+314225479
1778+315034814+317202750+322019837+328749450+333908042+334327749+331152573
1768+327266670+324303839+323511273+325600862+329142095+331528488+332439266
1758+333321819+334335897+335351502+337925215+343441717+350321732+354771161
1748+355251466+353814844+352892208+353556560+355709692+358203057+359641316
1738+360750582+364248713+370669883+375234687+373302266+367916742+363202991
1728+360015848+358520302+358826380+360319162+362955691+368260721+377247966
1718+387154828+391608876+388324654+381909522+376805416+374793520+376395603
1708+381235313+387416786+392515981+396884844+403320527+411971540+418085977
1698+418776117+416041454+410803823+404530182+400955377+401762128+405690151
1688+411736826+420955911+432582995+439122341+435421612+428210131+424305496
1678+425317064+429964798+435215305+438935202+442557474+447480879+450888042
1668+449624409+446794376+447281919+451379440+455327141+456400943+456603649
1658+459745944+468394193+483299861+499743159+505412682+501240305+500337383
1648+505533222+510311208+508358308+503050805+500554202+502887163+510046049
1638+521470244+533971515+540247848+537668316+533544097+533935033+539243846
1628+547022854+555311884+564072307+572950178+580220365+586135806+593909249
1618+605341701+616835623+622290983+622282035+621663622+622316953+623232678
1608+623296622+622897974+623299895+625235227+628601615+633187516+639082333
1598+646293341+654342528+662313804+669339819+675216741+680306552+684877976
1588+689046970+693039555+696927168+700575301+704307165+709221586+716579104
1578+726443665+735659549+739534723+739948210+743447724+752462394+763871349
1568+773300161+781118234+790546246+803173040+819842104+842678856+870715337
1558+890298093+892589079+888381602+884680219+882002152+879959666+877982142
1548+876258646+876794929+881293171+888916866+896743160+899496591+891219419
1538+876411194+865259396+860023220+857196824+853551892+850118577+849517623
1528+851675048+854415458+856735761+859431796+861839103+861625594+858997649
1518+855847315+851880701+846817442+842931793+842910333+847907684+857587688
1508+868436427+871116676+861170641+849129669+842896438+842362847+844851048
1498+846873529+845618444+842036291+840058840+841881779+846056883+848711672
1488+847327899+843324912+839283296+836360803+834517495+833467845+833565106
1478+835833177+840939283+848109045+854321980+855025505+849441604+843035892
1468+840716754+842525507+844569012+843358302+840880432+841939248+848375076
1458+856265095+857055479+849289274+840758437+835643383+833577764+833104988
1448+832430706+830265498+827133206+824475289+823029029+823106576+825057256
1438+828046530+829071083+826273131+822474705+820811152+820740152+819760120
1428+817379219+815737345+816207283+817997996+819989996+821836360+822489400
1418+820112501+815194297+810374082+807179374+805352288+803853941+802170383
1408+800958582+800929120+801532038+801842226+802162963+803257352+804951604
1398+806602572+807739008+807484397+805186355+802264298+801030382+801679930
1388+801897222+799650902+796428114+795849421+799431792+805461480+811411584
1378+816578506+821769797+827041691+831155035+833538190+835184356+836887701
1368+838513354+840363209+843255730+846680316+848548503+847664786+845162545
1358+842847262+841538855+840985550+840641898+840522595+840938992+841506483
1348+841473020+840991588+840985768+842059861+844293232+847337502+850167535
1338+851759506+852492348+853790207+856315071+859346683+861944875+864305988
1328+867576716+872335388+877844143+883074426+887789305+892102336+895824306
1318+899077939+902769792+907504385+912609910+916960404+920343379+923294825
1308+926104417+928804234+931551046+934275816+936416436+937459176+937365116
1298+936387411+934859966+933175826+931855197+931409847+931642415+931263555
1288+929040149+925289008+921502585+918830847+917489558+916923886+916098584
1278+914447180+912778316+912401056+913364284+914434958+914885474+915324713
1268+916388185+917692083+918707470+919708598+921081822+922534994+923617598
1258+924354442+924967835+925380886+925438501+925338184+925190219+924462396
1248+922508442+919575546+916680915+914434449+912616966+910775840+908468559
1238+905228603+901154906+897228156+894339781+892393465+890808478+889415176
1228+888336718+887322204+885883800+884149319+882907765+882698839+883536799
1218+885366067+887889113+890257719+891881043+893280019+895330944+897872830
1208+899798414+900624371+901439852+903704286+907283092+910434953+911953305
1198+912586340+913980951+917014527+921194215+924877703+926447413+926046365
1188+925627713+926806560+929358485+932084928+934436075+936736155+939262110
1178+941763914+943841536+945526694+947418524+950026318+952916148+954938411
1168+955673363+956178074+957582360+959565995+961142544+962496927+964947372
1158+969029944+973342974+975743297+975677244+974624393+974124702+974414012
1148+975101461+976144855+977965830+980882285+984509758+987870836+990166551
1138+991317827+991619141+991170808+990136871+989227474+989350924+990972721
1128+993778530+996760020+999004958+1000669602+1002318169+1003532152+1004011475
1118+1005500874+1010066842+1016587201+1021286949+1022361842+1021860696
1110+1022311065+1024103015+1026183402+1027082322+1025369957+1021162772
1101+1017226055+1016352014+1017730257+1018229803+1017274941+1017726984
1093+1021655989+1027684513+1033290165+1037695656+1041095798+1043107804
1084+1043358923+1042452946+1041828859+1042599019+1044865417+1047643946
1075+1048974687+1047529153+1044831154+1044290943+1047102135+1050770928
1067+1052762201+1053583648+1054814654+1056128953+1055917554+1053922862
1058+1051936972+1051885613+1053802613+1055719249+1055676474+1054493117
1050+1054829785+1057372908+1060037444+1060871403+1060719946+1061773088
1041+1064385975+1066602542+1066285443+1063572894+1060637089+1059539062
1033+1060930764+1064497276+1069281045+1073060994+1073741823+1071773756
1024+1069388418+1067790701+1066556203+1065021774+1062909597+1060619266
1015+1059142597+1058775085+1058025584+1055675383+1054003610+1056502722
1007+1062242227+1065494258+1062631490+1056995139+1053929991+1054392509
998+1055714884+1055840298+1054480386+1051765146+1048437240+1046159785
990+1045320006+1043972534+1041066773+1038905856+1039829147+1041866323
981+1040579739+1035037740+1028403824+1023241631+1019758922+1017406611
973+1015596766+1013481970+1010852861+1008784696+1008001732+1007360332
964+1005297986+1001951093+998414988+994771147+990392427+985715158+982361063
954+981452831+982309559+982864392+981533724+978465667+974457878+969701534
944+964584515+960443529+958465350+958403370+959013126+959429378+959883604
934+961237114+963519734+965168883+964264215+960684536+956424246+953573189
924+952756035+953241759+954030252+954693985+955199278+955330075+954747381
914+953474619+952218006+952070914+953143043+953642734+951718533+948285437
904+945952985+945466897+945578926+945673496+946095131+946589003+946617301
894+946596277+947220291+948093315+947958298+945953422+942661598+940112873
884+939893544+941274043+942168817+941767769+940911332+940315616+940153247
874+940780098+942133754+942883909+941564735+938208822+934312407+931787834
864+931614844+932841849+933558105+933242170+933029388+933641472+934603536
854+935221367+935455973+936070312+938014154+940989679+943141648+943280156
844+942652214+943079887+944375127+944834663+943473515+940993171+938752525
834+937370935+936677230+936653224+937811339+940232904+942381744+942326094
824+940255309+938220680+937613179+938096794+939003862+940638826+943523637
814+947348033+951120344+953484876+953309485+950891267+947942076+945900972
804+945074870+945142523+945525458+945532805+945032677+944764972+945297909
794+946347850+947729731+949649495+951642586+952864426+953482257+954175525
784+954554531+953644989+951631383+949622651+948210872+947378805+947027587
774+946956078+947084257+947809678+949502039+951815285+953793318+954326837
764+952734429+949639528+946857653+945705577+946459588+948888864+951985947
754+954092886+954203169+952608943+950309009+948687503+948914834+950718059
744+952741049+954490879+956707082+959272175+960578982+959115262+955405585
734+952252488+952243540+955150538+958011779+957670383+953753163+949728060
724+949936914+954948232+960105188+960138433+955397438+950648296+949231060
714+951015953+953603743+954147009+952029158+949803352+949580895+950101756
704+949370296+947759920+946125830+943536076+939336165+935213365+933094423
694+932534789+931515692+929020435+925867410+923068294+920132634+915913737
684+911335693+909386103+910741432+911833202+910396907+909481546+911998481
674+915140448+913812836+906747246+896593012+888712523+888492394+893055816
664+895269983+892791749+888300200+885825967+886789631+889340538+890954770
654+891147255+890400155+887515562+881047944+872579596+866350220+865375426
644+868352042+870908478+870603600+868918732+867689036+866580970+865288276
634+865373098+868063968+871738508+872408934+867073533+857965457+851812538
624+852084171+855379778+857339552+857840916+858093854+857055843+852712331
614+845093000+837523428+835759267+842996464+853883249+857792177+852257161
604+846337901+847224091+851665227+851441170
##END=
