##TITLE=<SNM>
##JCAMP-DX=4.24
##DATA TYPE=INFRARED SPECTRUM
##DATE=2/5/2025
##SAMPLING PROCEDURE=Instrument type and / or accessory
##ORIGIN=Admin
##XUNITS=1/CM
##YUNITS=ABSORBANCE
##RESOLUTION=4
##FIRSTX=4497.3318
##LASTX=599.83466
##DELTAX=-1.4281778
##MAXY=1.7167476
##MINY=0.20712906
##XFACTOR=1
##YFACTOR=1.5988458e-09
##NPOINTS=2730
##FIRSTY=0.22760479
##XYDATA=(X++(Y..Y))
4497+142355683+141299221+140701029+140699016+141089438+141466896+141545267
4487+141457362+141547970+141953369+142585579+143260166+143565860+143080720
4477+142080577+141506226+141890981+142835092+143732221+144373909+144665353
4467+144455431+143919552+143578880+143743983+144265667+144788628+144953554
4457+144530503+143666105+142820413+142289847+142107484+142344611+142984584
4447+143568992+143494320+142618338+141271876+139883092+138881430+138715964
4437+139517191+140711551+141321206+140844817+139659665+138470886+137668225
4427+137318037+137369362+137659296+137930255+137892379+137273804+136082911
4417+134889556+134517010+135278981+136627717+137631355+137710612+136911501
4407+135740477+134911775+134943994+135694688+136468756+136675352+136141757
4397+134930583+133360386+132138224+131971331+132976264+134576015+135923148
4387+136474637+136207695+135330054+134107902+133008204+132431168+132161365
4377+131728891+131305402+131446786+132084475+132594034+132705426+132639199
4367+132562356+132446509+132215234+131692739+130746243+129755989+129549114
4357+130529004+132112622+133267074+133434340+132862570+132300726+132340439
4347+132779483+132826903+132182652+131446655+131226360+131495967+132028714
4337+132725902+133299396+133297252+132684475+131969943+131671630+131953101
4327+132734961+133786224+134620312+134688283+133964589+133070768+132548134
4317+132357438+132316328+132479753+132785951+132861964+132539326+132208729
4307+132371166+133027468+133670358+133822497+133494509+133013907+132555496
4297+132169240+132127972+132708222+133638419+134310424+134518762+134462367
4287+134174204+133547055+132757758+132170638+131969756+132136565+132524219
4277+132844666+132912823+132895395+132998725+133063900+132792820+132248609
4267+131892000+132177461+133110099+134052178+134194950+133525060+132980542
4257+133313329+134246405+135088677+135670167+136249430+136890754+137285697
4247+137021923+135967353+134538977+133467491+133149662+133390946+133816057
4237+134255325+134671721+134949428+134895922+134485369+134081405+134211139
4227+135016457+136091466+136900196+137188182+137089549+137012939+137208406
4217+137313209+136721784+135486592+134352615+133876217+133976127+134230114
4207+134247682+134008393+134008523+134705664+135844068+136741309+137102904
4197+137206421+137432355+137846310+138153020+138024004+137504464+137001597
4187+136903057+137302146+137975485+138534048+138718285+138559174+138232752
4177+137936313+137913367+138326306+139037623+139660699+139842531+139509772
4167+138996709+138894525+139496053+140367813+140780808+140573653+140204779
4157+139953793+139622310+139147962+138950901+139406237+140352314+141320666
4147+141938187+142001889+141471835+140597913+139877565+139702257+140089100
4137+140774750+141442533+141811585+141701470+141232117+140866374+141004971
4127+141588866+142235857+142551263+142206564+141166551+140005649+139515560
4117+139864396+140520306+140961605+141108329+141135245+141202713+141381413
4107+141642288+141851027+141871335+141753419+141699699+141777865+141885660
4097+142021666+142274460+142527758+142519742+142181363+141684340+141287347
4087+141224987+141492414+141760260+141781873+141735049+141900646+142247283
4077+142585746+142853723+143016076+142967678+142763254+142695945+142899223
4067+143094429+142980390+142688415+142589549+142760020+142891580+142723076
4057+142380130+142229845+142539035+143307884+144239096+144833299+144774890
4047+144290421+143870110+143623849+143218384+142492845+141760400+141363845
4037+141280348+141378310+141776719+142678424+143972825+145149720+145620527
4027+145219620+144454881+144095457+144422895+145061684+145554663+145859406
4017+146204170+146599979+146697176+146228830+145428088+144786745+144543737
4007+144624485+144880709+145187345+145503375+145922847+146449284+146790329
3997+146660316+146205614+145882287+145988544+146466806+147039004+147478468
3987+147865395+148422989+148937860+148758852+147756836+146839529+147046460
3977+148427267+150091204+151095503+151084291+150301676+149283779+148566945
3967+148542303+149347686+150734411+152134817+153057100+153423206+153433458
3957+153249212+153028572+153138510+154008499+155648074+157285878+157740710
3947+156700249+155380088+155101794+155585080+155492421+154446695+153427475
3937+153390167+154610354+156913005+159529189+161005768+160453095+158853922
3927+158023738+158613393+159758292+160502751+161016989+161957633+163125702
3917+163262593+161371669+158123480+155312770+154124831+154563418+156462796
3907+160316520+166420080+173402902+178577431+180350290+178898131+174779738
3897+169332545+165308601+164966149+167684331+169797387+168702368+166956238
3887+168138212+171527393+173792010+174523514+175421976+175209649+172002673
3878+168483162+168473265+172005749+176673701+180878191+183419741+183033876
3868+181228025+180850977+181544194+180411373+176758979+173270168+172681445
3858+176342079+184811880+196408786+202996461+197077473+185060276+175233340
3848+170328251+170314402+173700414+178330844+183092387+188266841+193105386
3838+194778820+192294476+188431674+185351654+182718098+180227752+178833208
3828+178910843+179928022+182745555+189147409+197257498+200899622+198682052
3818+195331120+192013684+186553499+180217090+176768932+178105655+183622897
3808+190196257+194150730+196184809+199483493+203047888+202956721+199930813
3798+197384156+195198274+191901547+188501779+186999105+187785373+190056998
3788+193110773+196435888+199500586+202520864+206575526+211727538+215987165
3778+217874268+218910031+221792039+228159540+238063793+249543379+259598504
3768+267118920+272956861+278032692+284040312+293349449+306168647+319487544
3758+330696273+341353187+355239426+374988733+399715564+422882869+438421758
3748+449523606+461340109+472409374+476932457+476501056+478809942+487715191
3738+502364472+518731682+531549333+537400135+536855142+533650049+531530954
3728+531947891+534047824+536178514+537382763+537323525+535839827+533622760
3718+532206053+532917427+536602832+543304882+550871152+555545293+556139868
3708+554764654+554101931+556246451+561284890+566291194+568271012+568089906
3698+568854366+572620445+579818876+589688850+600334990+608192602+609449453
3688+604906724+599316879+595278434+593079261+593272855+596640227+602917399
3678+609751307+611923079+606648212+601238243+602331696+605535410+601830991
3668+591177321+581316032+576148381+574803625+575502136+577621828+581277410
3658+585481117+588431030+590701481+595393815+604148863+614553467+620780647
3648+619214970+613013550+607142542+603828107+602715566+602310410+601981266
3638+602532150+604286649+606366041+609387009+616645199+629400220+640550085
3628+640468591+633283880+628823949+630139702+636055334+644645941+653136936
3618+658697292+661521311+663751314+665931213+667260759+667853732+668374680
3608+668464971+667662114+667120364+668557798+671900155+674911095+675847936
3598+675582206+675410868+674655207+673104442+673763847+679886382+690322115
3588+698840474+700150560+696384481+692720995+691075167+690446853+689525669
3578+687974010+686629253+686738110+688548641+691556524+696024656+702039527
3568+706890300+707196665+704660595+703477633+703813375+702880858+699592333
3558+695844073+694229485+695262210+696267273+694511618+691768124+692399718
3548+697362703+702774088+704142779+701034390+697053653+695928400+697619933
3538+698232440+695001773+690245990+688256367+690530956+695333340+699723632
3528+701418446+700136618+697616280+695639556+694254537+692500448+690317418
3518+688597179+687783361+687528069+687336451+686735426+685564840+684800232
3508+685819312+688276722+690284313+690597240+689350305+687423984+686053355
3498+686283147+687893858+689434110+689551169+687824443+685056866+683387924
3488+684545834+687246532+688351654+687177117+686242811+687678828+690901592
3478+693640613+694329842+693424614+692657843+693211597+694521982+694749463
3468+692942512+690755604+690963328+693873761+696591756+696552165+694449361
3458+692896956+693086263+693617723+692699224+690393767+687869179+686135221
3448+686027483+687954326+691333889+694795914+696684956+695456214+690946701
3438+685528455+682590733+683526903+686474617+688452235+688871409+689400186
3428+690431494+690419341+689070558+687984896+687480649+685956800+682726208
3418+678972281+676175029+675135743+675858598+677747938+680197817+682593864
3408+684012062+683986936+683120479+682090140+681068226+680380563+680306451
3398+680631158+681349912+682703392+684133296+684364878+682971061+680853122
3388+678946186+677736307+677829507+679582552+682206378+683900819+683370999
3378+681395543+680036247+679926868+679685593+678633035+678466246+680853122
3368+684735514+687481842+687937177+686773973+684671393+682303604+681113260
3358+681666119+681993212+679892869+676614856+675931741+679396675+684397983
3348+687125149+686348611+683679676+681160904+679721754+679464598+680459372
3338+682667231+685049783+685956502+685207253+684387023+684185190+683186762
3328+680597159+678279847+678363726+680407255+682557852+684428105+687022630
3318+690020074+691109688+688923974+685201288+682685796+682125257+682413132
3308+682778623+683622265+685056195+686015404+685835865+685608309+686499743
3298+687719463+687644307+686336383+685523758+686509809+689076895+691799364
3288+692772889+690897939+687465886+685637536+687394682+690993450+692300479
3278+689716915+686251683+685624786+688353145+691995232+693578058+691839552
3268+688133642+685378963+685505938+687777322+690108576+691371392+691587242
3258+690934473+689504495+687517109+685553880+684661476+685490281+687086303
3248+687652509+686887453+686354725+687205375+688665103+689139227+687948585
3238+685710232+683685491+683139417+684756913+687866942+690383254+690459901
3228+688255994+685428471+683322908+682258197+682092302+682588123+683279664
3218+683514153+682732172+680736138+678001068+675670112+674830720+675570202
3208+677134462+679029841+681089103+682339393+681317404+678277684+675560286
3198+674862259+675322068+674986102+673284801+671289512+670333807+671235307
3188+673778759+676307969+677113809+676353600+675369264+674697035+673851380
3178+672354372+670307190+668506799+667974444+668746508+669573225+669363116
3168+668217583+666728553+665069378+663204867+661538684+660803079+661264677
3158+662366146+663356819+663898867+663707920+662172366+659102300+655694181
3148+653923316+654502122+656031936+656721910+656183739+654962602+653520322
3138+652387985+651990806+651813131+651057768+650177070+650318509+651409167
3128+652033007+651112643+648914478+646430376+644429196+643205152+642695164
3118+642546268+642405351+642267938+642319607+642528598+642604499+642205904
3108+641145294+639704653+638625478+638227702+637825453+636746203+635380346
3098+634467364+634013073+633495554+632625444+631581684+630798063+630554253
3088+630664750+630722683+630498781+629829907+628580363+627262596+627046001
3078+628339610+629918111+630245204+629134564+627335068+625337170+623502705
3068+622511436+622689521+623217776+622806207+621106397+618950470+617491749
3058+617525002+619070548+621054989+621968045+621359117+620223426+619604991
3048+619430559+619016231+618092401+616864702+615555734+614361923+613472688
3038+612712516+611617758+610329256+609786164+610417870+611291932+611155861
3028+609762752+607850634+606402277+605871301+605601880+604447735+602411251
3018+600915474+601033390+602200136+602994345+602619161+601255130+599454591
3008+597722646+596364208+595388968+594743245+594614555+594994287+595092407
2998+594104232+592385261+590933399+590053484+589271317+588131450+586645141
2988+585318242+584714197+584838451+585181984+585279545+585097322+584922330
2978+584736491+583943810+582404938+581208182+581261604+581871799+581794071
2968+580803547+579389487+577952164+576911909+576658071+577000709+577175030
2958+576569121+575324162+574019407+572747085+570942929+568376476+565752165
2948+563906480+562910401+562340542+562003458+561903697+561676291+560758499
2938+559245760+557839640+556948243+556574625+556699550+557012886+556834465
2928+555976359+555072883+554646962+554464999+554012422+553056717+551591435
2918+549783850+548194463+547464375+547482456+547392873+546610109+545252602
2908+543668584+542246434+541458414+541453866+541793410+541809440+541034394
2898+539458465+537621354+536180117+535352543+534903433+534452273+533753053
2888+532829073+531852753+531063763+530877849+531493637+532264993+532239083
2878+531325318+530117304+528829772+527296081+525600409+524060157+522978894
2868+522611614+522887708+523157092+522705782+521520956+520151557+518905443
2858+517687810+516598308+516021963+515939537+515806895+515375307+514981260
2848+514746136+514148802+512778173+511024345+509624451+508820252+508295240
2838+507783053+507338865+506965843+506383644+505397146+504210009+503091876
2828+501976912+500696873+499406992+498419785+497695998+496803930+495498802
2818+494199303+493622882+493846934+493993555+493211873+491700885+490253274
2808+489185506+488270809+487361890+486521380+485698652+484736274+483659708
2798+482654757+481826176+481192382+480757290+480415397+479984666+479449440
2788+478925696+478311549+477285572+475757435+474076079+472669699+471606852
2778+470679555+469847320+469266986+468861456+468322018+467598156+466851516
2768+465935962+464598064+463202570+462536454+462752603+463048008+462601284
2758+461451948+460171946+459019255+457856983+456652771+455558273+454653940
2748+453979549+453611970+453462217+453197418+452543083+451533957+450368218
2738+449143353+447863127+446635243+445658661+444994410+444527853+444100962
2728+443515073+442590720+441418383+440348341+439606696+439118257+438661840
2718+438001205+437024511+435883451+434827166+433930400+433149500+432488567
2708+431954497+431499720+431043751+430435979+429517926+428353268+427246991
2698+426433210+425871217+425376700+424823990+424168611+423371495+422453965
2688+421630044+421180636+421103802+421035319+420588819+419689220+418549167
2678+417421155+416413147+415496362+414637473+413912604+413467223+413295400
2668+413088646+412487249+411496985+410444651+409556647+408847995+408315267
2658+407910334+407435576+406759469+406011487+405361924+404779987+404148430
2648+403474262+402860450+402332531+401798833+401195460+400567482+399950687
2638+399290686+398558026+397856309+397349564+397088345+396926439+396675769
2628+396320008+395962756+395604273+395140103+394533598+393813389+392981379
2618+392068770+391196609+390489635+389989377+389654679+389402258+389151551
2608+388807309+388208931+387239060+386045324+385028257+384509956+384436403
2598+384431817+384151324+383551604+382801460+382057504+381436311+381060046
2588+380969568+381055051+381115108+380922558+380312064+379354868+378388017
2578+377745649+377459899+377257917+376851455+376200848+375493576+374927371
2568+374565197+374343867+374119741+373704444+372967833+371996172+371128970
2558+370706068+370713188+370793973+370670130+370368313+369962112+369362653
2548+368542162+367745418+367261340+367084112+366966121+366762425+366573155
2538+366537255+366630678+366713551+366662776+366421165+366030771+365619091
2528+365247597+364831667+364332938+363910930+363732957+363764533+363853557
2518+363865039+363693328+363303754+362764092+362166311+361607039+361229544
2508+361107266+361124303+361094479+360917847+360590643+360197602+359862531
2498+359604368+359341695+359061836+358819927+358592483+358286751+357849944
2488+357306106+356759547+356349693+356128400+356018649+355935850+355916577
2478+356080943+356418176+356622246+356294780+355403979+354411442+353836439
2468+353779251+353916106+353859440+353459465+352850910+352307072+351997762
2458+351851439+351715069+351576165+351475211+351347267+351169740+351074565
2448+351114044+351140662+351055179+350940134+350883916+350844474+350675298
2438+350259703+349709975+349320961+349192457+349105223+348896903+348683663
2428+348593035+348536743+348372264+348128678+347983213+348083980+348417112
2418+348781559+348885980+348598031+348148399+347892884+347825743+347629539
2408+347269491+347131295+347413242+347771314+347794987+347573918+347533693
2398+347796851+347966362+347655747+347042979+346660936+346755626+347069559
2388+347158546+346716371+345653971+344045124+342018930+339639398+336861531
2378+333615803+329960669+326130393+322422955+319086600+316242300+313785637
2368+311515595+309541611+308264480+307753281+307607424+307703028+308643579
2358+311174578+315348107+320616786+326800498+334174739+342120033+348722396
2348+352135697+351978712+349803697+347857915+346750631+345334409+342703760
2338+339073752+335130295+331351018+327940029+325060799+322923250+321627591
2328+321019333+320739399+320445150+320109520+320079696+320673079+321781034
2318+323010074+324072959+324938409+325742870+326639262+327672174+328780539
2308+329900648+330994885+331992977+332819880+333508177+334172130+334823482
2298+335320086+335562629+335646732+335740118+335896096+336063781+336212714
2288+336389159+336669727+337064333+337464532+337720532+337761354+337622300
2278+337408463+337252895+337217106+337210209+337102322+336901756+336693586
2268+336469572+336229266+336183524+336553936+337150748+337470646+337312766
2258+337024369+337031117+337366896+337766573+338021679+338123452+338180640
2248+338299674+338506540+338749082+338970300+339163186+339369343+339635968
2238+339948932+340237962+340498660+340814830+341194562+341556511+341964725
2228+342640384+343607236+344563313+345257239+345793882+346435132+347278885
2218+348267583+349361186+350562415+351862734+353273849+354862118+356680924
2208+358684527+360731821+362710633+364666219+366716421+368849944+370980820
2198+373151771+375450667+377807719+380091293+382290503+384454260+386552478
2188+388461726+390077283+391475201+392875579+394366882+395796898+396971510
2178+397825590+398431722+398919155+399323045+399547208+399511159+399213107
2168+398684927+397997934+397188627+396158177+394801863+393118979+391115674
2158+388817710+386358288+383850178+381254348+378436555+375312210+371988344
2148+368600169+365033015+361490950+359287826+359916922+363266102+367763685
2138+372168032+376300609+380382933+384574077+388891599+393182093+397386285
2128+401694152+406215967+410832510+415488347+420330135+425519929+431023061
2118+436586437+442022614+447448389+453031561+458649812+464023322+469060791
2108+473987503+479245147+485281342+492437646+501038542+511394198+523499246
2098+536670570+549508426+560355654+568043903+572495148+574738422+575909418
2088+575921124+573597474+568101538+559437452+547937605+534195452+519026490
2078+503123489+487192341+472042541+458159061+445740341+435055318+426181497
2068+418825298+412746567+407791896+403583156+399792957+396422565+393514555
2058+391048832+389023308+387252966+385488513+383840112+382564957+381629271
2048+380873573+380248353+379790222+379674207+380067285+380845613+381886054
2038+383527558+386410666+391168723+398346426+408201563+420635121+435437138
2028+452169614+469711436+486386054+500647663+511694114+519772608+525719444
2018+529923039+532122174+532215746+530611336+527712645+523495629+517663727
2008+510121503+501192918+491362198+480994352+470343254+459636683+449106483
1998+439060958+429955927+422184022+415574799+409317534+402814745+396383533
1988+390652436+385773070+381641424+378285348+375652947+373451799+371411327
1978+369476580+367748662+366335347+365209609+364316758+363816687+363847256
1968+363999283+363532130+362275168+360820883+359707969+358923416+358286677
1958+357846999+357677003+357601735+357372539+356951240+356522224+356328593
1948+356579560+357485981+359088081+360708186+361021746+359520265+357364971
1938+355946214+355474997+355405396+355367967+355299335+355179592+354986483
1928+354892091+355391603+356766034+358368730+359304042+359781932+360430675
1918+360650738+359437355+357434983+356292133+356624035+357680246+358308113
1908+357912947+356843874+355910388+355503405+355397045+355337808+355500273
1898+356220556+357336713+358145759+358456188+359081072+360392165+361207101
1888+360373749+358618504+357365791+356937707+356830193+356726145+356695762
1878+356907287+357381412+358042159+359254050+361938643+366302727+370349337
1868+370960129+367705156+363450227+360654950+359535252+359210246+359091622
1858+359084315+359218821+359474262+359804225+360328939+361403081+363376487
1848+366514812+370783684+374726433+375421067+372142495+367999405+365793933
1838+365591131+366002588+366389254+367750190+371207071+375685828+378222532
1828+377847683+376575473+375481386+373674807+371094113+369150866+368618847
1818+368900421+369237206+369813925+371375054+373861914+375889749+376177810
1808+375191610+374550435+375459913+378101969+381580286+384198781+384782359
1798+384133802+384497169+387545127+392598068+395944452+394130640+389026850
1788+385190200+384524793+385995705+388075843+390176745+391864849+392569176
1778+392895896+394811407+399843545+407102443+412580262+412693891+408796064
1768+404225673+400920670+400277258+402866228+406739450+408853848+409140231
1758+409522387+410210833+410988042+413572650+419503008+426892087+431266573
1748+430907978+428472489+426983385+427596936+429936989+432578859+434118961
1738+435596695+440095845+448144701+454196331+452778095+447373606+442812833
1728+440070494+439281766+440621490+443511941+447984846+455846148+468306099
1718+481933355+488695053+485841210+479457977+475103697+474671326+478428085
1708+485800463+494676782+502168642+508362120+516540003+527677640+537165981
1698+541236115+541330321+538340406+533890317+532272933+535674752+542804475
1688+552305306+565235579+581074161+591583820+590299568+584419724+582004068
1678+585347842+593289818+602308620+609539446+616262708+624098437+630093624
1668+630894990+630047546+632965734+639753341+645766721+647749633+648243441
1658+651791881+661213529+676912722+692954143+696452181+690571144+689271869
1648+694097067+697167431+692231959+684013479+679096125+678958115+683130917
1638+690872663+698491908+698281128+689087259+679795941+676039704+676986312
1628+679338369+681218464+682876893+683426024+681011039+677582416+677550430
1618+681523040+684275854+681024758+674923770+670953099+670079783+670648225
1608+670780121+669895919+668635713+667732274+667326595+667207598+667376700
1598+668069582+669162103+669964066+669968093+669439241+668861554+668270222
1588+667526564+666935381+667125732+668181645+669442969+670897403+674055226
1578+679903829+685619791+686222754+683165662+682497757+685873666+689465202
1568+689406001+687209252+686312375+688684637+696497289+712150702+731438746
1558+737565382+727256475+715691090+708898860+705996107+705665658+706979324
1548+709940085+715878682+725784445+738981716+753791264+765720948+765863804
1538+755432470+747162022+746526476+750164164+752303055+752385965+754508080
1528+760220090+767188057+773541801+780536758+788508595+793935564+794782039
1518+793420581+791249405+788098294+785553202+786428979+792578206+804190713
1508+817660500+822123786+811643765+798364553+791895613+792506256+797672043
1498+803520423+805179523+801805776+798845909+801093135+807702097+812926115
1488+812087096+807141633+802753503+801153529+801902927+803635617+806061264
1478+810296771+817074089+825240526+831292677+830593457+823168962+815686460
1468+813552192+816563206+820303041+820925017+820503308+824108935+833608050
1458+844417029+846419625+837835356+828363380+823539449+823100442+824991571
1448+826594081+826104299+824082168+822319505+821928962+823662547+828445395
1438+835621234+840900724+840333847+836776162+834993442+835275949+834986210
1428+833254936+831978849+832467587+834305108+837329394+841820715+845656806
1418+844725780+839314692+833989796+831090770+829901768+829230657+828832807
1408+829166909+830345994+831327645+831004877+830217677+830872235+833492856
1398+836961443+839803878+840635441+838814323+836082907+835335149+837190639
1388+838904689+837053076+832320630+829357408+831387293+837521311+844626467
1378+850663855+855829865+860678699+864348224+865755163+865677919+865842696
1368+867109091+869786078+874088018+878769689+880800170+878593579+874059461
1358+869783842+866768055+864969752+863882301+862681295+860940627+859211739
1348+858320454+858193106+858029075+857760660+858390614+860308958+862209706
1338+862665563+862034789+861611812+861944721+862892671+864410034+866438278
1328+868335745+869165221+868758796+868030796+868001793+868886890+870289952
1318+871846309+873387605+874837565+876121481+876974741+877183135+877319356
1308+878532440+881090058+883856144+885698735+886623647+887162564+887504867
1298+887507625+886960954+885760470+884204710+882829309+881576261+879531464
1288+876011357+871637915+867740685+864821901+862149983+858990372+855703636
1278+853302742+852278890+852197173+852237882+851863146+851103906+850389550
1268+850013099+849859431+849863010+850363380+851533816+852852477+853719754
1258+854166441+854366559+854176879+853820335+854211251+855948415+858542790
1248+861026743+862859567+863945900+864301997+864365969+865284170+867985091
1238+871886497+875242722+877027306+877918666+879205564+881342889+883848464
1228+886079958+887804820+889245833+890845658+892883073+895103756+896974233
1218+898517020+900412996+902990819+905703520+907936282+909783048+911721747
1208+913944816+916136271+917798801+918883866+920123643+922439091+925897165
1198+929628798+932814207+935332905+937387320+939028675+940358296+941718710
1188+943371696+945269834+947153508+948766754+950212837+951931063+953936790
1178+955571733+956551297+957746860+960376800+964430679+968064639+969278619
1168+968583350+968687063+971064321+974556841+977800407+981048595+984682257
1158+987684548+988753956+988082398+987138846+986945066+987372814+987766638
1148+987746432+987987782+989971440+994166386+998680745+1001012820+1000904336
1138+1000014691+999510072+999695054+1001059569+1003627476+1005812668+1006198962
1128+1006337344+1009217432+1014758701+1019210952+1020047287+1019130204
1120+1019572119+1022029603+1025004903+1026821324+1026851297+1025820063
1111+1025057468+1025480072+1027007276+1028592785+1029520158+1030682542
1103+1033515731+1037629258+1041203049+1043018426+1042552205+1039839950
1094+1036137247+1033389651+1032850511+1034827160+1038757643+1042826584
1085+1045064043+1045670659+1046450329+1048218211+1050642889+1053023279
1077+1054422091+1054671269+1054915750+1055876301+1056663203+1056436542
1068+1055752533+1055974124+1058170127+1061886550+1064957063+1065918509
1060+1066001941+1067046670+1068708752+1069591463+1069848172+1070578334
1051+1071949858+1073303189+1073741823+1072276578+1068673784+1064670381
1043+1062927849+1064393542+1067242613+1068628377+1067467335+1064795418
1034+1062091738+1060314908+1060137233+1061729900+1064379524+1066939677
1025+1068513854+1068866297+1068363467+1067676028+1067461967+1067637182
1017+1067727697+1067689896+1066949146+1064216686+1060036577+1057378006
1008+1058055604+1060628506+1062539096+1062645567+1061277845+1059267421
1000+1057382331+1055892332+1054820463+1054101932+1052913229+1050616644
991+1048500569+1048070956+1048271447+1046678109+1043026478+1039419136
983+1037155507+1035796733+1034818064+1034044657+1032638612+1029367683
974+1024402387+1019525966+1016125378+1014131431+1012503721+1009999786
965+1006345770+1002900669+1001241867+1001233144+1001037276+998888767+994558047
955+989275053+984526949+980693543+977052872+973353971+970375465+968636511
945+967779747+967355056+967184836+967100286+966976889+966624894+965724810
935+964211027+962410413+960573712+958759304+957550246+958083869+960628737
925+963452905+964099784+962157581+959769661+959112344+960457026+962844350
915+965099628+965705872+963446567+959108392+955282218+953831885+954277751
905+954955050+955160760+955443043+956038550+955991205+954281852+951433825
895+949282631+948924000+949406400+949130306+948157303+947621593+947157534
885+945444602+943229138+942627890+943571590+944007540+943372964+943033643
875+943580463+944105139+943883622+943132882+942133485+940768001+939231253
865+938404238+938861437+939890211+940162875+939250639+937986033+937762653
855+939401696+941822572+942380054+939903930+936466807+934666640+934851250
845+936190415+938360770+940755773+942139524+942525221+943322114+944577474
835+944396816+942166813+940114560+940349796+941955959+942415395+941399520
825+941360526+943690588+946296072+946415666+944175672+941865369+941349491
815+942914124+945139429+946036307+945386073+945380630+948029434+952555275
805+956328811+957816051+957286007+955355435+952765161+951092043+951895348
795+955198115+959436082+962536046+963064748+961079673+958430273+957553079
785+958855113+960218510+960128367+959315892+958345871+956722113+955234649
776+955564724+957123392+957674239+956845285+955626236+953798258+951282245
766+949869117+950760924+952263151+951626039+948145225+943966085+942534392
756+945727183+951674876+955924549+955681932+952222740+948812011+947264303
746+947198765+948005127+950040380+953263591+956255071+958026607+959371140
736+960873665+961583845+961145957+961228196+963186354+965580388+965359767
726+961181149+955202141+951492876+952057441+954721753+956403519+957448547
716+959839971+962880287+963900188+961869334+957825222+953357089+950033372
706+948651783+948460612+948164312+947691231+947934967+948689137+947975080
696+944354839+938912884+933551154+928606064+923608409+919308632+916797987
686+914892095+911496428+906775836+902529444+899907854+899124084+900580531
676+904134787+907096965+905208967+896829363+884607705+875296554+875168311
666+881446303+888170684+893564623+897584130+898881392+896300736+891724641
656+888258664+886090173+882978652+878694160+875912640+876049531+877062200
646+876786627+876033650+876122972+875959836+874171599+871345418+868282957
636+864757854+861059251+858791074+858831933+860646042+863250781+864611866
626+862505931+857580524+853261436+851718649+852415483+853265835+852943216
616+851763534+850031664+847416039+844307053+842442169+842426735+841937102
606+839242593+836891207+838291362+843196563+848376889
##END=
