##TITLE=<SNM>
##JCAMP-DX=4.24
##DATA TYPE=INFRARED SPECTRUM
##DATE=3/5/2025
##SAMPLING PROCEDURE=Instrument type and / or accessory
##ORIGIN=Admin
##XUNITS=1/CM
##YUNITS=ABSORBANCE
##RESOLUTION=4
##FIRSTX=4497.3318
##LASTX=599.83466
##DELTAX=-1.4281778
##MAXY=1.7724158
##MINY=0.21045333
##XFACTOR=1
##YFACTOR=1.6506908e-09
##NPOINTS=2730
##FIRSTY=0.23139986
##XYDATA=(X++(Y..Y))
4497+140183651+140990288+141677341+142285912+142734772+142712213+142064058
4487+141000182+139958196+139408375+139561675+140153410+140687036+140858599
4477+140675635+140387125+140327780+140575920+140845581+140849626+140480863
4467+139656560+138549289+137895565+138347937+139476584+140025476+139295715
4457+137912644+137107768+137432694+138358707+139138289+139632241+139979392
4447+139995334+139437921+138442199+137241524+135923802+134839406+134705496
4437+135769111+137181719+137761736+137327535+136804155+137002718+137781109
4427+138443526+138500831+137957121+137121976+136185456+135020212+133604707
4417+132468486+132324502+133331182+134921518+136190583+136371435+135354355
4407+133937911+133219326+133627609+134718396+135753539+136216636+135952725
4397+135164765+134307431+133827824+133866325+134096167+133992156+133504685
4387+133272081+133826343+134765951+135093396+134311792+132840317+131398976
4377+130387367+129865160+129769381+129961670+130247472+130482704+130622201
4367+130762737+131119764+131705830+132123167+132001986+131488454+131000902
4357+130770726+130847250+131170732+131436629+131307034+130943110+130968522
4347+131665631+132401946+132198373+130926861+129575332+129064977+129206389
4337+129229968+128942424+128755380+128786542+128606864+128003195+127494095
4327+127794693+128993292+130411461+131179714+130936611+130057061+129232685
4317+128940582+129307070+130079755+130630660+130451857+129755560+129236197
4307+129292256+129770248+130306041+130676654+130940871+131270555+131554145
4297+131349065+130469903+129474832+129246118+130059137+131295172+132162454
4287+132456191+132417482+132096510+131300543+130168294+129355907+129413067
4277+130195250+131087889+131568182+131386239+130594894+129708881+129491685
4267+130234635+131388234+132087338+131997292+131552701+131417843+131815673
4257+132388198+132695322+132758197+132949827+133363779+133698897+133899455
4247+134303405+134879622+135063525+134681059+134300119+134386483+134770402
4237+135059697+135053044+134751977+134276919+133721447+133084242+132449312
4227+132089306+132223541+132705703+133109888+133278950+133611216+134449475
4217+135384470+135693066+135251752+134473054+133651793+132914187+132512647
4207+132747418+133688100+135024672+136144562+136583737+136531190+136596727
4197+136934860+136966898+136247671+135201443+134591302+134633179+135021341
4187+135446099+135723144+135807215+135926095+136351259+137005435+137563390
4177+137804751+137751779+137638903+137718053+137945169+138003485+137742300
4167+137396612+137314004+137592864+137997157+138239258+138307324+138329233
4157+138199719+137684228+136860656+136113518+135716464+135681637+135945286
4147+136451470+137052738+137518588+137717449+137690105+137541038+137386221
4137+137383333+137620722+137933858+137990793+137686323+137409214+137713242
4127+138623060+139464027+139544054+138832085+137854852+137182694+137116244
4117+137567867+138162780+138646350+139094381+139512025+139548504+139012476
4107+138343080+138098578+138307026+138717232+139244332+139793323+140139995
4097+140263172+140335715+140314889+140014074+139463043+138819086+138233661
4087+137986054+138254776+138705163+138849174+138723948+138696668+138842024
4077+139026198+139296193+139694131+139994079+140006410+139867770+139764165
4067+139645944+139402886+139071099+138756925+138525313+138394138+138320323
4057+138202102+137975086+137688065+137489123+137523715+137784819+138114583
4047+138423062+138774862+139163195+139374044+139239728+138897804+138632701
4037+138528870+138451832+138360882+138429751+138775078+139246968+139588702
4027+139685619+139662157+139806502+140275359+140812876+140962710+140621833
4017+140188029+140036986+140036633+139798793+139289937+138899952+138951326
4007+139450098+140260771+141208232+142067913+142681006+142973931+142838387
3997+142268218+141539829+140942994+140490838+140146675+140069935+140429697
3987+141180907+142085859+142821650+143152020+143105954+142939293+142951038
3977+143334659+144051105+144805636+145247889+145206084+144761268+144204748
3967+143913864+144159088+144939474+145917899+146569006+146566984+146031272
3957+145311224+144654494+144227208+144345690+145338252+146912311+148008127
3947+147992555+147671176+148102497+148911978+148878062+147878387+147007684
3937+147104330+148277535+150312552+152543261+153696056+153088668+151823647
3927+151564168+152463135+153139076+152697988+151971531+152211186+153372809
3917+154110586+153382125+151713442+150369812+149875318+150034504+151088740
3907+153969581+158954199+164407764+167748813+168027610+166052453+162527826
3897+158346775+155537845+155926233+159049021+161803481+161764881+160840944
3887+161979657+164447267+165421522+165099864+165488233+165605298+163554402
3878+161095386+161158016+163923020+167922371+172154732+175140614+174987025
3868+172881713+171830835+171958372+170794509+167529145+164392273+163802344
3858+166993993+174532323+184848711+190455341+184984426+174721877+167119922
3848+164241320+165471587+168989479+172783551+176082822+179317855+182190896
3838+182968682+180994031+178127362+176080204+174752949+173494589+172487801
3828+172219782+172926524+175420061+180567223+186485167+188791551+187154842
3818+185144371+183147440+179247461+174498706+172025932+173501125+178503166
3808+184326540+187748274+189441782+192286352+195557115+196010661+194204421
3798+192944455+192070890+190312025+188634531+188874619+191282542+194957689
3788+199286299+204066667+209047945+214548740+221827105+231364461+241327992
3778+249676895+257341824+266809778+279234926+293811985+307873444+318136535
3768+323692577+325902081+326037092+325778877+327214929+330596817+334160983
3758+337192362+341684166+350179509+363706773+380526483+395410468+404929101
3748+413035912+424501538+437972364+447196963+451484065+456900329+467509596
3738+483844545+503123922+518970353+526906405+530236405+534781181+542121689
3728+550648049+558677479+565160437+569131731+569987295+568734496+567364344
3718+566435117+565425043+565033875+565995780+565905327+561490002+554103130
3708+547333829+543330976+543154512+546297034+550231569+552794327+554151480
3698+555238647+557025785+560997007+567794112+575827803+582031097+583732693
3688+580837047+576180117+572824336+572410961+574903306+578657189+582417065
3678+586613534+590441223+590973829+588867452+586992533+583767249+576090928
3668+566724855+560880339+559729729+560987835+562087821+562700987+563878967
3658+564926631+563552398+560451004+559675746+563620464+571183114+577603061
3648+577309351+570877416+563692248+559399477+557718751+556427894+554745472
3638+554050375+555490976+558650145+562992060+569067926+576358604+580328453
3628+577055253+570961658+568335529+570745763+576702072+583843620+589961263
3618+594301265+597667085+600224607+601348786+601484483+602006979+603227893
3608+604520520+605814194+607478453+609614079+612106027+614553994+616430574
3598+617655172+618328242+618144159+616914722+615870525+617237536+621852399
3588+627379518+629870166+628303473+625111878+622680376+621819035+622428553
3578+624362835+626857816+627823152+625937328+623441625+624343408+629536086
3568+634861645+635235661+630857961+625617186+621704425+619034388+617264546
3558+616504814+616358429+615539984+613055474+609824666+608784007+612111010
3548+617962747+621337703+619754688+615849004+612636611+610382115+608930465
3538+608984773+609989178+609788918+607808056+606026731+605849364+606278338
3528+605776424+604490622+603520628+602980222+602195323+600994304+599646070
3518+598176726+596508856+594930571+593864817+593161560+592091183+590459422
3508+589238002+589291298+590078401+590360447+589767719+588857414+587761797
3498+586067206+583998924+582382725+581346363+580149245+578424467+576766779
3488+576020913+576380052+577180876+577564027+577365826+577146103+577225868
3478+577277323+577094034+576839647+576210413+574439307+571544889+568544600
3468+566214564+564595043+563659570+563544418+564191346+565178888+565803608
3458+565503724+564435983+563220630+562081105+560844266+559642056+558829498
3448+558421395+557974294+556816245+554634870+552195533+550851306+550862247
3438+550996536+550219292+548997367+548312308+548050410+547353003+546095691
3428+544945153+544198131+543482886+542546149+541542827+540474689+539273309
3418+538519103+539047195+540559220+541542971+541081969+539930167+539165705
3408+538539576+536849354+533690330+530431610+529180617+530619015+533049506
3398+534121038+533407525+532269156+531542536+530784719+529670145+528818733
3388+528858128+529494042+529838304+529344515+528161840+526611504+524790676
3378+523000216+522001913+522214594+523048493+523670614+524095940+524899400
3368+526091427+526886581+526640716+525581714+524312847+522953743+521326134
3358+519733912+518967248+519529788+521106195+522605509+522857441+521867551
3348+521038671+521413085+522317252+522440961+521426734+519727954+517879106
3338+516475625+516062503+516549323+517069580+516756227+515593412+514381127
3328+513901709+514289772+515180687+516119663+516707877+516664402+515945582
3318+514818009+513753085+512966127+512082976+510777603+509588356+509186680
3308+509157829+508686969+507955005+507645480+507682166+507497866+507148332
3298+507220875+507859714+508615726+509071890+509247704+509463563+509897123
3288+510344837+510546217+510602113+510783597+511035926+511076729+510929043
3278+510975443+511407703+511814217+511530004+510420233+509074129+508166784
3268+507932184+508257381+508842996+509098972+508388384+506737557+505018340
3258+504218997+504638149+505685271+506303853+505754095+504214628+502674944
3248+502086549+502427814+502755467+502427706+501844186+501523467+501196031
3238+500442619+499437852+498403188+497158225+495807390+494986779+494854404
3228+494584887+493469086+492012019+491323494+491606299+491710871+490625617
3218+489026354+488306848+488532564+488530759+487786916+486981723+486592397
3208+486200868+485365488+484266044+483320749+482710833+482249506+481479700
3198+480076580+478204730+476326128+474844688+474046862+473907301+473776153
3188+472845554+471128865+469489195+468628214+468406975+468151468+467426221
3178+466376390+465275321+464063904+462735060+461769146+461464604+461199962
3168+460163889+458479011+456868012+455634026+454668799+454043320+453816629
3158+453466047+452305760+450548700+449183242+448600516+448055921+446777088
3148+445057113+443836776+443529272+443662153+443601851+443273080+442949833
3138+442593221+441813522+440484208+439036963+437986952+437364398+436799655
3128+436021761+435010711+433791133+432455284+431339988+430848112+431061335
3118+431588959+431754265+431062491+429686705+428338615+427473049+426842515
3108+426019412+425050177+424332260+424082530+424131314+424166773+424053210
3098+423850603+423582855+423125572+422406644+421596865+420938744+420420004
3088+419749606+418739387+417685620+417193745+417514645+418177352+418404946
3078+417819585+416669082+415492401+414597767+413772606+412638606+411350132
3068+410579568+410658971+411143661+411387505+411169551+410614377+409839046
3058+408861506+407714073+406516557+405406930+404447011+403618420+402822327
3048+401883315+400736062+399637593+398987669+398911262+399142937+399255453
3038+398937911+398200386+397346555+396603470+395813768+394681284+393271087
3028+392027713+391288563+390954159+390644597+390056130+389139108+388037750
3018+386991242+386266500+385992325+385972646+385806148+385267294+384453508
3008+383570970+382724433+381895733+381025400+380140696+379384684+378847094
2998+378459971+378111159+377701359+377127046+376416892+375789103+375374067
2988+374986041+374339186+373449246+372697928+372409670+372406926+372160952
2978+371389846+370307734+369332433+368737033+368471344+368243207+367900714
2968+367566996+367236166+366626178+365679403+364758301+364085194+363441445
2958+362627333+361758589+360916854+359997449+359125600+358703450+358745625
2948+358669291+358048615+357112925+356290436+355727715+355344888+354984810
2938+354493874+353854601+353203197+352705760+352448304+352309898+351981488
2928+351317337+350577826+350131340+350006078+349801593+349011422+347542367
2918+345926096+344857778+344580931+344790760+344972279+344765447+344152715
2908+343375507+342679797+342201895+342014346+342074503+342085011+341608409
2898+340523878+339270069+338391178+337955885+337666472+337332753+336921617
2888+336327879+335442488+334415117+333645600+333429850+333618266+333723054
2878+333444438+332968811+332618663+332359654+331888071+331124549+330359617
2868+329879405+329683081+329614546+329519399+329217962+328599019+327793068
2858+327039331+326420821+325923530+325617759+325510191+325317008+324719370
2848+323872471+323316466+323251904+323240168+322794476+321960360+321125342
2838+320515354+320070059+319644154+319186185+318785123+318575944+318537127
2828+318421759+318021203+317452271+317000982+316720235+316395327+315865862
2818+315176904+314463103+313840730+313380017+313095551+312911540+312593637
2808+311866187+310799927+309906123+309591037+309669971+309606383+309087751
2798+308260568+307525787+307137942+306918183+306411683+305412839+304233449
2788+303360300+302959491+302823469+302682536+302390956+301853168+300968301
2778+299744931+298428094+297421323+296970395+296895758+296750672+296285535
2768+295629112+294991284+294381314+293721026+293078505+292609504+292302217
2758+291919842+291254264+290399386+289686903+289294724+289006286+288499389
2748+287789470+287166104+286753253+286376547+285839950+285146713+284434032
2738+283785588+283149222+282457647+281801891+281386079+281278835+281278005
2728+281095438+280662023+280143914+279646297+279087042+278420183+277771143
2718+277264156+276885699+276553732+276180221+275674046+275019717+274355150
2708+273861000+273531614+273151803+272598795+272064419+271799362+271725140
2698+271514517+270994368+270271395+269530386+268899979+268460172+268204828
2688+268012422+267774572+267516105+267280512+266974652+266498917+265973839
2678+265625478+265451199+265211093+264786614+264342836+264045226+263811367
2668+263494295+263160883+262988156+262969704+262900140+262611775+262108453
2658+261510561+260970462+260615349+260472250+260403751+260179388+259675344
2648+258949736+258096699+257184551+256395752+255989834+255990412+256095128
2638+255999078+255675777+255307448+255056202+254921371+254778488+254577542
2628+254437404+254446323+254449410+254190004+253636923+253045730+252687313
2618+252600959+252649706+252738371+252860004+252945438+252820068+252381832
2608+251742921+251144777+250789573+250753320+250965279+251229867+251351103
2598+251283092+251106718+250863434+250528524+250168410+249982214+250089277
2588+250330737+250368471+250022747+249491007+249149164+249127209+249199445
2578+249115709+248874104+248617911+248446448+248402883+248499655+248673140
2568+248800965+248819291+248791866+248855382+249122588+249604605+250162795
2558+250547337+250576747+250309686+249976635+249732485+249535005+249242000
2548+248774281+248200474+247687565+247354424+247183070+247061635+246868326
2538+246542786+246147683+245834149+245701557+245716326+245762997+245748896
2528+245692277+245706306+245826097+245900319+245764405+245463924+245170341
2518+244937294+244708815+244533109+244561761+244798871+245031213+245067178
2508+244887157+244544519+244123634+243812592+243803041+244065914+244350326
2498+244421839+244239219+243930072+243662577+243523955+243463328+243338500
2488+243060317+242697332+242382715+242124392+241795675+241326710+240831928
2478+240515144+240460114+240527999+240490446+240264007+239957478+239687510
2468+239443360+239163732+238860869+238588626+238321781+237964140+237508265
2458+237109677+236931967+236951195+236961793+236757597+236300422+235749725
2448+235339420+235190290+235223023+235264313+235224395+235133382+235027764
2438+234897537+234761208+234690127+234699913+234691499+234567303+234355542
2428+234160572+234034137+233957911+233916422+233919708+233979089+234095739
2418+234231436+234289589+234207550+234062843+233989578+234000917+234003209
2408+233972571+234004004+234176929+234448631+234685975+234774803+234725803
2398+234674203+234725352+234851769+235038380+235423589+236123362+237029371
2388+238005015+239206449+241014910+243684514+247155663+251159455+255454628
2378+260021430+265066585+270790064+277111939+283646605+289906824+295482022
2368+300098239+303601832+305868172+306844196+306818053+306310831+305425946
2358+303735977+301037811+297726118+294503434+292222182+291572673+292663252
2348+295287936+299389204+304750385+310192503+313979280+315371856+314874925
2338+313206911+310822423+308138917+305539978+303145741+300871620+298624743
2328+296269864+293571337+290399729+286958857+283667169+280802216+278318067
2318+275955010+273448961+270727144+267986189+265500614+263333339+261334747
2308+259384108+257472015+255575575+253631814+251658372+249771826+248061202
2298+246538796+245223818+244174530+243398116+242786341+242173175+241440634
2288+240583264+239721145+239052589+238716957+238634701+238524587+238161818
2278+237602798+237081512+236712822+236399523+236034787+235672380+235412522
2268+235226706+235034660+234870166+234804231+234771408+234634881+234383671
2258+234148385+234021968+233919328+233655499+233182021+232679818+232365472
2248+232285292+232344149+232446410+232552823+232643944+232670267+232569072
2238+232355939+232176496+232220585+232550006+233017165+233417992+233728529
2228+234091351+234572846+235072430+235489434+235868993+236350920+237013050
2218+237789951+238559233+239285401+240057175+241014639+242232267+243617929
2208+244969088+246187637+247376361+248697369+250201883+251810300+253404707
2198+254898442+256223838+257350905+258369303+259445384+260660251+261966292
2188+263255777+264420308+265426717+266306926+267012313+267439771+267642107
2178+267801456+268002961+268185925+268239673+268084315+267730899+267219560
2168+266510345+265577580+264540604+263553603+262643406+261716220+260689643
2158+259606196+258556455+257518830+256451902+255458564+254686411+254227900
2148+254124592+254305010+254857928+256527207+260242362+265971853+272751825
2138+279870588+287347732+295368279+303835024+312425839+320927501+329527127
2128+338561612+348026768+357639104+367201538+376653695+385929821+394773506
2118+402656262+409150594+414286544+418303444+421473048+424402708+428037973
2108+433161321+440034905+448436329+457821720+467304606+475641323+481767271
2098+485384554+486761459+486427523+485153059+483409505+480800816+476421600
2088+469483093+459667861+447293807+432883860+416753469+399465606+382020887
2078+365298959+349929852+336376481+324616423+314317801+305453497+298143194
2068+292221965+287429591+283505744+280043784+276815305+273959270+271581932
2058+269660071+268212212+267137214+266323265+266020817+266553947+267951434
2048+270295588+273898643+279008758+285866653+294826645+306107718+319826721
2038+336134118+354711285+374426172+393827597+411569999+426568809+438406935
2028+447347320+453904879+458744447+462400475+464838584+465850428+465482984
2018+463611026+459854869+454214368+447152982+439072855+430059349+420026958
2008+409042592+397447552+385581659+373619246+361774405+350374750+339666183
1998+329784547+320939814+313367920+306962308+301165763+295498542+290021253
1988+285036328+280682099+276989999+273930943+271341501+269093956+267207356
1978+265635083+264227414+262943941+261828518+260907633+260301328+260122282
1968+260108434+259718368+258768234+257652830+256816205+256320574+256022603
1958+255875224+255867768+255881634+255800479+255655791+255581966+255694337
1948+256066367+256832363+258096771+259433667+259821657+258786939+257176391
1938+256076387+255688577+255644850+255694174+255776376+255869790+255979886
1928+256212518+256852855+258077236+259489600+260526702+261330071+262268578
1918+262836462+262291940+261134433+260598342+261148353+262284899+263298241
1908+263834206+263976023+264008341+264111233+264287427+264518885+264894634
1898+265546599+266382791+267022243+267374630+267982072+269097404+269882322
1888+269470987+268311711+267383405+266951253+266799993+266814671+266880155
1878+266798404+266551293+266432621+267067704+269228299+272947408+276487237
1868+277215229+274695350+271261158+269012151+268227198+268204305+268365134
1858+268515455+268670597+268913303+269297881+269890952+270835146+272312289
1848+274613149+277890231+281087494+281834335+279412348+276212430+274508469
1838+274434102+274927820+275456219+276747185+279659820+283414081+285799003
1828+286022878+285430999+284690567+283199576+281192228+279923325+279892235
1818+280450063+280950966+281587476+282936180+284922603+286565468+287025315
1808+286637072+286483483+287445749+289782935+292890558+295373262+296156482
1798+295788605+296065650+298406121+302429827+305388321+304570020+301215106
1788+298762462+298726046+300301929+302293932+304323722+306148196+307279958
1778+308033479+309850624+313968086+319814697+324433351+325110610+322740313
1768+319711750+317438441+317045974+319115195+322283788+324278372+325000514
1758+325817369+326791877+327753710+330154735+335304733+341734827+345890493
1748+346358392+345139138+344554932+345542511+347899737+350528754+352146939
1738+353357598+356599420+362449172+366769422+365411294+360920537+356897391
1728+354115886+352777473+353069991+354512759+357063817+362038722+370321203
1718+379439208+383616937+380686410+374857132+370295060+368565299+369911331
1708+373876414+378937547+383232882+387110149+392771484+400121705+405178939
1698+405825469+403800264+399642035+394498176+391664060+392628384+396257330
1688+401701831+409966402+420451852+426665581+423981064+418001465+414684826
1678+415627196+419834281+424604629+427966730+431170132+435467850+438422931
1668+437373173+435101959+435872414+439922967+443929179+445422824+446080331
1658+449228414+457150022+470641611+485904089+492196644+489462586+488868305
1648+493273087+497476669+496392896+492817862+491782764+494903982+502108431
1638+512860003+524433053+530646674+529240630+526448364+527583881+533072832
1628+540732759+548783096+557289019+566075147+573472419+579431544+586867235
1618+597674162+608845103+615026732+616696408+617957476+620224032+622608953
1608+624321454+625557462+627004346+629154343+632114262+636024641+641267510
1598+647881579+655177312+662332436+669186846+676128856+683194214+689714111
1588+695160201+699808140+704090801+707973304+711454997+715232133+720551698
1578+728163239+736503169+742059536+745079974+749921457+758930919+770433845
1568+781370295+791623781+802853868+815491192+830170619+849447577+873065476
1558+889462676+891373054+888151995+885722082+884235984+883062300+881545870
1548+879858067+879877927+883214029+889274476+895537206+896783324+887367132
1538+872712692+862844127+858849182+855849109+849857052+842839502+839127001
1528+839837119+843092626+847008854+851064317+853813578+852989211+849943786
1518+847712327+845868751+843016653+840499067+840616421+844198353+850865213
1508+858262845+859786786+851807728+841784978+835946167+834673256+836467002
1498+838834735+838709004+835896698+834059188+835917135+840318595+843319390
1488+842071177+837594972+832641696+829194451+827815885+827879003+828855388
1478+831186652+835374924+840810182+845261399+845356221+840466353+834895976
1468+832764394+834480434+837289852+838172642+837870050+839843402+845781078
1458+852525789+852584430+844546732+835648196+830256631+828434864+828729224
1448+828921540+827327981+824367051+821462883+819388499+818904856+821177334
1438+825674193+828333687+825759844+820973969+818491698+818712107+819108510
1428+817966097+816021849+814480070+813705751+814078756+816006250+818055430
1418+817068646+812678380+808009209+805136385+803766774+802868167+802134940
1408+801890988+801903337+801139056+799501445+798792266+800413195+803240161
1398+804891422+804520222+802919225+800879722+799178270+798774284+799718170
1388+800432405+799138045+796692605+796275764+799774139+806127141+812916699
1378+818673759+823421359+827552362+830929484+833226661+834645524+835686616
1368+836677300+838041639+840358026+843370231+845417895+845073633+843075149
1358+841202974+840096597+839177409+838047344+837039473+836416233+836035212
1348+835985454+836646608+838069154+840144622+843155383+847153867+850962563
1338+853018676+853338673+853379765+854276277+856251579+859058252+862078257
1328+864533879+866418259+868753711+872345825+876874099+881590934+886200164
1318+890669003+894840015+898612674+902086784+905417759+908831567+912615131
1308+916707282+920525221+923588845+926151350+928708222+931036813+932481314
1298+933031325+933172078+932971240+932264733+931346772+930539449+929456904
1288+927493085+924697244+921619826+918667345+916043889+914030745+912906169
1278+912558079+912509765+912440797+912437403+912769172+913612315+914867677
1268+916157921+917201324+918221834+919695294+921629720+923426716+924600328
1258+925414512+926581624+928426067+930549560+932160884+932506951+931281848
1248+929044396+927029663+926102386+925852296+924999115+922815970+919865944
1238+917155538+915026917+913261769+911638024+909820663+907333914+904156041
1228+901078479+899109388+898521102+898645172+898689947+898572665+898574543
1218+898492142+897917072+897118270+896813511+897376666+898847887+901323081
1208+904773720+908620763+911927473+914195762+915907975+917996658+920826947
1198+923953040+926641709+928409890+929364971+930205153+931594118+933453294
1188+935159151+936366344+937382810+938971241+941869703+945953548+949861254
1178+952067653+952532519+952673272+953689810+955621925+957637525+958741663
1168+958829913+959110913+960702232+963107736+965070183+966460881+968162188
1158+970654425+973727799+977034797+979886463+981107088+980440518+979284455
1148+979226681+980999700+984621352+988904518+991406505+990827101+988883069
1138+988500965+990892530+994919901+998615359+1001046139+1003029024+1005515555
1128+1007469914+1007061522+1004800960+1003376030+1004166743+1005921275
1120+1007275937+1008892099+1012258100+1017192671+1021546033+1023574704
1111+1023772653+1023525596+1022997178+1021790563+1020947203+1022535273
1103+1027072358+1032346497+1035233910+1034455474+1031082324+1027351479
1094+1026059503+1028913479+1034266047+1038405211+1039514043+1039141544
1085+1039390623+1041419222+1046061239+1052076261+1055397703+1053717700
1077+1049791072+1047084998+1045918320+1045622732+1046246694+1047435255
1068+1048891744+1051004909+1052805155+1052200548+1049945980+1050038924
1060+1054822343+1061608002+1065210515+1063917672+1061240846+1061407525
1051+1065096339+1069800608+1072982164+1073741823+1072557017+1070555428
1043+1068641584+1066916445+1064864087+1061868564+1058280638+1056074528
1034+1056937025+1059568137+1060940637+1060398859+1060290821+1062066874
1025+1063918250+1063576082+1061852170+1061177006+1061712573+1061323608
1017+1059355528+1058240846+1060664981+1066201922+1070613780+1069395249
1008+1063259334+1057711850+1056616234+1058837871+1061114393+1062079151
1000+1062273417+1062123493+1061379216+1059606629+1057119809+1055360510
991+1055257528+1055780313+1055484797+1054380081+1052870440+1050691051
983+1047835991+1044286125+1039458075+1034096407+1030866393+1031092001
974+1032555423+1032478511+1030888058+1029001295+1026807102+1023336819
965+1017754598+1010587341+1003919325+999327355+996125867+992842845+989880253
955+988933116+989846527+989812729+986629657+981591236+977655582+975918310
945+975153668+974259106+973627489+973585386+973135974+971659697+970391408
935+970419140+970811283+970164283+968541043+966628715+964392418+961960339
925+960800882+962539742+966501901+969422967+968787739+965810054+963508617
915+962805865+962081232+960088236+957946617+957589789+959056821+960495906
905+960619687+960014141+959825941+960082603+959790410+958505872+956977309
895+955694360+953935567+951221694+948438563+946613908+946007351+946726857
885+948683454+950692120+951313844+950906680+950895414+951262858+950662367
875+948840528+947394510+947834245+949788964+951358474+951218299+950092279
865+949421159+948978247+947295283+944473733+942426286+941880969+941304021
855+939253757+936265239+933912455+933062162+933617662+935168972+937250723
845+939172873+939964597+938930943+936826227+936234258+939289793+944474961
835+947327059+945563355+941763254+939575776+939708585+940555411+940488898
825+938774953+935935204+933814383+934235557+937427440+941995940+946237075
815+949498504+952370101+955668073+959218589+961532593+960672912+955997530
805+949916501+946599825+947509337+949674138+949689665+948156769+948363096
795+951275063+954346703+955502188+955694360+957000130+960012697+963482835
785+965392852+964516994+961630665+959021290+958308862+959155110+960188402
776+960403395+959463697+957768022+956499733+956269791+955881693+953883426
766+951283151+950632252+952162042+953503777+953392634+953703387+957179086
756+963704327+969285537+969780012+965564225+960703965+958338687+958648646
746+960631675+963566030+966154389+966763040+965725270+964984966+965420511
736+966273693+966968789+967999843+969411196+969741520+967377109+962637886
726+957992403+955719492+956515982+959923146+964666918+968349016+968123841
716+963886388+958312978+952915635+948586538+948127882+953117773+959589933
706+961241266+956825146+950342081+945298244+942403970+940878008+939884579
696+939217287+938748593+937732633+935628133+932967123+930188398+927169694
686+924541759+922848757+921136039+918949934+918010235+918608704+917952317
676+915028001+912962065+913462318+912205367+903489687+890732626+886845575
666+893635133+900213598+900198649+896675936+896611590+902414725+909767005
656+912340487+908737829+904205510+903578732+905082957+904178934+900845504
646+897226019+891893961+883462170+875455091+871942850+872862760+876356297
636+880799571+882621049+878242194+870143760+865048215+865663149+867786281
626+865708358+859529979+854841309+854528967+854720272+850753275+843844847
616+839201313+840917064+848442233+856487081+859907245+859756815+861103533
606+864351168+864661922+859869981+853337518+849122164
##END=
