##TITLE=<SNM>
##JCAMP-DX=4.24
##DATA TYPE=INFRARED SPECTRUM
##DATE=3/5/2025
##SAMPLING PROCEDURE=Instrument type and / or accessory
##ORIGIN=Admin
##XUNITS=1/CM
##YUNITS=ABSORBANCE
##RESOLUTION=4
##FIRSTX=4497.3318
##LASTX=599.83466
##DELTAX=-1.4281778
##MAXY=1.7160919
##MINY=0.18644185
##XFACTOR=1
##YFACTOR=1.5982351e-09
##NPOINTS=2730
##FIRSTY=0.20112434
##XYDATA=(X++(Y..Y))
4497+125841524+126303653+126977500+127507775+127745851+127802566+127866683
4487+127846041+127555968+127315580+127644383+128345026+128713519+128609366
4477+128552176+128846743+129280472+129651408+130016116+130339884+130302730
4467+129664536+128716922+128144785+128366787+129081574+129463064+128874639
4457+127584022+126596597+126435599+126397223+125569781+124251268+123636364
4447+124279929+125503351+126253101+126071525+125190295+124135004+123503980
4437+123759668+124697781+125341718+124980153+124065274+123510739+123535670
4427+123710384+123696566+123508520+123295693+123050661+122497759+121477170
4417+120426233+120015775+120308766+120811798+121308424+121938273+122426005
4407+122118273+121085023+120278558+120189621+120284180+120090876+119815226
4397+119594436+119212377+118760812+118659577+118957743+119315244+119551306
4387+119691410+119678655+119443069+119158432+119182943+119639161+120077870
4377+119865527+118996585+118112735+117662894+117543795+117547264+117611372
4367+117651230+117616267+117638839+117798355+117909268+117762954+117375403
4357+116920248+116654836+116823433+117335191+117709241+117635045+117384158
4347+117477431+118172377+119284821+120255594+120518060+120019225+119184752
4337+118371359+117704626+117333988+117390293+117733025+118097948+118450693
4327+118921614+119409588+119564452+119273996+118831857+118446386+117993562
4317+117505084+117388867+117789787+118231432+118268493+118056160+118006269
4307+118242937+118582211+118809909+118875873+118981732+119421550+120105971
4297+120475993+120288572+120186992+120887150+122017663+122510569+122068495
4287+121480359+121440696+121667006+121466122+120727728+119888686+119327812
4277+119302405+120007841+121181344+122158970+122697925+123218913+124036511
4267+124880447+125330409+125303874+124923922+124189183+123097428+121972323
4257+121252007+121049389+121315174+122125993+123389562+124668262+125581295
4247+126002373+125912662+125532552+125322530+125454132+125620174+125572969
4237+125500395+125760465+126394874+126924654+126748440+125889008+125130401
4227+125231664+126103878+126835708+126643001+125857868+125665235+126623281
4217+127854180+128203654+127806742+127725712+128311909+128876699+128870975
4207+128455155+127929412+127448487+127225617+127322405+127436702+127360323
4197+127337938+127604823+127939938+128030553+127946297+127902308+127831189
4187+127602641+127446855+127690889+128213080+128587167+128681679+128821662
4177+129393800+130433334+131603127+132547580+133193615+133652220+133962982
4167+134094704+134094704+134003716+133619485+132687190+131509658+130956709
4157+131487189+132532410+133244018+133446310+133481777+133538883+133500862
4147+133258460+132938440+132782560+132838305+132882303+132718181+132453552
4137+132408249+132742702+133216411+133454198+133468220+133687929+134394073
4127+135335719+135962912+135873966+135047259+133873289+133040346+133101638
4117+133941482+134908246+135562691+135916248+135967956+135611033+134995458
4107+134485555+134383584+134933363+136146352+137457070+138088887+137844750
4097+137126719+136327787+135599985+135089756+135049226+135615536+136594738
4087+137603710+138455795+139261859+140063839+140516654+140145886+139025825
4077+138011604+137942787+138676035+139293792+139231007+138779964+138537655
4067+138785008+139366552+139867188+139964413+139741208+139547382+139593645
4057+139847757+140172365+140383011+140358220+140196923+140067913+139944675
4047+139751446+139579464+139479264+139360492+139306882+139527495+139867300
4037+139879653+139487842+139130155+139225628+139841287+140780080+141684489
4027+142192779+142287748+142380461+142815999+143451574+143938345+144176756
4017+144245573+144115893+143709182+143071576+142329256+141649405+141335780
4007+141719844+142774911+144004980+144894937+145353411+145551033+145501786
3997+145108660+144508319+144036680+143876204+143973774+144258897+144739999
3987+145349206+145821060+145860088+145453779+144935550+144696523+144908988
3977+145506513+146289147+146982788+147302640+147093607+146477566+145893970
3967+145913148+146803665+148180822+149217195+149392524+148941891+148424072
3957+148100220+147900734+147727373+147623257+147730804+148082366+148450532
3947+148564839+148441274+148331853+148406796+148564363+148567356+148411159
3937+148414786+148797628+149350680+149702866+149742454+149631159+149539434
3927+149486840+149380310+149215536+149190940+149436055+149813788+150194803
3917+150645715+151121261+151344895+151266568+151191971+151260461+151245012
3907+151081664+151096834+151398971+151559960+151398859+151415968+151904744
3897+152423933+152554061+152444733+152358323+152213650+151943837+151960666
3887+152608958+153535118+154113782+154369609+154642536+154784478+154626547
3878+154485976+154567864+154705498+154955303+155582906+156281097+156408195
3868+156094048+155963883+156126699+156263830+156225146+156083867+155997289
3858+156313170+157412085+159038124+159924771+159538722+159055764+159137979
3848+159476590+159620899+159447258+159179356+159238132+159869389+160727171
3838+161110647+160949798+160907245+161292157+161865124+162512269+163380717
3828+164326680+164949565+165355492+166015820+166649688+166460720+165953371
3818+166296365+167365529+168181094+168507230+168805433+169353991+170280748
3808+171499517+172520087+173155354+173683083+173967227+173837574+174060387
3798+175169437+176532255+177419592+178063958+179026592+180262890+181352845
3788+182244732+183352496+184949296+186820711+188685264+190588248+192761708
3778+195456500+198870845+202994167+207607794+212455255+217262587+221855702
3768+226503006+231630582+237202741+242958312+249017791+255600879+262396637
3758+268934058+275530050+283045172+291950542+302111359+313025330+324006597
3748+334789423+345652245+356212164+364889704+371623852+378912860+388502202
3738+400153756+412618543+424719303+435668237+444834254+451877420+457106231
3728+461361108+465334490+469121401+472575874+475765372+478991866+482689719
3718+487039435+491846115+497447866+504899327+514173423+523360026+531525146
3708+539811099+548808212+557829528+566010386+572839932+578214078+582168328
3698+584891128+587241250+590355265+594483268+598772977+601965720+603320836
3688+603783133+605212539+608164288+611580385+613923830+614505468+614051712
3678+613479733+612544361+611033468+609975436+610054052+611365981+613683097
3668+616049628+617462587+618180274+619669947+622881225+627149118+631376919
3658+635437569+639415874+642199575+642472941+641000348+640826409+644392241
3648+649903629+653842849+655993149+658239369+661366997+664436744+666486573
3638+667819612+669064188+670266847+671588846+673263423+674470855+674091947
3628+673273418+674246046+677109557+680656593+683304246+683643846+682743717
3618+684120389+689062595+694911420+698354406+699017792+699506195+701602567
3608+703797098+703869896+702662464+702880112+705749292+710087558+713527113
3598+713981429+711236215+708302740+709291032+714875889+721694433+725642754
3588+724679598+719824063+714213995+711033634+711614749+714738498+717867244
3578+719731574+720953923+721883887+721638045+719798554+717358032+715400691
3568+714013651+712819049+711416643+709783015+709465195+712741328+719469023
3558+726122728+729415419+729644702+728881965+728013610+726971540+725588752
3548+723639765+721573302+720880976+722631036+726009727+728977736+729951782
3538+728981167+727844594+728604050+731598985+734815820+735568712+733351954
3528+730519621+729357688+729485979+729096405+727943199+727747256+729386404
3518+731208292+730789182+727712722+723797370+721016726+720649529+723380646
3508+728030169+731125052+730155556+726378565+722957806+721849055+722803558
3498+723689888+722228783+719250928+718614095+722548169+728828261+732999376
3488+732770764+729588090+726211935+724146069+723390492+723531314+724357452
3478+725668263+727129891+728667151+730649329+732925758+734519556+735067704
3468+735544471+736772041+738052122+738299008+737181381+734704609+731099543
3458+726902546+722717036+719545849+718808994+720842936+724096617+727153162
3448+730419449+734163472+736427146+735496883+733168840+732596227+734374631
3438+736909955+739063536+740413282+740062271+737497559+733833345+730490457
3428+727705711+725487088+724758586+726049781+728530058+731473006+734723703
3418+737048465+736443854+733178760+729919187+728144363+726987800+726045231
3408+726783727+729732418+732508437+732806864+731677974+731687521+733448918
3398+735702672+736991778+736348157+734286766+732700278+732729516+733421992
3388+732839161+730619345+728459349+727853544+728543037+729486650+730436902
3378+731173534+730204784+726752997+723113621+722597770+725901873+730285712
3368+732295563+731518877+730706762+732062550+735282965+739060553+741705819
3358+740775183+735543575+729483219+726929622+728428245+731481210+734189951
3348+736125363+736761972+735574007+733624126+733104769+734776735+737041752
3338+738066816+737549473+736355541+735824027+737007068+739462209+741071000
3328+740124030+737063308+733523805+730847361+729719589+729794997+729658427
3318+728848773+729312562+732566765+736496289+737661952+736162209+734667911
3308+733930459+732867057+731505377+730991241+731829537+733941946+737236576
3298+740852457+742843063+741875954+738749371+735586016+733878173+733527833
3288+733526266+733213817+732819097+732776059+733136245+734010865+735485322
3278+736743847+736487711+735018699+734715499+737072184+740479293+741994251
3268+740583045+737576697+734793965+733400436+733668506+735036153+736324214
3258+736381871+735138189+734045548+734665674+736446464+737293337+736702600
3248+736314816+736901079+737002817+735199128+732145865+729772174+729211569
3238+729688337+729474492+728304429+727897178+729264900+730994001+731330990
3228+730617779+730386033+731479122+733759652+736094856+736223595+732708557
3218+727383639+723720917+723328136+725145475+727277128+728865108+730412587
3208+732438772+734173691+734265732+732381488+729251698+725718162+722662811
3198+721250634+722369903+726134289+731707734+736717443+737919131+734230452
3188+728369992+724236694+723274955+723979738+724412572+724325155+724487608
3178+724799908+724098333+721582253+717798996+714429331+713122249+713995899
3168+715325581+715268447+713630791+711429622+709437001+708029748+707785099
3158+709013639+711118067+713189229+714817935+715789743+715792055+715159548
3148+714951522+715450069+715218398+712673900+708485929+705209722+704361058
3138+704994460+705458697+705367252+705132523+704844091+704638228+705085458
3128+706227401+706987902+706284610+704348677+702390367+701042560+699888086
3118+698636498+697719587+697371036+697144811+696824828+696827513+697255425
3108+697438240+696599796+694546759+691912755+689772749+688632744+688096829
3098+687720980+687387571+686693230+685015297+682436638+679920782+678467284
3088+678515095+680072569+682619155+684711201+684867538+683328115+681833146
3078+681344519+681049822+679949051+678447145+677625856+677717226+678004316
3068+678008716+677976644+677988727+677640997+676838877+675818288+674350246
3058+672109769+669786499+668736896+669521040+671266252+672367694+671673802
3048+669226641+666188519+664054927+663549295+664116761+664684003+664829450
3038+664872264+665047023+665116763+664586890+663101393+661152481+660062750
3028+660481711+661290917+660874417+659125326+657256895+656170818+655802204
3018+655421879+654125613+651610950+648622057+646333247+645431477+645961052
3008+647446325+648718723+648558881+647268283+646604524+647460347+648645850
2998+648620714+647408807+645885718+644235009+642122824+639624795+637216719
2988+635329416+634283617+634144510+634433241+634531697+634433986+634576599
2978+635037180+635307637+634802377+633485823+632127201+631796254+632678108
2968+633439131+632372670+629297105+625715609+623159327+622163091+622640156
2958+624076984+625198714+624512951+621736783+618219768+615674935+614755301
2948+614842084+614946470+614602358+613916185+613223336+612896193+613114736
2938+613721659+614412718+614819932+614404849+612839767+610543499+608312979
2928+606486802+604822406+603052394+601289057+599823550+598682241+597606159
2918+596374635+594858185+593107192+591630311+590832405+590170361+588878831
2908+587326056+586502977+586414478+586010509+584658003+582972835+582067410
2898+582340328+583166130+583685524+583616866+583172134+582470372+581260181
2888+579351621+577181555+575401921+574023831+572708433+571657935+571231254
2878+571058135+570533892+569694478+568843652+567935393+566979174+566420733
2868+566488496+566638866+566165716+565004790+563455372+561548639+559407999
2858+557749794+557163308+557237187+557087004+556454348+555652712+554681352
2848+553104373+550931026+549060991+548324657+548335174+547930683+546701695
2838+545346392+544466962+543845680+543047961+542061160+541146300+540457517
2828+539844291+538915893+537495251+535955790+534768796+533846029+532785461
2818+531590336+530670777+530266920+530220750+530128037+529493367+528055160
2808+526152642+524459119+523263248+522398400+521782004+521441323+521095234
2798+520376018+519410215+518572479+517819512+516848114+515688307+514612709
2788+513635382+512523012+511243230+510059443+509128061+508267091+507271713
2778+506228599+505233109+504059838+502550810+501126625+500400920+500352102
2768+500273971+499563594+498298021+496996198+496007645+495195903+494178782
2758+492894823+491804383+491346412+491365917+491259629+490441024+488614996
2748+486053157+483603871+481928399+480823003+479687847+478388075+477250122
2738+476516175+476163859+476006776+475688248+474757836+473077851+471147176
2728+469668095+468732126+467799812+466563627+465403111+464744684+464319122
2718+463442153+461964936+460515876+459602358+458899851+457801765+456327942
2708+455019965+454097907+453180959+451913185+450565005+449764041+449717983
2698+449945440+449748229+448797156+447329747+445889601+444807850+443980146
2688+443190855+442406598+441643264+440842971+440032646+439381418+438951529
2678+438513884+437749915+436624344+435414040+434336541+433330683+432268885
2668+431194704+430246093+429464820+428785547+428167249+427631557+427145131
2658+426586093+425895370+425137891+424383097+423665336+423026042+422448133
2648+421801044+420944102+419848030+418632393+417523828+416701494+416115903
2638+415500216+414640887+413660837+412944120+412714985+412795615+412820453
2628+412495771+411659564+410399846+409124539+408215198+407616107+406989530
2618+406222988+405559303+405205271+405014661+404702100+404239131+403804842
2608+403434773+402980905+402359959+401626497+400823370+399909144+398895977
2598+398005246+397518484+397396943+397282077+396986746+396681867+396489542
2588+396258729+395875234+395441691+395012623+394453697+393719452+393043908
2578+392667387+392511461+392286503+391833754+391226010+390624494+390154403
2568+389838634+389594918+389352693+389150149+389059450+389058704+389005299
2558+388710042+388103417+387394793+386964644+386989295+387245430+387369582
2548+387251509+387088684+387065412+387093233+386959907+386645108+386347987
2538+386243489+386349329+386615907+386986871+387304131+387285410+386769409
2528+385962627+385279102+384928575+384798270+384687880+384490594+384203281
2518+383918839+383752210+383682544+383562719+383331868+383101242+383019083
2508+383138984+383359354+383411305+383055109+382383928+381772978+381465227
2498+381385381+381356515+381249929+380947437+380417041+379813884+379349126
2488+379122192+379120812+379236125+379267527+379063565+378682085+378353972
2478+378270993+378364862+378333236+377998522+377520077+377108649+376798176
2468+376660599+376834165+377144936+377142960+376685660+376098354+375706244
2458+375567473+375630537+375819208+375979386+375960850+375751556+375450183
2448+375175252+375027082+375019847+375013134+374837256+374523277+374257744
2438+374077128+373808574+373369511+372892371+372467704+372016931+371532220
2428+371198774+371140708+371226708+371244049+371137612+370994179+370882894
2418+370790703+370690419+370600914+370545569+370500071+370431002+370357868
2408+370355966+370510811+370805844+371032443+370961659+370667372+370492351
2398+370622097+370859548+370887668+370632241+370309125+370168937+370203769
2388+370075217+369331574+367681201+365032503+361336776+356537816+350710995
2378+344127851+337118883+329940825+322753219+315627447+308672910+302243641
2368+296822896+292616315+289452643+287121336+285726800+285785911+287953199
2358+292480527+299054012+307459791+318074905+330661420+342809917+350979624
2348+353032549+349589936+343752673+338807744+335496705+332600524+329312756
2338+325754420+322260304+318990884+315993861+313435005+311659640+310959165
2328+311331099+312431664+313758456+315080828+316667913+318857894+321532399
2318+324241027+326663462+328792840+330834241+333023811+335446171+337977579
2308+340423135+342682408+344734923+346497551+347829247+348740900+349446205
2298+350105974+350696040+351245754+351972242+352967396+353934356+354476500
2288+354548552+354428316+354366333+354458487+354698436+354924289+354861561
2278+354430777+353889715+353542694+353434168+353377780+353177212+352812551
2268+352457437+352301511+352382775+352605569+352831832+352950577+352966799
2258+353010881+353177511+353387737+353471052+353367226+353207905+353165577
2248+353238002+353279398+353263772+353371999+353745648+354253929+354606768
2238+354699481+354739087+354925147+355143131+355177665+355085772+355106023
2228+355345637+355745504+356169164+356437532+356493734+356540576+356813829
2218+357289701+357750208+358023387+358100361+358135604+358326662+358710567
2208+359132996+359445558+359646572+359854151+360213852+360790194+361503629
2198+362197261+362750742+363127300+363387911+363674068+364099220+364648524
2188+365208307+365694249+366166913+366785696+367579388+368339067+368854993
2178+369168673+369484032+369923803+370453789+371001452+371615461+372442531
2168+373490046+374575563+375642993+376897267+378478497+380277002+382215956
2158+384451212+387151188+390241298+393431318+396428715+399147749+401723909
2148+404260091+406638294+408730826+410686712+412791923+415135294+417608374
2138+420122999+422662910+425224413+427825039+430498984+433264188+436151791
2128+439199870+442352373+445439387+448249195+450520327+451928401+452237531
2118+451502951+450052175+448202614+446055708+443635101+441066549+438445412
2108+435682446+432673227+429473659+426188949+422844457+419421088+415925070
2098+412440613+409105295+405958088+402906280+399948340+397266936+394975776
2088+392946757+390999635+389108939+387346460+385743152+384291593+383025759
2078+382027882+381338427+380864607+380417824+379878440+379291395+378766145
2068+378344723+377997851+377664890+377289413+376896707+376575755+376322826
2058+376045583+375764124+375594399+375523503+375434893+375326703+375294704
2048+375355195+375419043+375395659+375304475+375330357+375684725+376355720
2038+377117525+377815036+378493153+379233365+380028101+380841074+381629358
2028+382263320+382592999+382643010+382546531+382248812+381525569+380355804
2018+379026682+377816863+376785720+375892789+375124942+374459355+373811222
2008+373072576+372197099+371237859+370292194+369437563+368730580+368187467
1998+367734643+367273129+366815158+366480370+366357076+366387843+366355845
1988+366023965+365385193+364726244+364328504+364171421+364027242+363749663
1978+363389551+363104066+362981667+362920243+362738770+362423226+362112156
1968+361844459+361538797+361232054+361085600+361113198+361113496+360922327
1958+360605887+360344269+360197927+360064974+359854599+359606295+359406809
1948+359303243+359326366+359442350+359453949+359162123+358682559+358358958
1938+358332256+358425827+358432129+358338931+358258824+358260875+358322224
1928+358396364+358484938+358619159+358797760+358982850+359116475+359091376
1918+358820025+358434180+358233762+358324126+358511342+358582424+358531331
1908+358470729+358441415+358385586+358270348+358172190+358182893+358260427
1898+358281685+358215824+358143996+358160256+358309059+358513766+358539797
1888+358200645+357627846+357196988+357218469+357694528+358295857+358640416
1878+358638253+358500116+358439924+358485982+358547554+358527453+358381559
1868+358179910+358068512+358107000+358233613+358374062+358491278+358561092
1858+358588317+358623933+358696619+358779449+358861906+358977480+359161228
1848+359433549+359753383+359967898+359968383+359880742+359857955+359902037
1838+360077729+360558039+361316264+362036859+362452427+362612456+362807093
1828+363219565+363693871+363967162+364022543+364086875+364324364+364691300
1818+365057602+365383888+365774990+366319036+366919246+367404740+367798677
1808+368322173+369091214+369964006+370744048+371426305+372140635+372928360
1798+373752260+374651904+375674544+376738282+377722919+378676491+379777224
1788+381101349+382547500+383929431+385186464+386532331+388245209+390281240
1778+392259390+393930462+395438894+397003640+398561188+399934206+401174643
1768+402407957+403664356+405011752+406556956+408298849+410134350+411988124
1758+413829853+415627575+417387929+419162938+420966590+422741264+424418079
1748+425999346+427574460+429250529+431051980+432871184+434558813+436124790
1738+437796980+439791689+442125588+444588449+446896577+448992092+450989374
1728+453034691+455303922+457860876+460539185+463171062+465866340+468844120
1718+472040555+475075842+477786970+480404974+483110433+485905099+488794530
1708+491860100+495084505+498231824+501128937+503901562+506815943+510164276
1698+514200274+518913010+523777832+528071830+531784265+535536270+539801515
1688+544576718+549603209+554611836+559275829+563552821+567896607+572649248
1678+577755138+582918497+587854140+592539316+597297103+602627652+608812943
1668+615329704+621260389+626395256+631165313+636082010+641403721+646982312
1658+652411504+657438442+662342460+667877343+674103061+679640704+683860375
1648+687220494+690526909+694569732+699196729+703619131+707399702+710532998
1638+713100096+715121806+716845015+718694277+720508408+721563009+721295387
1628+719956606+718512357+717557779+716852847+716095255+715390622+714579626
1618+712902587+709876847+706213752+702786728+699637768+696717943+694162332
1608+691909473+689697265+687329094+684789071+682307302+680256130+678812030
1598+677779283+676784875+675688132+674775994+674355243+674215316+673759956
1588+672638897+671103426+669729216+668858922+668436679+668297423+668286384
1578+668148023+667815882+667879655+668946190+670923818+673625921+676996929
1568+680692321+684299774+687885297+691751496+695976388+700560348+706134539
1558+713831060+723202604+732652840+741137607+748363402+755059025+762121770
1548+769416783+776334156+782830032+788955504+793975356+796999977+798774726
1538+801148343+804159911+806714702+808528311+810436125+813129203+816240495
1528+819108034+821465539+823503733+825627331+828157135+831208608+834731477
1518+838665924+842971372+847337534+851073278+853631724+855183902+856459284
1508+858078442+860237170+862725727+865097553+866961211+868066681+868447378
1498+868710301+869906918+872439780+875431433+877743067+878914995+879285176
1488+879527736+880008904+880903961+882401839+884350974+886295859+888108274
1478+889906295+891306537+891710953+891426027+891665455+893090982+895175122
1468+897245538+898994032+900182369+900784668+901404868+902712099+904465068
1458+905360423+904605144+903764909+904237574+905321488+905921624+905818170
1448+905592914+905838682+906481258+906909990+906760665+906285464+905747759
1438+904868962+903565834+902924898+903865902+905743582+907330518+907932295
1428+907650874+907163739+907384744+908884412+911128991+912616948+912195973
1418+910620225+909873897+910379455+910895754+910426818+909158299+907877696
1408+907076695+906769765+906601942+905938779+904413900+902488036+901032599
1398+900351983+899918626+899234504+898299319+897037885+895179001+892681419
1388+889789341+887106780+885781126+886892116+890424607+895128281+899462371
1378+902707400+905094293+907074308+908903133+910824373+912945882+914883755
1368+916123707+916637320+916791345+916990570+917672678+919071055+920810971
1358+922235231+923076510+923709911+924831194+926690377+928744085+930345416
1348+931427689+932170661+932520032+932551210+932828827+933861648+935398610
1338+936762527+937915883+939465450+941433755+943005401+943658792+943673859
1328+943647455+944216636+945782837+947948204+949681034+950183608+949277960
1318+947464574+945953420+945878533+947206052+948767255+949450631+949163691
1308+948568403+948209784+948210530+948645080+949628673+950762113+951052932
1298+950011161+948510076+947806113+947871154+947432651+945633512+942996898
1288+940603515+938767903+936890073+934490127+931842847+929301631+926591249
1278+923398432+920148032+917585633+916018239+915207243+914489035+913048291
1268+910674749+908151733+906514524+905901560+905205653+903110996+899548072
1258+895537695+891848419+888780835+886736674+885836769+885424595+884785525
1248+883911203+883276682+883353806+884254308+885466588+886264233+886618378
1238+887323235+888976256+891088963+892520905+892766151+892387020+892291249
1228+893064802+894670086+896327732+897141712+897228980+897590732+898910419
1218+901166857+904044540+907142705+910132867+912795587+914739501+915700643
1208+916200383+917023388+918218140+919537230+921381645+924210248+927413657
1198+929808531+931124265+932258004+934027606+936150607+937739035+938578822
1188+939416073+941056787+943565259+946365146+948821705+950679097+952092467
1178+953307581+954601535+956444234+959067123+961927278+964122778+965274716
1168+965620805+965534581+965706209+967134794+970012701+973349473+975996455
1158+977350378+977592938+977698331+978802981+981153326+983677834+985181455
1148+985962541+987294834+989422832+991671662+994327893+997957274+1001059616
1138+1001413611+999635954+998446274+999039174+1000461495+1001444193+1001712188
1128+1002504164+1005426525+1010101482+1014088513+1015757347+1015958511
1120+1016065097+1016151694+1015924946+1016008634+1017483091+1020066450
1111+1021771981+1021741400+1021628921+1022679121+1023795332+1024186024
1103+1025632361+1029923638+1035735914+1039851684+1040735031+1039737415
1094+1039055083+1039527524+1040531405+1040981470+1040124676+1038222755
1085+1036921118+1037921195+1040876823+1043654707+1044992518+1045723258
1077+1047276331+1050003122+1052125004+1051109114+1047681866+1045875194
1068+1047984694+1051905491+1054366450+1055300367+1056995158+1060094069
1060+1062271742+1061114658+1057580301+1054870442+1054600358+1056100399
1051+1058458651+1061059537+1063256827+1065486862+1068912319+1072642544
1043+1073741823+1070823713+1065539894+1060438964+1057100029+1056221829
1034+1057674208+1060254881+1062568827+1063770068+1062757162+1058864484
1025+1054255165+1052609006+1055177446+1059863144+1063452024+1063870463
1017+1061364006+1058663619+1058394803+1059762599+1059591494+1056754313
1008+1053924143+1054106585+1056721942+1058060126+1055904009+1052247254
1000+1050051679+1049554922+1049103739+1047730199+1045704611+1043568408
991+1041507241+1039403857+1037214250+1035083492+1033006363+1031051260
983+1030105782+1031140617+1033412420+1035071334+1035378115+1034342310
974+1030938408+1024246813+1015887652+1008862947+1004583381+1002139204+999503858
964+995351316+990677179+987612131+985917266+983016237+978107372+973291145
954+970451950+969415175+969016651+968331411+966689876+963502280+958951586
944+954622196+952396189+952304819+952342262+951254842+950235074+950881529
934+952840063+954111417+952970890+949722132+946747186+946328150+948509181
924+951413342+953348157+953989614+953778754+953200920+953016389+954075838
914+955755114+955541792+951719974+946057023+942190526+941807740+943504992
904+944767320+944301145+942657969+941247210+940828622+940713383+939697643
894+937886271+936670635+936536824+936196478+934572398+932427841+930953085
884+929866113+928277462+926479218+925687092+926391278+927732298+928684937
874+928898333+928271569+926926150+925673965+925898475+928378752+932219367
864+935370415+936287625+935005008+932691286+930425524+928498019+926472803
854+924298113+923339656+924815829+927770561+930226672+931507946+932041624
844+931864328+930860223+929521143+928417837+927804051+927708579+927781675
834+927394115+926407912+925823439+927193399+930640934+934044612+935098318
824+933762446+931937947+931290597+931919076+932641088+932724403+933172827
814+935237052+938289718+940513562+941044480+940554436+940316649+940932971
804+941484027+940447253+937696743+934728137+933363176+934831367+938950569
794+943893297+947745473+949995199+951074190+951780614+953116934+955217707
784+956501219+955025270+950813057+945953569+942536987+941286518+941744265
774+942824897+943271009+942369463+940719425+939819669+940154644+940201933
764+938565769+936549280+936509077+938186414+939318437+939406004+939968323
754+941637231+943536468+944724059+944701906+943323817+941507597+941057234
744+942617095+944781492+945830051+945207390+943554518+942419959+943208728
734+945620832+947610245+947819539+947303166+947345681+947172935+946089469
724+945800141+947606590+949143030+946981244+941753813+937569645+937187903
714+939775438+942519310+943603000+943265638+942289803+940787076+938724641
704+936477526+934335058+932349151+930950997+930671441+931068026+930406280
694+927025426+921552377+916811931+914430334+912500293+908718006+904431801
684+902096672+901028944+898780635+894617278+889318914+883445699+877883591
674+874252494+872572696+869805851+863450201+857976704+861774654+871787209
664+878132641+878023891+875978239+876635061+879140177+879515653+876352149
654+872053787+868808310+866588942+864732594+862942703+860692828+857803062
644+855855941+856310033+857376941+855782024+852101400+850893521+854347397
634+858167276+856320401+849564809+843706213+841557256+841587241+841699421
624+840505639+836675690+830997225+826704979+825700278+827652919+832760413
614+840428813+845302548+842164851+835230248+832884751+836939135+842614244
604+844867699+842218032+835887369+828382092
##END=
