##TITLE=<SNM>
##JCAMP-DX=4.24
##DATA TYPE=INFRARED SPECTRUM
##DATE=3/5/2025
##SAMPLING PROCEDURE=Instrument type and / or accessory
##ORIGIN=Admin
##XUNITS=1/CM
##YUNITS=ABSORBANCE
##RESOLUTION=4
##FIRSTX=4497.3318
##LASTX=599.83466
##DELTAX=-1.4281778
##MAXY=1.8520775
##MINY=0.3314445
##XFACTOR=1
##YFACTOR=1.7248816e-09
##NPOINTS=2730
##FIRSTY=0.34868592
##XYDATA=(X++(Y..Y))
4497+202150644+203128244+203687599+203882805+204090865+204378870+204265510
4487+203268817+201693108+200773924+201664565+203959415+205700819+205556722
4477+204425641+204065674+204899021+205966311+206339168+205857201+204990767
4467+204324583+203973721+203616552+203153401+202959266+203233328+203493689
4457+203239808+202814841+202846459+203092980+202807359+201971489+201265964
4447+201156266+201648980+202417432+202753331+202020006+200515015+199483369
4437+199968480+201674016+203113644+203092894+201866042+200611753+200216694
4427+200689780+201238924+200959868+199798431+198497077+197580036+197074035
4417+196976623+197207801+197393521+197252844+196941324+196822590+197123519
4407+197697992+198030678+197778092+197213140+196742248+196255443+195442397
4397+194448849+193681987+193241626+193045711+193254308+194077236+195353883
4387+196638460+197457207+197402333+196430969+195112545+194158615+193769949
4377+193731955+193889253+194204540+194556733+194789552+194925961+195152837
4367+195481912+195516831+194861376+193738382+192801592+192368418+192223923
4357+192154932+192268189+192708913+193354882+193902470+194196143+194316311
4347+194290791+193992886+193516724+193282039+193448908+193640088+193577922
4337+193495870+193588929+193602094+193323194+192995623+192891817+192924628
4327+192948783+193010620+193152593+193366735+193801723+194597042+195470336
4317+195904166+195794469+195517107+195392430+195464980+195690024+195998020
4307+196225414+196269870+196301091+196560346+196988924+197280524+197256162
4297+196992950+196686026+196578402+196833631+197311347+197714544+197967890
4287+198117136+197992632+197410211+196595610+196012689+195885264+196122628
4277+196487606+196730637+196889214+197433208+198660734+200039993+200688225
4267+200387642+199662039+199082729+198886728+199058436+199464415+199926961
4257+200244909+200261150+200074929+200059189+200485314+201277903+202140450
4247+202683615+202550955+201761770+200841169+200389629+200545856+200873790
4237+200788783+200225333+199767175+199931022+200519213+200882602+200693754
4227+200275940+200167850+200519317+201095535+201734108+202455167+203175016
4217+203608552+203490959+202847893+202109591+201777873+201864435+201958583
4207+201899216+201958583+202283286+202595394+202624023+202552372+202801001
4197+203457751+204152962+204541421+204644483+204632700+204563536+204425175
4187+204223352+204016812+203963561+204173609+204521966+204850868+205195475
4177+205529768+205603735+205349560+205130891+205357870+206077581+206946659
4167+207433326+207215641+206470117+205555374+204609202+203820863+203693974
4157+204465329+205636753+206579227+207220773+207777380+208222943+208431003
4147+208528623+208767818+209176181+209524970+209579586+209299286+208918775
4137+208799368+209052282+209378333+209402936+209098863+208827168+209005424
4127+209667824+210322449+210381435+209788821+209104340+208909169+209219704
4117+209598401+209853043+210325559+211213988+211969015+211871758+210993799
4107+210091858+209746663+210012190+210704964+211565127+212197480+212312966
4097+212072112+211923297+212129008+212571530+212851673+212563858+211767174
4087+211119236+211224579+211964212+212735894+213183409+213420116+213644262
4077+213825162+213858024+213787582+213690170+213558840+213460322+213551635
4067+213820341+214055182+214095388+213949753+213771669+213748275+213888623
4057+214040963+214142626+214253412+214418744+214649905+214854181+214810641
4047+214542575+214494957+214952475+215562454+215776303+215503623+215095363
4037+214884487+214918421+215090128+215418944+216067850+217031887+217940964
4027+218335038+218195260+218068181+218429773+219038507+219230499+218789205
4017+218213816+218047413+218192253+218129345+217716783+217379069+217455351
4007+217801617+218128170+218371460+218693019+219277219+220051528+220653386
3997+220852358+220758867+220420722+219668943+218663853+218115626+218628624
3987+220065004+221643444+222519191+222394462+221737142+221293618+221339595
3977+221568613+221652394+221598279+221550385+221554981+221584923+221638209
3967+221797666+222135967+222510863+222649829+222467427+222031574+221367550
3957+220702973+220582633+221191350+221953323+222318560+222476774+222822677
3947+223278278+223660983+224145352+224779140+225016192+224391389+223286934
3937+222516582+222580130+223523071+224951055+225975202+225889746+225118236
3927+224713622+225046049+225550114+225650188+225501373+225546313+225749674
3917+225682929+225191459+224599778+224344428+224704119+225653799+226827555
3907+227844204+228603740+229089422+229182256+228896963+228400085+227726403
3897+226953805+226575108+227209103+228856153+230475437+230903894+230485752
3887+230310312+230412787+230247352+230139019+230634446+231150951+230876630
3878+230273631+230135685+230413599+230903929+231799632+232900061+233440531
3868+233356941+233354695+233631383+233680538+233192006+232508665+232226154
3858+232930419+235107675+238524223+240913722+239787220+236663204+234071710
3848+232904675+233244686+234881093+237101873+238967229+240229068+241280428
3838+242104583+242219982+241706241+241107424+240607575+240152596+239888400
3828+239919310+240216610+241161366+243253045+245731680+246781191+246361546
3818+246027011+245792567+244565094+242667065+241475340+241761565+243401946
3808+245450050+246814123+247702950+249004649+250189135+250042860+249262383
3798+249148228+249398257+249350380+249527495+250689365+252573156+254422737
3788+256058678+257818120+259826935+261975545+264327032+266870441+269129837
3778+270796446+272520572+275283757+279412655+284406157+289426906+294143719
3768+298895693+303709246+308123437+312327390+317288220+323650701+331284973
3758+339595882+347911837+355943570+364065355+372753407+381527674+389635154
3748+397870386+407300073+416909002+424138557+429341069+435623035+444711450
3738+456577182+470252221+483964581+495775992+504578077+510180572+513243563
3728+515227307+517627483+520805545+523885468+526187747+528375371+531926980
3718+537530962+544512233+552112434+560523036+569685435+577867900+583759248
3708+588624150+594798648+603603878+613878350+621985899+625327513+625645288
3698+626493356+629369711+633157440+636165383+638045080+639120802+639236287
3688+638809731+639041116+640381328+642565392+645027700+646974365+648282440
3678+649802480+651812383+653665334+656329447+661290000+667086319+669813185
3668+667931277+663922874+660455063+658797629+659286870+661926448+666496106
3658+671932423+676438843+679747007+683216547+687332072+691378348+694201417
3648+695970190+698496218+702275723+705851142+707711487+707883022+708012123
3638+709592704+712370022+715157016+717834468+721813981+727550173+732161298
3628+732099443+728269971+724001639+721496690+721621091+723519033+724724754
3618+724327500+724665594+727598759+731858520+734391045+733380150+730149875
3608+728430724+730337858+733409591+734213774+733355546+734752360+740583028
3598+748542608+753891914+754022811+751577021+751164356+753444693+755532968
3588+756349590+757491452+759542200+761409940+761931733+760268424+756447798
3578+752158388+749608378+749949374+753324577+758628268+763078087+764594671
3568+763737411+761613889+758191691+753616366+749414589+747436823+748463821
3558+751579924+754069461+752867265+747594605+742155731+741475466+746178370
3548+751858305+754262697+754586139+757360071+763659038+769484315+770474753
3538+766588264+761231978+756686924+752749983+749419703+747705045+747580575
3528+748125382+749782677+753730262+759123660+763298000+764486788+762958800
3518+760090462+757506587+756816025+759045357+762909040+764356443+760474584
3508+753443172+747804082+745780080+747089330+750534473+754027511+755385000
3498+754789258+754578261+756143223+758450859+759650290+758795242+756356571
3488+754290895+754650482+757660706+761523629+764274546+765501138+765834602
3478+765656501+764926683+763384389+761111240+759445236+760438439+764114553
3468+767198795+766848469+764242755+762077973+761513815+762534248+764620450
3458+766353837+766449142+765864665+766595866+768281705+768677990+767830475
3448+768530714+771646747+774409690+774009534+770105628+764164521+758924481
3438+757452750+760449358+765289657+768846554+770080195+769229639+766896916
3428+764822463+764885769+766872658+768766315+768867702+767015788+764706563
3418+764173782+766153344+768724779+769405252+767502126+763859324+760191987
3408+758691022+760111403+762697074+764837184+766581352+766954417+763828500
3398+758137576+753935730+753524102+755571601+757580606+758286512+758387691
3388+759670333+762281921+763710457+762380820+760496423+760914756+763306293
3378+765148739+764996209+763635886+762878285+764021598+766891456+770088696
3368+772084569+771935772+769884126+767637447+766976118+767739870+767803729
3358+765783252+763194056+762739163+765179562+769101437+773057177+776302725
3348+777665606+776206246+773429688+771907644+771464293+769921308+767438751
3338+766424400+767353260+767937183+766986277+766641203+769306215+773878844
3328+776422841+775011652+772142761+770902208+771157645+770949343+770047022
3318+770400251+773343368+777675696+780575480+779846491+775475045+769678311
3308+765335271+764052352+765406663+767400463+768035322+767595427+768619522
3298+772476156+776868335+777768029+773844357+767976784+764067142+763288462
3288+763773211+763420811+762161529+761088571+760405196+759536947+759051024
3278+760744880+765202024+770303287+773407434+774079613+773308121+771691394
3268+769679555+767803245+766466904+766806518+770320289+776337489+781478008
3258+782581720+779385033+774671416+772212080+773058628+773788584+770929507
3248+766748948+766312992+769954758+772856477+771885390+768859270+766283205
3238+764562534+764148832+766290531+770286701+772657090+770766335+766459647
3228+764544150+767467432+772487628+775071226+774222329+771990716+769720331
3218+767675181+766425851+766768783+768587731+770037692+768905368+765899912
3208+764556867+766344991+768487312+767444072+762705921+757041190+754200013
3198+755740648+759530036+762300028+763309334+763933342+764769385+764733654
3188+762655884+759231336+756680082+756046398+755989519+755036056+753594181
3178+752754268+752532420+751900671+750328106+748932881+749127638+750823152
3168+752671818+753289261+752073519+750062856+749563455+751240932+752581627
3158+751228492+748316406+746357507+746144229+746965136+747689011+747033903
3148+744506146+741321278+739405435+739530597+740430015+739928887+737584138
3138+735444374+735400558+736818866+737430779+736140674+734253997+733777818
3128+734962943+736197345+736450570+736620999+737255443+736615677+733368885
3118+729636030+728717675+730962281+733831103+735386528+735689168+734857341
3108+732293785+728571504+725761497+724926560+724933747+724389217+723631132
3098+723690637+724262743+724066466+722858534+721876527+721933337+722137493
3088+721000331+718209536+715167728+714003336+715500984+717698802+717617250
3078+714949888+712326828+711892530+713472214+715684130+717329746+717751326
3068+717082188+716117390+715260407+713798213+711012878+708013920+707115331
3058+708866895+710855649+710584110+708625695+707196122+706817944+706260697
3048+704759801+702623631+700368935+698722904+698557382+699647617+700486632
3038+700290493+699953229+700189798+700350828+699657224+698080443+695884077
3028+693726967+692789468+693480031+694426376+693887858+691880789+690014154
3018+689431682+689447163+688424795+685998702+683761837+683272803+684273885
3008+685493911+686282889+686664247+686665353+686515381+686695762+686952650
2998+686044592+683299757+679672436+676550597+674411455+673177399+672975247
2988+673931406+675576054+676693174+676019751+673726006+671711957+671337648
2978+671613749+670722486+668748590+667510180+667936253+669250271+670328481
2968+670558415+669871308+668679202+667344174+665745692+664005947+662957109
2958+662875005+662616735+661191239+659261229+657910167+657009090+655893353
2948+654724054+654124580+653992992+653481221+652069686+650173955+648622055
2938+647703631+646948587+646152076+646171980+647658570+649409028+649403015
2928+647391039+644907860+643040603+641817467+641124692+640712303+639875846
2918+638305976+636864378+636713715+637863801+639087559+639279413+638334450
2908+636531191+634020506+631442713+629872567+629434330+629118145+628350661
2898+627434725+626291274+624319106+621738756+619631682+618494589+617963951
2888+617828354+618188149+618772556+619048588+618828053+618183034+617280230
2878+616538663+616185779+615680297+614419978+612772081+611530630+610895011
2868+610610202+610274735+609229076+607165059+604879539+603487770+603138549
2858+603173382+603147948+603149123+603232265+602990374+601931446+600131366
2848+598115174+596228082+594644667+593700119+593482141+593444545+593120688
2838+592630894+591952287+590537919+588308241+586281820+585518345+585803085
2828+585812829+584538066+582342875+580427171+579441813+579007896+578564199
2818+578161314+578106646+578279494+578253197+577750894+576604852+574757603
2808+572690752+571293212+570929340+570998589+570547187+569125424+567106225
2798+565331682+564328631+563876849+563563462+563387573+563355091+563022007
2788+562077840+560841606+559544555+557842475+555693277+553948072+553432223
2778+553975820+554720497+554960695+554435239+553167491+551367031+549456718
2768+547926380+546956433+546255780+545382624+544133640+542613427+541125524
2758+539970186+539178202+538562037+538028738+537491948+536595260+535094053
2748+533381295+532056564+531141389+530208970+529074469+527864325+526592188
2738+525228444+524116646+523702737+523741819+523337828+521997512+520199989
2728+518713192+517758242+517034057+516224657+515315183+514587403+514297411
2718+514228403+513777070+512655354+511207398+509864629+508645190+507405915
2708+506213430+505190751+504318252+503558128+502889508+502202332+501444662
2698+500807315+500404912+499850603+498644502+496987690+495655979+495024092
2688+494721038+494282870+493686956+493136931+492657815+492066497+491193203
2678+490032266+488704218+487357890+486175184+485350821+484898036+484559424
2668+484065518+483417701+482793001+482257594+481726402+481119119+480367669
2658+479360056+478114182+476895503+475916054+475078421+474231390+473459379
2648+472902685+472500732+472103893+471686287+471299089+470902976+470368087
2638+469596180+468596550+467543462+466758009+466411345+466235906+465795285
2628+464990791+464084635+463381183+462974150+462567739+461666248+460257443
2618+459016510+458517041+458616320+458802713+458740859+458364581+457737186
2608+456946826+456116001+455440746+455009732+454605049+453983805+453288853
2598+452841632+452633710+452331140+451730733+451022547+450538558+450300572
2588+450015694+449574279+449241852+449201906+449222052+448959393+448390916
2578+447819536+447575606+447738433+448049643+448094704+447650731+446892300
2568+446212761+445810255+445513766+445048023+444360847+443651071+443205854
2558+443210243+443535240+443738082+443508874+443058785+442790079+442708804
2548+442514393+442138564+441788410+441541544+441289355+441007449+440760686
2538+440541395+440352306+440304343+440424113+440512127+440364366+440030073
2528+439743260+439648612+439658495+439615853+439533196+439522622+439534682
2518+439397322+439093266+438767336+438498803+438271011+438081818+437926801
2508+437766773+437589847+437415237+437246052+437101297+437013387+436911482
2498+436625879+436087569+435433842+434880086+434559477+434464103+434470531
2488+434452700+434410058+434422118+434463274+434409125+434277813+434256596
2478+434363062+434294607+433809375+433067220+432385883+431899373+431680911
2468+431873732+432375171+432703900+432543734+432146274+431904176+431832818
2458+431706448+431429794+431081886+430758479+430472599+430180222+429893236
2448+429693331+429607183+429576014+429557596+429563608+429612954+429692571
2438+429691983+429436167+428936974+428453089+428120662+427769817+427285380
2428+426858028+426684800+426676230+426620907+426474252+426396294+426571595
2418+426980149+427354077+427451559+427300584+427028976+426618799+426086847
2408+425712227+425746369+426036603+426239169+426274588+426311425+426441320
2398+426614998+426769842+426819084+426636111+426227351+425813338+425553547
2388+425257542+424546350+423260598+421484983+419139716+415828581+411328173
2378+406097428+400957393+396186413+391269850+385823408+380423271+376000476
2368+372693625+369917240+367356311+365301036+364211457+364484552+366455890
2358+370255403+375721818+382636777+390987114+400491235+409723817+416459846
2348+419067011+417523749+413585910+409510815+406095701+402835949+399428230
2338+396005272+392683942+389560410+386855071+384836771+383640173+383163615
2328+383145853+383288361+383330726+383274435+383544834+384636659+386595488
2318+389006999+391368956+393372673+395013279+396536878+398180904+399948951
2308+401665994+403145016+404279517+405118912+405873196+406722750+407634988
2298+408459558+409158069+409828624+410490333+410959255+411065410+410931023
2288+410859389+410997992+411283734+411604688+411812161+411732890+411368603
2278+410928120+410564974+410264546+409999053+409805783+409726754+409757094
2268+409805299+409747556+409614171+409595269+409744619+409848632+409722365
2258+409468829+409307730+409297675+409373006+409517415+409714867+409834602
2248+409772126+409637012+409632520+409818603+410095084+410322772+410412686
2238+410407261+410478826+410760110+411211270+411681713+412019219+412133115
2228+412068012+411990158+412014382+412099354+412162868+412207341+412280876
2218+412412292+412617657+412892099+413179879+413393918+413480446+413494510
2208+413608440+413948193+414426894+414875601+415276344+415678954+416020296
2198+416255932+416515031+416935195+417499975+418117314+418686621+419109964
2188+419388587+419635212+419931977+420287832+420714735+421227128+421822662
2178+422494911+423160628+423639295+423857411+423988516+424296097+424934273
2168+425912236+427147571+428575486+430220618+432063132+433895384+435539687
2158+437195980+439328867+442147479+445333696+448330789+450845552+453026610
2148+455146400+457212145+459041632+460653072+462322497+464235160+466318529
2138+468454215+470660844+473023976+475544924+478108411+480611356+483098302
2128+485708992+488497125+491317362+493838621+495676989+496602670+496603948
2118+495808992+494467502+492838473+490931374+488597925+485946252+483272601
2108+480587202+477662054+474489003+471281604+468149018+465095496+462170624
2098+459379968+456611323+453808503+451088721+448593447+446335054+444257698
2088+442376619+440768116+439418954+438184310+436972335+435870593+434976393
2078+434227120+433547753+433000977+432614781+432257682+431848023+431473300
2068+431191048+430954237+430771472+430685082+430607746+430408947+430117296
2058+429852046+429614440+429307377+428941086+428680535+428631777+428687239
2048+428689554+428658938+428717890+428873357+429045963+429253228+429573733
2038+429957890+430265437+430488736+430780387+431253801+431858908+432419886
2028+432730543+432685448+432359517+431903485+431404361+430911457+430475570
2018+430058378+429502099+428691282+427710969+426782524+426032871+425378211
2008+424706032+424107595+423775548+423691750+423561613+423103818+422372238
1998+421742873+421521336+421588858+421526035+421055351+420267617+419449302
1988+418823565+418464807+418339508+418372751+418460971+418428282+418102870
1978+417535809+417018958+416771090+416723748+416700941+416655812+416615450
1968+416529994+416323005+416039509+415818490+415698374+415535547+415197799
1958+414798956+414589272+414604718+414594801+414355225+413975872+413692895
1948+413664870+413949955+414472922+414899237+414806109+414188666+413532106
1938+413234788+413249025+413294017+413197399+413017121+412928555+413006686
1928+413171379+413371076+413628483+413872654+414021866+414198722+414464905
1918+414487850+413962568+413193909+412750627+412813933+413143354+413424465
1908+413525956+413496410+413386696+413173832+412901325+412728408+412746619
1898+412886984+413028007+413093904+413127285+413269137+413494372+413487771
1888+413060282+412483338+412118775+412039435+412139370+412306032+412438243
1878+412493325+412505627+412533271+412727924+413353833+414425650+415338683
1868+415295972+414317076+413223212+412642226+412615169+412878415+413138032
1858+413194738+413037337+412821950+412731587+412888816+413315822+413959942
1848+414855835+416065633+417209741+417473574+416710997+415795718+415424278
1838+415523280+415676846+415754804+416136818+417198026+418583748+419408699
1828+419444706+419256377+419050459+418573485+417966962+417732121+418006045
1818+418497877+418977892+419513334+420255868+421169558+422002180+422524352
1808+422770355+422996315+423492018+424446518+425803178+427144600+427952237
1798+428233833+428675663+429959203+431993917+433763485+434332480+434120204
1788+434253036+435249833+436880106+438733264+440621185+442417533+443917772
1778+445156217+446596054+448746771+451558921+454124585+455451009+455643900
1768+455484217+455622060+456546566+458381064+460573801+462380827+463775810
1758+465125801+466417324+467695473+469524407+472265545+475348993+477750033
1748+479173455+480075880+480898895+481989234+483619472+485587908+487324924
1738+488934567+491333845+494810503+497971839+499367409+499808687+500528000
1728+501669965+503080429+504822870+506975765+509661545+513201198+517712249
1718+522375069+525597949+526968086+527739440+528978680+531032676+534011247
1708+537805507+541758897+545088105+548059212+551763766+556510660+561140790
1698+564756328+567771666+570350150+572486113+574906815+578231254+582295672
1688+586879014+592472836+599268577+605308515+608618752+610767569+613937303
1678+618641866+624313508+629955846+634932986+639689245+644870609+650021840
1668+654223202+657961310+662497863+668005848+673371395+677676148+681328487
1658+685250500+690242361+697203901+706210107+714053511+718192811+721201791
1648+725063539+729004903+731597693+733410904+735878464+739386637+743529323
1638+747694264+750975543+752330683+752014567+751391388+751130491+751249156
1628+751751943+752644657+753512837+753308819+751408596+748970824+747485063
1618+746479559+743918767+739357818+734821334+731417035+728600669+725727217
1608+722786796+719942785+717091933+714251101+711805588+710007028+708750234
1598+708007492+707811561+707807138+707429097+706431817+704960985+703423390
1588+702297424+701677148+701175743+700526717+700004302+700142387+701239326
1578+703022958+704462897+704635538+704439054+705507450+708179165+711442821
1568+714326986+717270863+721194465+726430082+733194723+741855856+751226833
1558+757443074+760378174+764221261+770586230+778734693+787488642+795719002
1548+802661813+808707348+814827109+820992484+826197070+829704690+831423979
1538+832192361+833319225+835082469+836500570+836567815+836090185+837062239
1528+840513741+845709549+850934385+855160489+858381849+860958397+863507025
1518+866213020+868449401+870113401+872289725+875703837+879739676+883444679
1508+886354691+887728284+886773991+884794428+883718845+884311684+886380193
1498+889104779+891756107+894370459+897254486+900056269+901860220+902288297
1488+902258233+902665231+903214184+903529955+904055549+905322571+907047735
1478+908500875+909553029+910764279+912233937+913154848+913413533+914085021
1468+915536088+916933801+917556081+917790439+918603398+920579920+923652828
1458+926696710+927812309+927147455+926732026+927049040+927443806+927588940
1448+927418096+926636444+925163607+923569272+922650365+922839869+923948073
1438+925412271+926772110+927772155+928130291+927663442+926674387+925902479
1428+925886238+926547221+927432402+928165123+928795352+929482183+929886969
1418+929556478+928807170+928074656+927109789+925646697+924172686+923610601
1408+924228320+925031604+924673330+923238366+922053794+921621432+921338903
1398+920744613+919688173+917953611+915969556+914924658+915308987+916195551
1388+915874044+913362943+910072472+908695147+910226245+913315049+916273370
1378+918876389+921757927+924679965+926488615+927103362+928175766+930723427
1368+933572206+935244706+936087315+937090331+937969223+937931626+937275481
1358+936959503+937581369+939190286+941331086+943361654+945145631+946900789
1348+948268576+948598791+948333817+948947943+951122400+953692522+954946275
1338+954843713+955015110+956376194+957968524+958396878+957662913+956952100
1328+957063785+957952352+959287588+960550326+961009088+960455850+959688228
1318+959516624+959674613+959600249+959808620+961374481+964289677+967166031
1308+968497121+967901240+966341461+965184326+964925572+965093583+965216256
1298+965082041+964309788+962701216+960618953+958266050+955466201+952493367
1288+949933612+947743466+945533693+943323573+941200880+939023520+936824666
1278+934655945+932227709+929459652+926750271+924316921+922204042+920790572
1268+920183358+919647328+918519635+916840776+914692788+912148031+909885456
1258+908493549+907477816+906117216+904691099+903875029+903591603+903317230
1248+902983559+902848861+902850865+902764061+902831030+903497957+904548384
1238+905234523+905375096+905695083+907016082+909455513+912252389+914313711
1228+915125565+915024800+914555878+914050051+913815832+914126765+914900331
1218+915673136+915974394+915765262+915740105+917121508+920683380+925762597
1208+930523210+933590520+935241389+936720515+938815563+941243660+943214101
1198+944504483+945930739+948364434+951335817+953430934+954106155+954205606
1188+954757600+956125388+958114073+960346446+962706123+965116113+966854062
1178+967106319+966441742+966649906+968748341+971801967+974081613+975312835
1168+977014708+980123623+983195564+984046051+982437479+980155000+979288617
1158+980610998+983098808+985328624+987335831+990102160+993468793+996299534
1148+998255253+999666235+1000302200+1000023957+1000057614+1001747254+1004526991
1138+1006719279+1007888302+1009064926+1011256938+1014434689+1017208551
1130+1017635108+1015419252+1012572270+1011125834+1011623437+1013792573
1121+1016967766+1019898996+1021294013+1020820461+1019361170+1018593547
1113+1019861606+1022818545+1025979985+1028834847+1031901673+1034455968
1104+1034538487+1032134372+1029865369+1029625207+1030708254+1031906372
1095+1033373680+1035600801+1038430575+1041383160+1043935934+1045768497
1087+1047154737+1048844377+1051523072+1055221302+1058659672+1060090627
1078+1059478230+1058288197+1057741179+1058099246+1058600582+1058192201
1070+1056481483+1054039909+1052027310+1051535167+1052813455+1054842847
1061+1056517006+1057096023+1055929419+1053646526+1052253098+1053353907
1053+1056272489+1058927618+1060535084+1062044826+1064372988+1067101790
1044+1069171612+1070606092+1072245557+1073741823+1073345952+1070634497
1035+1067956700+1067849162+1069883669+1071112473+1069762724+1067167446
1027+1065207303+1064115340+1063544271+1063577998+1064471818+1066568801
1018+1069863350+1072693815+1072196350+1067483217+1061180932+1056665112
1010+1055271062+1056779768+1060608895+1065302815+1068565988+1069416475
1001+1069278252+1069779863+1070661105+1070877148+1070221625+1068882381
993+1066383029+1061989537+1056080774+1050506234+1046906695+1045020156
984+1043813606+1042754264+1040908225+1037685621+1034527567+1033569957
975+1035121374+1037074951+1036755932+1033375823+1028273522+1022988353
967+1018067332+1013734381+1010284400+1007373697+1004470596+1001944706
958+1000462954+999385642+996826372+992137220+987219033+984245645+983235027
948+982760092+981681606+979473352+976342045+973427264+971660703+970646974
938+969812107+969618940+970410198+971463459+972236126+972975136+973771716
928+974492274+975114416+975075714+973565487+971248729+969820884+969644995
918+969716387+969528058+969296396+968773636+967500117+966075796+965691121
908+966158385+965725746+963531868+960983655+959822650+959997986+960425856
898+960717092+960949099+960631048+959185441+956952584+954970533+954330698
888+955713275+958643330+961184286+961083038+957800445+953237284+949757032
878+947940158+946987938+946391436+946100546+945869367+945756577+946622753
868+948956582+951710056+953219384+953059667+952335792+952163221+952336691
858+951841575+950437021+949086995+948811378+949788201+951529813+953028429
848+953115164+951549579+949530208+948866944+950359270+953002374+955218022
838+956503082+957151764+956916439+955154923+952089133+949079117+947867521
828+949492266+953100166+956220692+957268493+957263794+957912820+959310395
818+960770100+962283782+963741622+964571306+965076788+966496340+968929413
808+970472260+969788885+968464085+968752902+970298445+970790934+969450860
798+968023222+967666192+967217243+965706257+964654033+966067572+968943305
788+970204522+969102538+967848232+968016933+969039577+969927938+970563419
778+971231313+972089333+972692262+971555930+967772209+963280855+961319607
768+962521457+964351255+964543800+963735609+964076675+966442917+969630550
758+971771904+972462190+972834494+973330577+973052196+971444246+968989402
748+966601805+965313565+966212223+969543954+974339330+979528434+984179713
738+986803396+986395706+983899189+981462522+980917024+982668934+984694456
728+983964016+980467592+977497383+977182995+978702689+980382792+981104524
718+980510510+979307139+978732753+979387239+980718121+981255394+979901430
708+977806174+977719301+981038177+986155405+990063803+991496625+991365797
698+990746488+989340689+985353849+977906040+969414991+963753785+962576332
688+964122358+964788939+962167606+957323022+953489748+952093072+950660666
678+946389570+941522802+940749582+944383399+947633371+945452694+937644260
668+931208313+933783342+941677405+947161408+948301957+947648161+947440412
658+946261852+941840439+935139449+929965342+929252732+931666178+932963264
648+931041202+927738843+925830672+926400636+928073896+928099053+925640477
638+922963302+921965331+922751406+926878266+935338352+942291461+940782410
628+933462249+927294870+923511910+919721693+916463496+916910648+921398754
618+925390155+926412454+929110431+938123895+951768248+963847639+968573489
608+963960360+953741038+947291684+950770899+959450415+965089159+967495003
##END=
