##TITLE=<SNM>
##JCAMP-DX=4.24
##DATA TYPE=INFRARED SPECTRUM
##DATE=2/5/2025
##SAMPLING PROCEDURE=Instrument type and / or accessory
##ORIGIN=Admin
##XUNITS=1/CM
##YUNITS=ABSORBANCE
##RESOLUTION=4
##FIRSTX=4497.3318
##LASTX=599.83466
##DELTAX=-1.4281778
##MAXY=1.8250974
##MINY=0.34313914
##XFACTOR=1
##YFACTOR=1.6997544e-09
##NPOINTS=2730
##FIRSTY=0.36315617
##XYDATA=(X++(Y..Y))
4497+213652136+214700383+216185226+217130061+217150558+216597890+215918878
4487+215343066+215206535+215992851+217631830+219086744+219169922+217740256
4477+215752347+214297134+213891519+214334550+214794800+214385046+213101205
4467+211885585+211657494+212636292+214374404+216014101+216825999+216819880
4457+216549165+216345235+216151808+215975721+216033721+216300824+216250082
4447+215531181+214647485+214207188+213892501+213093104+212108732+211817433
4437+212567368+213965194+215270759+215762113+215273477+214325503+213494477
4427+213095366+213390978+214488808+215950350+216805467+216192818+214231244
4417+212143290+211176065+211441168+212055483+212319272+212318816+212374186
4407+212457627+212418686+212367523+212471566+212643322+212677758+212351551
4397+211407364+209999194+208939796+208900083+209643022+210434774+210845141
4387+210859255+210569763+210017183+209167782+208108752+207248673+206968053
4377+207199896+207636335+208092148+208459471+208615009+208598651+208581100
4367+208530586+208242163+207695159+207098413+206618228+206203074+205702849
4357+205261693+205448336+206543361+207849856+208355692+208018666+207744761
4347+208114644+208677498+208586044+207693160+206780639+206572519+206875056
4337+207055439+206945119+206733562+206411510+205897504+205408237+205279893
4327+205549678+205923874+206095999+205955978+205538264+204960419+204446237
4317+204254685+204540566+205293359+206283868+207086806+207443749+207579264
4307+207870966+208337702+208721945+208922316+209008387+208875274+208251561
4297+207117507+205860702+204906977+204382994+204252914+204565656+205332318
4287+206283605+206941595+206872882+205887072+204219145+202598664+201875713
4277+202341451+203509222+204689178+205619391+206321407+206663639+206562139
4267+206320197+206228059+206103520+205674007+205080469+204680973+204718038
4257+205307789+206309239+207106320+206990846+206010120+205165138+205454420
4247+206729021+207771938+207677415+206812883+206179229+206282886+206887785
4237+207374703+207146489+206068436+204647852+203643632+203536521+204330166
4227+205598631+206692517+207120347+206807220+206029670+205224838+204777634
4217+204794343+205108996+205533705+205986100+206404567+206691272+206774082
4207+206716695+206774345+207211924+207882275+208164052+207702698+207022108
4197+206869568+207162006+207225933+206844022+206356807+205982523+205701709
4187+205593091+205793216+206249888+206640741+206508364+205786220+205193489
4177+205487277+206428114+207213309+207617189+207876471+207903402+207528768
4167+207103305+207094976+207439138+207737713+207777390+207623553+207469278
4157+207434228+207396269+207190884+206933915+206808640+206731353+206708595
4147+207171737+208318609+209465708+209700637+208897260+207648959+206602378
4137+206147406+206340202+206877143+207374668+207693529+207847909+207843088
4127+207809056+207963086+208226769+208202486+207714025+207086701+206770084
4117+206931093+207417624+207849926+207840756+207398057+206989812+207006784
4107+207354031+207789523+208438922+209555356+210784020+211145469+210087948
4097+208275968+206912227+206453959+206443281+206403989+206320951+206298736
4087+206327368+206472965+206879825+207457372+207834531+207751616+207385205
4077+207120996+206965826+206450855+205400119+204491420+204540461+205441287
4067+206384772+206943401+207279304+207416660+207085473+206312272+205552519
4057+205230817+205477125+206127927+206744521+206882911+206562192+206274365
4047+206426221+206904845+207265365+207302150+207254898+207342406+207349472
4037+206942366+206164396+205388407+205027010+205279192+205838311+206108640
4027+206044205+206284955+207138582+208038356+208331496+208045440+207619731
4017+207283547+206898673+206340851+205875131+205899292+206339641+206718817
4007+206865448+207059051+207437507+207776251+207920743+208008760+208135228
3997+208105018+207721073+207191287+207030577+207511235+208328673+208935992
3987+209152510+209198833+209168448+208887179+208422318+208311069+209004687
3977+210312146+211570389+212164225+211817118+210701806+209417649+208599177
3967+208476829+208966114+209927904+211015582+211652708+211563954+210998365
3957+210291492+209656751+209394961+209901884+211361111+213347022+214831655
3947+215193297+215071423+215308999+215567212+215051049+214014638+213329103
3937+213238859+213594312+214553454+216126893+217465824+217699315+217374967
3927+217764136+218886811+219404693+218750735+218196157+219089987+221043216
3917+222106576+220673263+217331677+214303008+213186206+213871583+215613377
3907+218532481+223238877+229060112+233624751+234984985+233092738+228863055
3897+223876195+220574235+220805920+223881631+226349883+225743318+224458161
3887+225823796+228973024+230653960+230879596+231771533+232075595+229429696
3878+225900416+225180989+227754336+231843560+235906010+238229156+237372899
3868+235240603+234953233+236124984+235770250+233012576+230159888+229646478
3858+232788763+240179439+250008928+254759719+248764677+238554715+231047845
3848+227740537+228065149+230963475+235190423+239933885+244794785+248400984
3838+248590869+245703186+242699589+241018846+239620267+237595011+235622198
3828+234508851+234506607+236663835+242199522+249000184+251717672+249688209
3818+247356612+245657336+242132983+237126907+233800873+234231456+238249705
3808+243320444+246565597+248823694+252555168+256398470+256902816+254979622
3798+253449174+251839634+248999378+246283398+245565076+247063315+250236458
3788+254895287+260641812+266319431+271424166+277211281+284684153+292533606
3778+299143629+305539991+313997393+325664689+340118905+354988345+366665284
3768+373704487+377299552+378389107+377966624+377986472+379332960+380664510
3758+380833180+381339402+385062145+393790402+406312026+417749425+424805110
3748+430560279+438401912+446679107+451055632+452750191+457101853+466837890
3738+481802606+499245059+513975775+522456426+526503956+530200328+535986707
3728+544173921+553306356+561478597+568556304+574987837+579210490+579506768
3718+577185463+575741489+577889565+583173614+587240956+585800805+580188673
3708+574134176+569512500+567159740+566482429+565366153+563308724+562292879
3698+563382574+566145579+570615696+577162283+585031514+591714791+593767030
3688+590392990+585161015+581543191+580233944+580244043+580861181+583348982
3678+589789142+598475776+602703968+600471487+596564575+592014681+584670328
3668+576276325+570179082+566387538+563196371+560481162+560084208+563201946
3658+567990013+570808738+571298864+573397496+579401638+586367938+587617256
3648+580425583+570056664+562100118+558335330+557669731+557802388+557458665
3638+557137560+557512878+558629574+561167451+566837688+575718380+582655259
3628+581092620+573606002+567525906+566425024+570434822+577440222+583559487
3618+586383612+587294363+587710639+586764962+584402874+583165654+584591568
3608+587028172+588751942+590354416+592681648+595115973+596741100+597697507
3598+598701394+600088069+601676376+603198688+604947741+607577247+610717182
3588+612206812+610324296+606631220+604085032+603883539+605332843+607139195
3578+608179972+607492316+604724577+601245758+599605482+601076667+604193108
3568+606004369+605172659+603499490+603752460+606911542+611007113+612449473
3558+609959533+605993849+603245397+601921492+600989421+600324979+600706153
3548+602480875+604757400+605960115+605417424+603794751+601736480+599237282
3538+596376477+593646892+591686948+591050699+591865507+593584543+595137013
3528+595359545+593447573+589567451+585344203+582936529+582979836+583927476
3518+583911521+582746678+581492345+580839475+580685988+580632687+580333288
3508+579776921+579393117+579358225+578846393+576775253+573403037+570332814
3498+568870500+568799280+569068416+569216082+569312726+569131431+568401099
3488+567562165+567215742+567130635+566522790+564717631+561703269+558831558
3478+557942654+558967161+559529173+557685020+554017332+550471851+548345481
3468+547584325+547206482+546438804+545683714+545952745+547377152+548856332
3458+549086790+547536319+544736600+541921417+540136561+539555682+539646610
3448+539809880+539824363+539679152+538898323+536588836+532846035+529462316
3438+528296386+529561835+531994547+533793816+533703274+532154170+530634523
3428+529626007+528661395+528014871+528149948+528087249+526546492+524079380
3418+522344038+522043973+522384364+521903811+519978128+517673409+516381730
3408+516058241+515826801+515585893+515782582+516343929+516938904+517669377
3398+518724075+519733433+519850275+518457254+515962754+513647235+512358362
3388+511745853+511114338+510273546+509014900+506913918+504434077+502998169
3378+503356585+504994757+507158613+509201138+510154249+509427774+507785780
3368+506470641+505758648+505244502+504897623+505026703+505583981+506132774
3358+506365161+506343349+506372419+506698960+507040719+506606980+505079969
3348+503300163+502461404+502789803+503398840+503333441+502494472+501604481
3338+501377951+501727810+501849386+501007226+499099076+496767251+495112457
3328+494882736+495837670+497031899+497649492+497502809+496877045+496223122
3318+495930421+496030501+496145134+495899633+495292384+494598100+494098190
3308+493976299+494268509+494773679+495170493+495326925+495280286+494889539
3298+493899889+492537866+491581003+491398692+491511922+491599729+492243587
3288+493964271+495993541+496817431+495930316+494372517+493418284+493317152
3278+493548591+493810890+494240280+494857523+495319456+495298205+494764456
3268+493742019+492159637+490238968+488697615+488177717+488659182+489635507
3258+490425628+490235532+488721040+486578329+484805045+483707179+483300722
3248+483892857+485447851+487050746+487668199+487061021+485743954+484506979
3238+483863155+483632978+483199169+482226596+480800121+479007516+476965867
3228+475128586+474088510+474063192+474727424+475477534+475801129+475524033
3218+474809164+473849181+472596005+470909195+468988070+467505138+467025917
3208+467328823+467682575+467842724+468246832+469059957+469614606+469100809
3198+467386122+464973433+462581539+460844268+459973459+459577907+458982020
3188+457788177+456207549+454921691+454408562+454291509+453685172+452284366
3178+450699144+449563126+448738184+447728370+446557461+445721227+445387358
3168+445140559+444494737+443225255+441331868+439165943+437404021+436543907
3158+436559757+437004787+437167005+436436778+434993927+433778869+433364592
3148+433310484+433005439+432551432+432257679+431803250+430552810+428457474
3138+426211211+424607229+423923219+423863606+423970735+424008046+423969753
3128+423896674+423744169+423365485+422695257+421967309+421465926+421052876
3118+420297997+419025500+417479728+416102206+415263693+414993680+414934663
3108+414734082+414354485+413824944+412973141+411728486+410499226+409859751
3098+409875426+410042518+409947874+409603344+409007422+407991331+406774765
3088+406049307+406136833+406537960+406622822+406313183+405792619+405070913
3078+404240641+403716816+403755704+403976519+403749042+402966074+402127035
3068+401652759+401397159+400959667+400228248+399329175+398246808+396933353
3058+395664783+394856182+394568811+394442852+394069743+393325103+392394680
3048+391526922+390772008+390004154+389196394+388626527+388682738+389320074
3038+389849615+389569222+388514419+387308162+386422624+385837854+385265566
3028+384474779+383468963+382452943+381567581+380703995+379725706+378792093
3018+378253785+378228642+378438516+378468428+378064530+377257192+376305729
3008+375421524+374565758+373683412+372940911+372422802+371836664+370897089
2998+369779270+368878128+368370118+368233288+368400485+368652755+368553411
2988+367762904+366405615+364981981+363941835+363410470+363244325+363173139
2978+362878229+362165921+361207795+360425073+359998488+359647296+359023215
2968+358170465+357435995+357058748+356954600+356796870+356283635+355414264
2958+354459680+353653148+353046671+352679663+352685625+353063222+353418377
2948+353165056+352088054+350575491+349218448+348334734+347928908+347860353
2938+347858178+347568248+346873893+346098150+345654066+345553530+345460603
2928+345152017+344721154+344346887+343989979+343345806+342173774+340712197
2918+339593221+339255179+339550124+339904753+339760770+338974751+337907429
2908+337015229+336390341+335903161+335618069+335679786+335873740+335723865
2898+335070539+334269091+333775388+333687301+333680007+333330463+332557490
2888+331720274+331219312+331098052+331100962+330967253+330566126+329908452
2878+329165741+328590368+328330629+328326807+328362259+328217434+327817990
2868+327237147+326571723+325897146+325331276+324980189+324770631+324484101
2858+324053168+323683881+323537618+323417094+322997873+322296225+321634588
2848+321187103+320846711+320497237+320132895+319740464+319297818+318878176
2838+318630150+318649051+318835710+318880245+318526107+317862962+317170817
2828+316507778+315712888+314812237+314144814+313992975+314211124+314319060
2818+313975617+313296377+312655219+312295084+312218288+312292349+312321244
2808+312099307+311517026+310654107+309781789+309186604+308871179+308506346
2798+307829280+307022713+306548998+306618885+306905871+306854673+306283473
2788+305524737+304893327+304293969+303529832+302694194+301998963+301452661
2778+300941074+300432643+299936801+299425073+298904790+298426692+297967670
2768+297434973+296802511+296164754+295663407+295352050+295092627+294684171
2758+294158716+293773158+293623511+293489995+293165278+292698840+292198562
2748+291623732+290922628+290195188+289563007+289009253+288483446+288028036
2738+287664027+287284203+286787519+286218791+285693055+285255423+284846932
2728+284370009+283797301+283216983+282756173+282484617+282370317+282261891
2718+281970347+281443577+280808012+280236005+279813259+279492891+279183217
2708+278919884+278817700+278789209+278558576+278051197+277504736+277130733
2698+276890982+276617550+276203624+275691266+275222530+274899479+274739593
2688+274729686+274776605+274658904+274223359+273592002+273023906+272626548
2678+272321258+272009060+271633795+271154451+270616144+270201358+270049450
2668+270068666+270064704+269962011+269757573+269379905+268754965+267956253
2658+267209369+266747945+266633645+266717174+266807909+266814799+266704234
2648+266472724+266208024+266030517+265944954+265847592+265644381+265289506
2638+264790999+264245345+263815428+263621896+263640744+263718013+263711403
2628+263603766+263450806+263261201+262992590+262645431+262296781+262020806
2618+261804638+261588821+261373670+261206875+261076077+260926325+260773504
2608+260683453+260661344+260662326+260660064+260637621+260570171+260438075
2598+260211895+259896576+259622600+259538440+259593197+259626773+259644833
2588+259743089+259814485+259639836+259246160+258897580+258730015+258616521
2578+258420622+258208802+258137792+258249374+258470539+258720529+258901192
2568+258879328+258632792+258356678+258286124+258445379+258672470+258863794
2558+259080085+259372470+259601753+259562654+259261326+258914588+258672786
2548+258508762+258356730+258168019+257852385+257374865+256903359+256662837
2538+256631453+256555060+256302826+256035548+255924790+255870752+255670487
2528+255346875+255098130+254984181+254871687+254663005+254406283+254179928
2518+253999685+253863539+253803365+253856876+254024021+254252814+254435511
2508+254453272+254304169+254140425+254077393+254025319+253827000+253493095
2498+253193258+253073734+253153493+253337645+253466287+253390858+253083377
2488+252695382+252453282+252436783+252493714+252412377+252127583+251733154
2478+251364306+251102078+250948153+250852789+250758512+250627767+250456799
2468+250270718+250099856+249973511+249908410+249853531+249705514+249455542
2458+249233676+249128756+249061884+248910992+248654270+248339336+248020335
2448+247772239+247658360+247639757+247597870+247471139+247301470+247156627
2438+247079901+247079410+247105026+247082601+246987045+246807504+246486732
2428+246034250+245648727+245561218+245756294+245965221+245951790+245741391
2418+245555748+245576788+245808491+246118602+246357441+246443898+246378516
2408+246210845+246030883+245946215+245976390+246012035+245978371+245976460
2398+246168748+246603591+247276976+248360832+250300472+253680684+259067408
2388+267013680+278087491+292729172+311082305+333005045+358137222+385873481
2378+415405607+445895473+476428997+505782844+532691251+556533888+577300306
2368+594646430+607504238+615218895+618552749+618460874+614676975+606470825
2358+593759175+576662900+554753310+528102573+500298285+478260561+467483291
2348+469685019+483306157+503021699+520628789+531037790+535494476+537281927
2338+538052376+538006754+537328917+536591501+536082859+535466388+534092268
2328+531373973+527044824+521154824+513915039+505688831+496794288+487128875
2318+476528796+465529905+455090958+445519068+436128087+425999444+414842543
2308+403083688+391340508+379972400+369073449+358706809+349009275+340085381
2298+331883860+324192452+316768112+309549824+302745672+296595898+291080533
2288+286023558+281405757+277352003+273887035+270917664+268383031+266256381
2278+264451554+262846713+261381840+260073838+258935943+257919081+256956064
2268+256035811+255209975+254543656+254044237+253607833+253081010+252398105
2258+251610754+250806869+250072662+249486313+249066653+248744654+248420779
2248+248053754+247701089+247453869+247308746+247147685+246863996+246447177
2238+245946215+245442009+245050175+244852171+244805743+244787526+244727790
2228+244652660+244599025+244555385+244504942+244474469+244511552+244617839
2218+244714465+244697843+244549003+244354225+244209874+244159728+244224163
2208+244415715+244702682+245004062+245245181+245414079+245558869+245725926
2198+245904959+246049696+246145446+246227397+246332649+246470619+246649967
2188+246886141+247155768+247385174+247505943+247510870+247464740+247467037
2178+247566100+247704034+247780374+247746816+247603604+247355385+247032579
2168+246719907+246504475+246406797+246389667+246401853+246376325+246257606
2158+246078889+245915795+245741812+245482301+245208431+245092167+245184217
2148+245393249+245662508+246071859+246777907+247872495+249316222+251059437
2138+253164714+255715127+258669419+261901948+265345455+269048736+273117376
2128+277626926+282605001+288031998+293809487+299813927+305987827+312228458
2118+318242734+323702466+328433234+332307149+335109253+336594710+336602459
2108+335173915+332575409+329133900+325147141+320916423+316608910+312110003
2098+307200571+301819703+296110191+290333631+284755444+279562936+274886259
2088+270811360+267342008+264443331+262079666+260134573+258434736+256917281
2078+255646396+254681100+254011573+253556022+253201674+252919966+252782207
2068+252809261+252874713+252777017+252417602+251929334+251540691+251321700
2058+251197599+251126133+251090734+251050933+251019811+251047742+251122749
2048+251225389+251411996+251740203+252158810+252501043+252618814+252566337
2038+252550206+252663454+252821043+252936868+253001917+253044996+253120740
2028+253284168+253573222+254019147+254592644+255209834+255874014+256625176
2018+257280588+257513431+257266404+256823232+256463711+256278227+256266392
2008+256403081+256585568+256653176+256545662+256392964+256374397+256524482
1998+256778382+257192834+257928847+258878767+259508967+259385901+258725824
1988+258080037+257721411+257615176+257671213+257791842+257907071+258061364
1978+258308531+258581192+258780966+258903209+259088641+259631577+260700233
1968+261888027+262406083+262003273+261292771+260946839+261041220+261324839
1958+261687551+262138034+262602492+262966957+263232271+263541506+264054197
1948+264850998+266020505+267606270+269143223+269626195+268638912+267079272
1938+266088219+265926579+266206516+266561443+266836523+267002002+267099610
1928+267302646+267987480+269341454+270837274+271811179+272533587+273559583
1918+274285971+273648898+272054033+270994250+271174580+272045599+272679955
1908+272673467+272312141+272053963+272036763+272153429+272375857+272832214
1898+273627858+274579250+275263821+275685339+276493344+277870639+278800675
1888+278375089+277158856+276239146+275933330+276007128+276240374+276481334
1878+276669414+276891929+277336802+278471961+281051251+285169510+289095113
1868+290096125+287613882+284017887+281638845+280978470+281294298+281734717
1858+281948080+282082438+282393216+282895229+283532863+284502490+286181848
1848+288951305+292833548+296488314+297283695+294585985+291166621+289491839
1838+289539179+289978985+290245719+291333679+294344481+298408948+300956608
1828+301041539+300247035+299426511+297890383+295781792+294437162+294434462
1818+295084913+295684762+296423897+297862470+299847766+301332452+301521496
1808+300888894+300641429+301702931+304283378+307643497+310228082+310911846
1798+310368419+310591022+313127917+317550028+320795549+319839037+316091923
1788+313392424+313359321+314996862+316926263+318773643+320348555+321202287
1778+321818723+323869349+328605411+335130818+339955249+340153481+337025082
1768+333373560+330669783+329972133+331853913+334916386+336758927+337260134
1758+337941864+338968685+340084680+342593697+347721874+353993119+357925455
1748+358142727+356542111+355403849+355855542+357930259+360540267+362259373
1738+363709343+367524802+374295886+379316198+377736833+372394573+367562358
1728+364341384+362963020+363422498+364990747+367598336+372792825+381617726
1718+391350607+395693012+392421787+386063612+380845664+378397523+379298244
1708+383371373+388926206+393645577+397761942+403796312+411786381+417275325
1698+417657586+414796781+409545800+403428077+400008906+400743306+404367512
1688+410040905+418883655+430100976+436326529+432536704+425256593+421106739
1678+421682322+425740161+430321685+433419225+436448385+440673632+443385089
1668+441729664+438752017+439054536+442921718+446752677+447782443+447862605
1658+450783409+459056362+473284152+488999749+494842269+491594223+491279325
1648+496490856+501049376+499099497+494165869+492284580+495317702+503062516
1638+514818811+527615428+534863523+534276192+532551616+535231582+542743378
1628+552884890+563684814+574779051+585708124+595035460+603137743+612952329
1618+626083656+639184686+646719310+649486417+652277089+657092508+662867279
1608+667660255+670803907+673395962+676637380+680345394+683596912+686249702
1598+689111068+692881641+697330473+701596959+705380928+709340370+714082359
1588+719445027+724798859+729356047+732451868+734395471+736907573+741972245
1578+749855362+757586640+761248086+762664147+767143627+776434177+787648623
1568+796771695+803885520+811585940+821156953+833555178+850840988+871737608
1558+884474506+883236584+878382663+876057185+876264499+877737717+879250211
1548+880515485+882504253+885847715+889995325+893753625+893535861+884278764
1538+870119845+860092404+856071455+854545075+851252600+845945688+841890514
1528+840987829+842562110+845493539+849469462+853091634+853693447+851317473
1518+848177818+844709940+841035730+838992257+840358383+845597617+854466526
1508+864555964+867603464+857998927+844838424+836688661+834588802+836764756
1498+840048464+840505452+837149016+833623277+833527265+836775837+839579062
1488+838050508+833125331+828956191+827919691+828954718+829474966+828835631
1478+829325723+833430832+840830660+847188799+846677318+839480735+832339699
1468+829708790+831001416+832906866+832881688+832397138+835039267+842356619
1458+850969683+852479090+844652852+835352623+829624420+827539639+827486198
1448+827177541+824861672+821107720+817888323+816333750+816800417+819747696
1438+824548527+827762523+826286288+822308611+819392471+817919463+816537136
1428+815046174+814574528+815480369+817007450+819067193+822331334+825465098
1418+824829691+820002771+814844190+811851955+810347106+808633891+806475962
1408+805224434+805648179+806705859+807214395+807767886+809478436+812031847
1398+814188935+815152566+814527959+812374939+810095609+809376252+810050162
1388+810054651+807873016+804992223+804455844+807545143+813006138+818629001
1378+823252324+827182521+830647454+832974475+834202718+835795023+838420671
1368+841003258+842923366+845199190+848364162+850991003+851558171+850470895
1358+849058201+848085523+847754494+847994630+848380223+848255596+847307605
1348+845838033+844360186+843441510+843984342+846684892+850784110+854062488
1338+854935717+854193567+853740787+854403897+855727872+857234124+859125828
1328+861769290+864972486+868095799+870844952+873614584+876718331+879772072
1318+882495066+885520614+889638557+894638145+899238886+902171858+903505793
1308+904738174+907314238+911272909+915401583+918304187+919509076+919992925
1298+921060423+922554823+923248861+923082786+923483527+925060964+926219074
1288+924911790+921270402+917405640+914918084+913708706+913012634+912433123
1278+911770995+910749645+909202996+907400923+906230048+906633034+908612895
1268+911222202+913597615+915522703+917112623+918474050+919714216+921164361
1258+923246266+925819104+928186732+930244652+932660672+935281481+936745022
1248+936249741+934615706+933530675+934238109+936307390+937566703+936161162
1238+932765451+929742358+928298805+927564510+926432770+925088105+924057427
1228+922964821+921229865+919112122+917301702+916245847+916127742+916690632
1218+917251347+917525568+917925958+918688798+919530607+920464221+921973067
1208+924099437+926378838+928769610+931449611+933629002+934086972+933164579
1198+932868477+934644040+937871712+940837507+942637827+943772793+945097540
1188+946641664+947877692+949037485+951303069+955132765+958954817+960540389
1178+959931071+959741080+961937163+965486606+968109940+969225619+969463020
1168+968731320+967265746+967186706+970376576+975477016+978843622+978586163
1158+976367498+975174672+976596132+980064081+983778057+986459461+988059831
1148+988849882+989270682+990255072+992480330+995556373+998331826+1000014884
1138+1000725895+1001008111+1001305686+1001782522+1002168676+1002278084
1130+1002663396+1004215585+1007262664+1011459998+1015994252+1019430430
1121+1020252041+1018363634+1015819901+1015158474+1016978432+1019921573
1113+1022984152+1026695603+1031106914+1034129656+1033831169+1031124026
1104+1028506513+1027448553+1027619398+1027681606+1026704019+1025567580
1095+1026400272+1029970054+1034754193+1039113886+1042810889+1045520136
1087+1045997533+1044460072+1043830907+1046820196+1053157296+1059879988
1078+1063895256+1064679556+1064072483+1063024903+1060616317+1057367394
1070+1056012701+1057525966+1059805787+1061452235+1063461552+1066290306
1061+1068568865+1069970969+1071938066+1073741823+1071412698+1063680999
1053+1055826286+1054125766+1059000377+1065273304+1068387150+1068146312
1044+1066218630+1063689135+1061565921+1061040763+1062202170+1063463656
1035+1063077432+1061115876+1059691329+1060786390+1064012729+1067468475
1027+1070085777+1071326364+1070157874+1067068014+1064953146+1065327026
1018+1066348517+1066045892+1064507099+1062672343+1061638228+1062451774
1010+1064433108+1064829641+1062294044+1058783455+1057056985+1058273165
1001+1061431826+1063928499+1063641163+1060966211+1057710416+1054686411
993+1051511549+1047905438+1044657357+1042887966+1042676023+1043143882
984+1043540135+1043369080+1041997344+1039749714+1038867858+1040984550
975+1044289368+1045070302+1041818364+1036205460+1030824207+1027751810
967+1028000432+1030503417+1032203868+1030505591+1025663662+1020032664
958+1015400153+1012020503+1009605254+1007996748+1006874266+1005635362
950+1004153517+1002926465+1001869768+999938579+996502471+992382914+989076693
940+987389007+986793646+985854141+983444012+979983427+977188898+975992636
930+975479471+974516191+973557609+973829867+975147039+975940597+975651928
920+975319146+975561316+975819196+975761126+975882246+976482867+977271866
910+977919406+978194960+977624285+975563420+971674111+966515671+961793249
900+959219850+959236963+961286747+964225330+966322594+966638895+966374984
890+966793539+966962420+965982588+964837944+963825570+961627945+958502527
880+956548264+956093871+955400534+953955228+953058364+953423127+954353655
870+954677741+953842524+952614772+952245590+952888782+953592780+953266029
860+951395575+948573624+946068815+944487802+943636665+944072332+946863214
850+950737866+952145440+949833708+946746793+945612248+945790667+945818019
840+946240431+948208230+951302929+954254767+956207627+956654867+955834939
830+955202408+956085596+958149266+959692268+959181698+956524700+953121484
820+950602228+949962683+951905444+956276919+960866508+962950728+962373111
810+961245649+961429819+963481637+966414258+967792797+966093749+963106985
800+962192938+964388530+967402506+968622403+967942882+966759524+965768471
790+965012154+964763392+964958152+964544997+962817826+960742653+959907436
780+961112255+964431662+969099870+972856067+973134145+970074021+966801604
770+965156419+963716513+960951580+957875536+956340109+956619800+957775736
760+958697778+958702688+958303279+958569855+959492528+960527835+962050778
750+964686596+967906413+970373490+971150777+970255175+968597576+967170435
740+966177629+965474052+965146460+965187838+965248293+964985644+965142813
730+967310771+971335087+974099529+973020178+969820840+968221943+969186134
720+970799550+971501303+971191174+970494400+970564744+971705110+971801964
710+968642251+963402106+959467140+958813288+961155387+965343394+969530909
700+971599910+971069282+969426411+968086094+966875735+964955347+961460397
690+955508329+947442305+939399004+933950492+932702752+935536415+940814573
680+946368495+950206817+950909412+948573554+944968635+941531826+937830404
670+933482283+930758799+931728180+932772394+929452357+922584489+916631018
660+915465123+918767277+922345475+922354312+918888607+914905460+912103356
650+910041299+908945116+909778580+911507294+911726180+909277057+905082598
640+901087809+898372670+896016123+892684654+889630913+888508009+887385597
630+883154318+877330313+874546865+874401128+871783055+866033952+862739303
620+865599266+871614735+875208783+875561763+876623090+880938949+886030132
610+887880667+887139429+885763485+880873234+869578416+857893166+855352449
600+862956856
##END=
