##TITLE=<SNM>
##JCAMP-DX=4.24
##DATA TYPE=INFRARED SPECTRUM
##DATE=3/5/2025
##SAMPLING PROCEDURE=Instrument type and / or accessory
##ORIGIN=Admin
##XUNITS=1/CM
##YUNITS=ABSORBANCE
##RESOLUTION=4
##FIRSTX=4497.3318
##LASTX=599.83466
##DELTAX=-1.4281778
##MAXY=1.711919
##MINY=0.18185163
##XFACTOR=1
##YFACTOR=1.5943488e-09
##NPOINTS=2730
##FIRSTY=0.20248215
##XYDATA=(X++(Y..Y))
4497+126999910+126802078+127218013+127854015+128042641+127470820+126513186
4487+125815199+125684025+126143934+127251865+128787630+129954283+130027287
4477+129085391+127798854+126888446+126863249+127677129+128556348+128682503
4467+128039005+127304326+127063847+127310494+127613518+127616808+127319093
4457+126957889+126717859+126480866+125850117+124690520+123625423+123553102
4447+124568122+125699988+125829677+124718830+123086921+121870760+121627440
4437+122466312+124006787+125318877+125601488+125146009+124883641+124966187
4427+124719166+123890061+122939615+122186252+121510005+120784531+120029981
4417+119334201+118928266+119038355+119505125+119847459+119762511+119412691
4407+119225224+119497704+120171792+120935492+121493191+121659507+121335604
4397+120611887+119812392+119295031+119227943+119523658+119896489+120051253
4387+119913032+119617467+119230149+118641878+117933779+117589875+117841027
4377+118001128+117190894+115637390+114416155+114060129+114295495+114881280
4367+115785556+116673851+117005820+116658551+116023063+115552592+115480093
4357+115835231+116455438+117014530+117295114+117427765+117640579+117878010
4347+117917807+117698404+117357089+117163285+117381492+117890329+118150229
4337+117854692+117235513+116534395+115804202+115359527+115645316+116507329
4327+117249990+117500207+117467122+117363182+117172248+116976164+116909394
4317+116792856+116418119+116154443+116595389+117592174+118325200+118391362
4307+118183801+118170772+118390259+118669908+118902190+119055197+119115555
4297+119028457+118751398+118485890+118651664+119403354+120382017+121143595
4287+121532193+121522940+121157605+120782157+120764269+120811495+120255600
4277+119153753+118367697+118454262+119176483+120095629+120974905+121652357
4267+122093434+122476088+122816085+122781093+122304454+121999346+122437423
4257+123351522+124026573+124223115+124261313+124431797+124759131+125111185
4247+125214778+124813395+124050976+123393075+123098071+123180486+123783010
4237+124960467+126167440+126585086+125982974+124870930+123946896+123715932
4227+124394889+125758617+127066249+127506728+127009303+126370515+126243042
4217+126351514+126176104+125884651+125944037+126311036+126583385+126503008
4207+126020284+125360449+125135803+125810769+126992433+127789517+127861520
4197+127677175+127715607+127896027+127950768+127888709+127811761+127631313
4187+127285727+127047435+127317541+128048595+128620098+128632305+128577405
4177+129161264+130243839+131119441+131527657+131678346+131640410+131412773
4167+131271514+131446550+131674028+131543470+131183351+131168789+131715974
4157+132307077+132252411+131472804+130626539+130484476+131175201+132083599
4147+132525536+132385202+132030979+131812156+131751387+131647279+131424110
4137+131273822+131395015+131770883+132259878+132752070+133250804+133828934
4127+134382848+134598026+134374492+133978352+133602241+133223475+132960070
4117+133006128+133243467+133464505+133850589+134657216+135516995+135624224
4107+134720359+133501348+132907488+133279908+134264889+135253282+135835683
4097+136034786+136172222+136461423+136753773+136690667+136118080+135387204
4087+135102228+135477395+136144894+136645534+136828197+136769251+136665489
4077+136816683+137386682+138183476+138900389+139438059+139775178+139780898
4067+139450714+139079668+138871135+138623273+138150858+137757017+137878415
4057+138453938+139042573+139403039+139634910+139886940+140202824+140582132
4047+140994292+141380534+141721242+141982955+141972646+141478642+140680922
4037+140168552+140308138+140817751+141273361+141746374+142418088+142883138
4027+142602686+141868763+141537785+141923139+142624827+143253221+143708663
4017+143954422+143994415+143931477+143767778+143303719+142451062+141562496
4007+141249229+141816789+142966712+144081690+144702579+144720365+144286504
3997+143703682+143353646+143521477+144129590+144723590+144906692+144769031
3987+144717272+144923552+145140451+145062316+144732899+144547404+144862802
3977+145598472+146251382+146361060+145954433+145446530+145128553+144951002
3967+144848325+144947628+145321693+145901636+146694225+147631718+148270935
3957+148183651+147545490+146926152+146713002+146964855+147465579+147797530
3947+147691151+147292515+146905768+146749116+146982454+147552191+148103096
3937+148348621+148366286+148367772+148401025+148435298+148509778+148636513
3927+148752566+148873777+149111265+149444757+149702919+149862347+150096508
3917+150425196+150607223+150570764+150637935+151066152+151567989+151575157
3907+151000205+150411541+150367633+150860787+151608635+152443516+153045844
3897+152937025+152143492+151339520+151106378+151306013+151468563+151734978
3887+152542670+153508239+153759634+153431666+153364139+153594262+153584925
3878+153348886+153235824+153363232+153825310+154731886+155662220+155947186
3868+155793618+155842901+155974702+155732989+155356243+155393843+155813498
3858+156351430+157140467+158300859+159145329+159089681+158755796+158608948
3848+158579601+158705495+159168246+159891887+160702262+161713600+162966276
3838+163974679+164316321+164176483+163750444+163054654+162458962+162549452
3828+163365827+164402605+165395438+166426271+167105201+166733351+165785138
3818+165502695+166231533+167345623+168210001+168845844+169732951+171141410
3808+172431060+172660006+172368478+172930860+174359320+175296093+175190107
3798+174833828+174918711+175573714+176682364+178092319+179721779+181533753
3788+183416421+185171663+186626144+187900391+189512579+191820221+194517153
3778+197218028+200170374+203770507+207990445+212507126+216959729+221332609
3768+226169417+231763664+237599155+243233571+248961225+255058206+261313492
3758+267758751+274951895+283239970+292492651+302484189+312908552+323208983
3748+333291592+343718515+354501343+364145912+371969011+379753455+389285981
3738+400866641+413854583+427241198+439145612+447472960+452322685+456060918
3728+460576571+465441922+468949341+470815971+472597476+475495744+479485428
3718+484344612+490285977+497666626+506689894+517186877+528253008+538407582
3708+546464338+552523129+558000697+563878770+569563861+574266588+578290742
3698+582230666+586467353+591327172+596520277+600802947+602704907+602242903
3688+601984611+604040372+607324826+609515061+609672414+608702761+608042206
3678+608116901+608029981+607274020+607229383+609039076+611714043+613364701
3668+613973178+615150057+617807453+621487740+625226870+628652864+631982218
3658+635303272+638258179+640535371+642142250+642967486+643093622+643459172
3648+645391974+649287037+654014887+658311614+661866324+664547423+665574836
3638+664776369+663816473+664382256+666066897+667586595+669122369+671669629
3628+674769814+676785386+677041099+676256314+676000601+677893251+682300712
3618+688023675+693827164+699000568+702514828+703566990+703004421+702952830
3608+704331811+705626153+705268603+704241714+704747233+706878100+708502401
3598+708976069+710110776+712810568+715242309+715560455+714333257+713249542
3588+713738088+716726118+721246481+723854979+721843444+716832889+713656141
3578+715362539+720552990+725500290+728169650+729806064+731617664+731510219
3568+727157266+721134551+718415693+719604983+721249921+721135747+720333616
3558+720870090+722773731+724061194+723367479+721305998+719347700+718488369
3548+719119652+721061949+723279549+724128711+722612079+719331400+716121080
3538+715097629+717049797+720488539+723172628+724061867+723442623+722182825
3528+721717756+723546627+727561771+731527192+733400402+733745166+734012618
3518+734111688+733249442+731403074+729077955+726748274+725019221+724070540
3508+723178909+722090110+721640369+722258417+723376376+724829978+726795454
3498+728254514+728051289+726911123+726782519+728553519+731350660+734047910
3488+736500362+738780246+739770124+738046080+734440302+731723538+731130538
3478+731469844+731939623+733451545+736408919+739009416+739338179+737885250
3468+736383945+735199441+732944755+729356248+727110908+728536546+732064115
3458+734061443+733287201+731127921+728961538+727516236+727338957+728423494
3448+729933621+731075059+731775727+732174400+731974840+730635262+728271636
3438+726278719+726369415+728884002+732320501+734369495+734203880+733234638
3428+732927931+733171083+732964943+731806607+730172885+729596260+731673517
3418+735699651+738671830+738516757+735787955+732354671+729827972+728443607
3408+727551752+727487898+729389371+732953204+736263043+738094456+738577021
3398+737653239+735348308+733110669+732073685+731065339+728969165+727635419
3388+729220391+732449479+734623638+735347186+735597291+735303072+734359924
3378+733694472+733950784+734955541+736391497+737487101+736828752+733962373
3368+730240253+727214689+725444960+725285700+727185454+730568642+733531324
3358+734400225+733338792+731995775+731493172+731389017+731031543+730730070
3348+730676012+730096246+728774389+728028335+728854468+730876096+733356288
3338+735487604+736012339+734220329+731144744+728321134+726323058+725785612
3328+728267075+734228255+741033511+744823298+744440402+741942115+739577368
3318+738001966+736883483+735825788+734989188+735137382+736502456+738129823
3308+739021080+739313056+739890803+741276887+742776697+742845859+740800155
3298+737615555+734684949+732919632+732857274+734127241+735369168+735603123
3288+735057976+734564794+734801889+735837078+736964010+737685390+739002013
3278+742082832+745356408+745188474+740736750+736082698+735997609+740976836
3268+746880667+748994412+746308154+741623296+738379778+738169974+740605155
3258+744081506+746098947+744675927+740870363+738048772+737374572+736451687
3248+733948092+731972223+732257021+733516370+733602580+732459348+731874797
3238+733098556+735268603+736176683+734813479+732556325+731351483+731492948
3228+731888929+732165503+732683658+732710949+731254731+729650468+730545463
3218+733882444+736575057+736494605+734586851+733013169+732876041+733570953
3208+733701351+733008533+732748334+733394570+733869509+733783299+733851115
3198+733780533+732361849+729937435+728299600+728258851+729134705+730261039
3188+731267442+730976362+728004633+723163955+719392038+718275200+718439844
3178+718241105+718178448+719228442+720685034+721340168+721454042+721976834
3168+722723560+722586881+721228686+719270163+716885004+713676179+710046474
3158+707620042+707721579+709920861+712484945+714002549+714086067+712779015
3148+710305328+707354160+704658406+702634759+702021721+703563999+706314260
3138+708041370+708033669+707536150+707508784+707740346+707565161+706237023
3128+703311501+699588110+696741022+695676523+696021511+696887721+697572613
3118+697683571+697101338+696029437+694979593+694558339+694965611+695495879
3108+695019370+693274690+691161692+689579861+688544522+687647433+686879845
3098+686752287+687742689+689376113+690138766+689234872+687790168+687097874
3088+686761858+685861853+684625981+683840972+683665188+683704816+683649113
3078+683537107+683550940+683487909+682787464+681513385+680591099+680517974
3068+680561265+679702757+677908953+676033649+674782225+674220031+674244630
3058+674907315+675810910+675780179+674015535+671352979+669546613+669383390
3048+670102752+670577316+670424262+669956277+669580110+669271834+668467833
3038+666744387+664695916+663532646+663522029+663582293+662873624+661851894
3028+661183227+660587236+659356149+657376915+655134043+653321023+652628653
3018+653054767+653429738+652544388+650759705+649499758+649182808+648785256
3008+647491812+645644323+643959981+642793421+642198103+642161690+642659808
2998+643416479+643770440+643315988+642590272+642413291+642714913+642782430
2988+642367457+641720997+640900322+639767334+638334967+636665580+634845830
2978+633408753+633093448+633625585+633557171+632111346+630352309+629622181
2968+629734934+629618368+628930784+628118708+627445031+626768139+625979130
2958+625093593+623999447+622486217+620591436+618762788+617565461+617034333
2948+616349515+614725102+612648069+611282472+610736539+610138081+609205738
2938+608396204+607824962+607368978+607288563+607579119+607459375+606442953
2928+605135489+604320273+603884252+603020249+601161133+598540485+595996402
2918+594358717+593898882+594206560+594595588+594569307+593856525+592425542
2908+590673945+589155069+588060998+587269111+586639884+585989461+585122392
2898+584105035+583130784+582062285+580610029+578971858+577790419+577399671
2888+577404494+577057076+575947827+574267074+572506169+571201658+570808256
2878+571182442+571267867+570138617+568333186+567200833+567104156+567235826
2868+566900707+566094837+565096397+564239646+563781905+563493405+562752959
2858+561397269+560066664+559324498+558804286+557747601+556208612+554931580
2848+554007910+552663734+550624983+548675059+547529696+546958305+546246383
2838+545083375+543771126+542683747+541809314+540960600+540143627+539397199
2828+538537159+537422601+536262060+535382654+534856461+534482612+533992644
2818+533275227+532522070+532016476+531637841+530848757+529371416+527538507
2808+525864783+524746076+524438398+524635865+524299849+522727962+520546999
2798+518885724+518004187+517358474+516531182+515548145+514577520+513739349
2788+513111843+512638325+512053662+511160498+510140151+509241753+508282941
2778+506941682+505377234+504035077+502984821+501894452+500567772+499234887
2768+498298170+497878673+497704160+497434278+496863298+495814276+494236445
2758+492408919+490671715+489065807+487549511+486308555+485532743+485086479
2748+484638794+484021568+483313460+482591968+481737834+480630268+479402658
2738+478220135+476982506+475582702+474215497+473044937+471890938+470664076
2728+469718387+469288983+468959659+468161154+466910104+465656325+464609734
2718+463555403+462253211+460767047+459335689+458087967+457011617+456087237
2708+455296657+454559912+453772174+452851196+451827820+450959779+450519347
2698+450337207+449842904+448729318+447286371+445887726+444498725+443000711
2688+441689172+441006224+440906555+440850328+440355987+439316835+437913292
2678+436465560+435279074+434462325+433888840+433364815+432812527+432300727
2668+431918915+431621966+431221087+430571860+429737728+428870696+427959251
2658+426880620+425676376+424485741+423286058+422097029+421261139+420986360
2648+420837082+420261503+419414585+418893887+418830594+418737543+418200322
2638+417307270+416314513+415257117+414101025+412982803+412048778+411282013
2628+410649048+410176914+409773829+409184642+408223961+406988426+405826053
2618+405071775+404797033+404852624+405036035+405045792+404498290+403355095
2608+402164011+401489848+401216153+400755384+399882669+398963000+398337624
2598+397924782+397573401+397402178+397487154+397488462+396988252+396106491
2588+395399691+395148352+395071825+394789793+394279825+393768698+393370324
2578+392971090+392433756+391832419+391386080+391165172+391016156+390758163
2568+390294178+389630072+388976172+388660157+388743002+388915272+388897962
2558+388708159+388472522+388271017+388215575+388400967+388665839+388598958
2548+387956908+386994620+386212489+385828995+385685511+385605582+385610629
2538+385779347+386065155+386268679+386174132+385783273+385352972+385110643
2528+385057332+385093221+385139168+385120400+385010788+384846705+384608264
2518+384261294+383948980+383863930+383911222+383773495+383325100+382768962
2508+382356382+382121567+381930193+381706968+381501836+381343474+381178120
2498+380985363+380810402+380639889+380368699+379934286+379426449+379026542
2488+378834420+378789484+378770305+378696358+378533322+378339219+378294058
2478+378486105+378684507+378551005+378058159+377498021+377142677+377060542
2468+377143761+377140471+376798062+376157808+375589444+375404987+375549405
2458+375734573+375741115+375531834+375230325+375074654+375223408+375481365
2448+375381883+374706412+373793210+373190565+373131795+373430838+373716421
2438+373673989+373220958+372556404+371970170+371601256+371456725+371566226
2428+371921420+372287269+372304504+371868147+371265165+370872885+370808545
2418+370882792+370825443+370573394+370365646+370469090+370796021+370941598
2408+370657360+370145785+369809507+369839602+370141373+370529055+370830079
2398+370881147+370622256+370217527+369952019+369949850+370047126+369968468
2388+369552336+368707137+367222319+364776596+361128722+356236491+350283237
2378+343648717+336699304+329578855+322385057+315453102+309118802+303288302
2368+297676634+292457322+288260955+285543275+284357256+284719479+286810643
2358+290799823+296777732+305030740+316077468+329481692+342558909+351542026
2348+354147981+350990934+345305805+340471745+337129044+333986727+330434297
2338+326807957+323313250+319781045+316226223+313216286+311444557+310993826
2328+311332720+311947329+312666522+313615819+315138097+317517910+320619179
2318+323943186+327022921+329660093+331924125+334051852+336248404+338485520
2308+340543150+342272802+343758853+345205875+346697310+348074684+349075928
2298+349630384+349982288+350475919+351268704+352261873+353216684+353938139
2288+354434050+354839004+355139056+355165861+354923532+354651145+354494016
2278+354363393+354145027+353850621+353598422+353537933+353670650+353743962
2268+353520624+353093052+352723315+352507716+352405319+352441881+352678752
2258+353042732+353307866+353292875+353088828+352996113+353152121+353359233
2248+353388805+353275603+353216722+353368617+353774916+354301446+354677539
2238+354777020+354783488+354968767+355400264+355895764+356186171+356159777
2228+355988479+355920663+355976852+356006387+355990423+356082951+356354253
2218+356673820+356890279+357021874+357212687+357528889+357845950+357998107
2208+358055904+358331768+358996173+359808062+360384276+360619689+360699842
2198+360858953+361259570+361919601+362646252+363215139+363646262+364119070
2188+364655656+365104574+365406346+365675704+366029328+366469424+366941895
2178+367451975+368101613+368946962+369832462+370549281+371164525+371939477
2168+372936309+374022978+375224866+376724152+378538406+380490536+382472125
2158+384563103+386935626+389704879+392821999+396087237+399272173+402213583
2148+404830343+407121928+409161501+411070601+412994468+415083538+417441444
2138+420027324+422644644+425132164+427546895+430075201+432864492+436020604
2128+439548099+443157054+446347860+448830220+450692177+452082935+452889590
2118+452823905+451750209+449819762+447312616+444504333+441666778+438925004
2108+436064831+432777685+429157102+425638580+422398913+419175097+415778226
2098+412401430+409247075+406231194+403261072+400455108+397903959+395512107
2088+393194839+391003707+389024585+387320617+385925186+384756570+383638349
2078+382534521+381639600+381072358+380622131+380017878+379303863+378686713
2068+378188222+377739827+377420970+377313152+377297862+377197745+376948948
2058+376559546+376084384+375650270+375358667+375181014+375037119+374928329
2048+374901860+374903094+374811202+374688841+374812473+375307487+375940900
2038+376467168+377003343+377851570+379074507+380415841+381571597+382409543
2028+382938241+383160831+383009011+382426890+381503668+380457563+379453590
2018+378511489+377618662+376802848+376035596+375207782+374273120+373314309
2008+372438604+371674829+370974759+370285530+369631218+369083454+368616591
1998+368098959+367503641+366997299+366723230+366622104+366530137+366322090
1988+365925697+365366082+364817159+364438711+364170960+363850534+363472759
1978+363179773+363031728+362908171+362626924+362143761+361640223+361341293
1968+361249027+361186295+361078103+360995744+360967182+360952228+360930507
1958+360861158+360668925+360374294+360095627+359879131+359682411+359524871
1948+359485766+359536684+359504945+359248185+358817697+358387621+358046446
1938+357778059+357612967+357618463+357754432+357902364+358027267+358180172
1928+358370349+358520150+358512786+358299243+358033660+357994742+358255876
1918+358555928+358616267+358477756+358373265+358424071+358578359+358712459
1908+358732871+358630810+358461232+358282382+358128394+358013659+357943562
1898+357923935+357944684+357968610+357978629+357996425+358015753+357981770
1888+357854437+357637081+357399387+357313738+357514421+357882587+358138001
1878+358124132+357886251+357595508+357490083+357696448+358033062+358166264
1868+358038146+357933244+358037772+358258830+358459138+358604229+358708571
1858+358802556+358939983+359132516+359313048+359408454+359400454+359361872
1848+359481280+359898720+360448541+360764257+360763696+360707544+360774612
1838+360954845+361205063+361544219+362036354+362654402+363180782+363420046
1828+363495190+363638411+363841262+363978203+364059366+364181839+364403345
1818+364763175+365301256+366000392+366761999+367479004+368122287+368723437
1808+369280772+369768122+370244070+370843949+371630379+372512813+373363096
1798+374186686+375109496+376192651+377291918+378163735+378849561+379748557
1788+381098116+382740175+384393973+385969263+387589975+389374845+391254635
1778+393010456+394567427+396147689+397922726+399599291+400792096+401728925
1768+402872157+404314318+405950583+407748275+409600849+411251394+412636507
1758+414018292+415644537+417518532+419497691+421467467+423370660+425177885
1748+426865554+428398524+429797693+431228901+432915747+434901449+436975603
1738+438959734+440939865+443053498+445219208+447297101+449404752+451697309
1728+454124228+456513724+458755998+460940214+463379806+466380023+469914097
1718+473485406+476393544+478537084+480531497+482899347+485699517+488748409
1708+491945233+495233352+498433241+501559744+505037068+509143431+513451822
1698+517449693+521250808+524916065+528371743+531978082+536140185+540715579
1688+545284170+549871116+554909336+560382118+565603375+570315859+574891403
1678+579758998+585072035+590498534+595620459+600629033+605856757+611011506
1668+615661857+620116011+624920725+630165758+635661869+641273798+646867932
1658+652196633+657161653+662060053+667290955+672559017+677362011+682241943
1648+687779028+693657437+698925948+703337820+707312513+710992912+714387315
1638+717484733+719668313+720056369+719361831+719080996+719308072+719375813
1628+719159130+719231806+719824881+720062500+718829918+716392868+713881796
1618+711652906+709414220+707128878+704702147+701636805+697838868+693926907
1608+690449285+687368840+684595699+682396492+681025437+680284318+679710459
1598+679082840+678443333+677771675+677004611+676204947+675373431+674299062
1588+672872004+671372270+670207056+669434683+668793456+668222513+668030579
1578+668472020+669454497+670747119+672303230+674130905+676079109+678028211
1568+680258672+683256421+687146549+691602461+696229297+701099733+706952571
1558+714327649+722602658+731369727+740519543+749558476+758349696+767155944
1548+775523668+782622695+788593445+794250760+799536393+803009978+803832970
1538+803907217+805067646+807132416+809481313+812000310+814824145+817903842
1528+821095395+824253601+827221442+829899625+832356713+834930293+837880564
1518+840963401+843930196+846923758+849993660+852910135+855823469+859279558
1508+863031362+865525461+866328639+867298031+869184102+871019628+871770617
1498+871597823+871872977+873388488+875230893+876266306+876595742+877364302
1488+879339124+882027925+884740203+887437153+890177320+892499448+893674981
1478+893506375+892864774+893253054+895356032+897973726+899440263+899858675
1468+900114089+900386177+900606299+901242516+902819862+904818013+905730280
1458+904454033+902486762+902695894+904769936+906399845+906167011+904190843
1448+902068948+901645003+903077669+904946617+906173965+906859680+907522963
1438+908321281+908939853+909024642+908727955+908381023+908181163+908479121
1428+909462569+910441531+910580753+910259915+910461495+910866449+910260513
1418+909043484+908907104+909860270+910571108+910529835+910227690+909849354
1408+908943442+907218426+904990582+903042452+901989094+901614422+901253059
1398+900852143+900900743+901187934+900718080+899091835+896804848+894109693
1388+890835295+887446648+885360419+885640656+888061332+891593536+895267131
1378+898547286+901239152+903298016+904828107+906162376+907670634+909609791
1368+912134546+915054535+917715371+919601442+920984012+922480905+924080457
1358+925343097+926339854+927667842+929555857+931516174+933056882+934159140
1348+934812255+934758346+934286623+934509886+936063006+938216304+939795370
1338+940346872+940191052+940114562+940927311+942573370+944007457+944599410
1328+945008401+945935473+946858433+946881462+946325922+946431347+947542204
1318+948657845+949081566+949366215+950128719+951100952+951821434+952206649
1308+952036697+950960010+949360084+948204740+947850031+947889061+948147915
1298+948836471+949734382+950283791+950519242+950824453+950665716+948697548
1288+944493013+939301814+934693745+931160120+928378381+926159659+924505749
1278+923091551+921362497+919153495+916869275+914978120+913537753+912237056
1268+910696048+908687205+906328215+904029265+901987972+899994981+897889087
1258+895727339+893429885+890838585+888078379+885510183+883588447+882770240
1248+883067974+883807971+884255095+884269975+884239693+884902378+886969990
1238+890095297+892671344+893407603+892629174+891568713+891137515+891649689
1228+892989640+894829876+896863917+898801055+900298920+901281023+902280771
1218+904086315+906889513+909859298+911800250+912410298+912616961+913467544
1208+915009150+916607356+918134531+920164609+922979770+926042494+928577642
1198+930337427+931782504+933666332+936249034+938821866+940339321+940459625
1188+939698393+938869494+938618716+939267644+940904282+943501713+946693565
1178+949548355+951235463+952292559+954472476+958549155+963005366+965673604
1168+966124691+965859108+966665576+969249325+972768146+975623309+977196991
1158+978225301+979161121+979424909+978979281+979337055+981970600+986162425
1148+989160772+989087946+987200231+986374472+988006699+991054394+993606291
1138+994843135+995545074+996971310+999497411+1002245429+1003936799+1004604270
1128+1006003887+1009079173+1012074305+1013046763+1013010200+1014095186
1120+1016213567+1017817082+1018281926+1018091637+1017964080+1018394380
1111+1019367810+1020480610+1021795214+1024049153+1027312709+1030090859
1103+1030566172+1028742609+1026945140+1027156963+1028623052+1029507131
1094+1029916795+1031748508+1035786381+1040468696+1043755955+1044785462
1085+1043799022+1042503484+1043539795+1047352462+1050728771+1050488610
1077+1047198735+1043675428+1042239547+1043658156+1046624502+1048933097
1068+1050087320+1051453366+1053874340+1056639182+1058487419+1059028154
1060+1059142403+1059819893+1060851493+1061298243+1061152143+1061614894
1051+1063224017+1064591558+1064573838+1064800615+1067438646+1071491025
1043+1073741823+1072721737+1069834199+1067257628+1066351118+1067433263
1034+1069773486+1071734700+1071853210+1070320054+1068788766+1067858778
1025+1066030206+1062097309+1057375515+1054457695+1054801113+1057649622
1017+1060803416+1062901235+1064052168+1063968725+1061900739+1058798088
1008+1056962337+1057179020+1058064969+1058309466+1058124785+1057823312
1000+1056395282+1053151091+1049478693+1047354181+1047140863+1047650420
991+1047563836+1046333946+1044376545+1042622294+1041394572+1039948747
983+1037743558+1035540239+1034501760+1034319172+1032783996+1028116411
974+1021137688+1014162853+1008877070+1006029159+1005675797+1006544847
965+1006033496+1001978500+994636545+986785482+981503064+979724886+979796142
955+979024741+976130922+972362818+969508402+967448716+965071034+962667181
945+961112117+959622850+956973005+954211005+953586677+955227053+956920068
935+956868028+955321264+953684999+952860885+952660502+952435968+952012247
925+951781283+951854408+951825547+951617537+951576862+951598919+951437715
915+951674811+952833893+954008229+953813828+952162161+950019480+948078752
905+946327492+944745511+943773203+943601681+943471207+942626756+941577585
895+941075430+940561985+939203790+937614407+937026267+937338207+937183059
885+935797423+933868883+932256396+930833899+929273974+928243346+928839786
875+930900967+932638171+932473079+930942838+930005074+930654301+931949316
865+932459172+932010253+931349736+931023515+931045871+931002355+930639497
855+930345950+930536614+931016113+931571429+932619778+934490819+936587592
845+937866306+937774190+936590209+935049650+933540943+931843741+929898527
835+928166408+926987885+926303067+926120853+926397128+926670561+926789296
825+927169650+927772595+928050664+928344958+929872732+932658583+935082698
815+936372553+937730001+940258868+943644374+946834955+948478098+947631030
805+945106500+943179380+942868188+942491497+940071046+936234902+933594403
795+933954196+936982003+941212708+945429057+949016292+951794218+953759620
785+954612894+953927403+952003424+949713895+947814740+946523389+945360493
776+943785241+942108302+940975912+940115759+938881308+937683868+937585620
766+938788443+940694627+943199568+946369513+949088819+949738569+947878294
756+944719341+942322816+942134770+943978222+946424319+948249676+949205236
746+949273800+948156588+946211823+944781101+944531145+944832842+945493733
736+947099267+948829367+948364897+945263217+942135667+941178912+941537882
726+941292637+940401305+940195389+940885739+941087543+939956125+938717562
716+939134254+940801249+941328452+940084804+939630876+941717629+944286648
706+944170605+941065411+937382545+935206068+934023433+931715361+928049094
696+924978070+922866194+919677857+914752689+910502693+909093056+909362976
686+908538787+906409415+905192161+905454454+905019592+902145363+897518228
676+892366732+887284697+882279077+875566385+865693992+858155692+862294131
666+874221948+881568464+879132610+870082836+861123907+856885127+857689950
656+861007341+864279421+866254243+865783716+862129338+856637788+852155707
646+851102274+854248067+859931252+864272019+863796557+858429125+851339369
636+846139571+844119065+843493166+841821834+839043759+837200531+838205364
626+842286529+847098869+849145919+847206762+842489978+836085264+829160375
616+824054488+822065385+821322322+819517601+817190537+816639558+818591202
606+820779941+820857851+820179763+821902312+825725670
##END=
