##TITLE=<SNM>
##JCAMP-DX=4.24
##DATA TYPE=INFRARED SPECTRUM
##DATE=2/5/2025
##SAMPLING PROCEDURE=Instrument type and / or accessory
##ORIGIN=Admin
##XUNITS=1/CM
##YUNITS=ABSORBANCE
##RESOLUTION=4
##FIRSTX=4497.3318
##LASTX=599.83466
##DELTAX=-1.4281778
##MAXY=1.7472119
##MINY=0.19136229
##XFACTOR=1
##YFACTOR=1.6272179e-09
##NPOINTS=2730
##FIRSTY=0.20941661
##XYDATA=(X++(Y..Y))
4497+128696108+128378226+128821153+129468328+129796668+129617778+129035291
4487+128220516+127471922+127390989+128353207+129744883+130442928+130149459
4477+129556093+129244749+129181370+129210619+129329785+129431039+129261406
4467+128747381+128178676+127995646+128450569+129439848+130487176+130936862
4457+130520610+129719691+129193916+129009110+128785347+128322466+127742003
4447+127265028+127077932+127237711+127591189+127834282+127728395+127374533
4437+127251732+127725565+128498280+128854614+128482318+127774347+127267363
4427+127016101+126666964+126073653+125608776+125629298+125800011+125452183
4417+124656282+124299215+124882370+125790890+126063727+125504701+124736382
4407+124386394+124451329+124425588+123980426+123389487+123174754+123498625
4397+124049235+124352923+124100361+123370549+122625866+122319183+122483000
4387+122856798+123314158+123833110+124129463+123756563+122639748+121230399
4377+120162055+119861324+120252027+120783717+121018715+121083843+121325114
4367+121824150+122418999+122800965+122542716+121455004+119942368+118727495
4357+118196857+118123122+118087289+118048543+118207013+118451929+118493605
4347+118438861+118606150+118906880+118974022+118695572+118225914+117776769
4337+117600900+117893773+118593540+119374652+119855692+119854493+119560951
4327+119383534+119457270+119430448+118986321+118390345+118141519+118278734
4317+118515555+118855296+119457792+120067019+120184417+119780500+119413800
4307+119566509+120058988+120315570+120184087+120129491+120508627+121099420
4297+121449537+121320930+120819816+120382273+120463023+121046380+121691394
4287+122037069+121992015+121562622+120817893+119948027+119183765+118713017
4277+118647953+118960634+119519605+120273922+121250042+122266033+122891560
4267+122880195+122450858+121982335+121602613+121261717+121067113+121220674
4257+121615909+121877885+121898334+121931090+122169156+122651387+123362005
4247+123967871+123867872+123020094+122159404+121807327+121797327+121973269
4237+122455290+123049050+123222986+122880296+122586782+122886468+123717012
4227+124586722+125101984+125124457+124643865+123896315+123446657+123711618
4217+124491064+125249621+125606917+125449894+124980941+124674277+124779999
4207+124989980+124933524+124750650+124823653+125184438+125553941+125855505
4197+126314128+126897787+127066284+126492424+125678977+125394482+125847345
4187+126745966+127689146+128272008+128290607+127963219+127684366+127717021
4177+128216121+129154475+130164065+130859711+131303938+131798358+132365744
4167+132809010+133109768+133370435+133469070+133217039+132816236+132708269
4157+132908854+132880274+132249848+131361603+130884207+131027273+131352958
4147+131338627+130916963+130372837+129958856+129770130+129773152+129811989
4137+129743564+129639673+129743225+130199285+130883630+131462280+131580081
4127+131063977+130040027+128938130+128340057+128606200+129523786+130437690
4117+130803896+130564300+130083278+129855688+130086621+130446069+130508367
4107+130418083+130666864+131304955+131924053+132281386+132434095+132475872
4097+132513948+132650129+132788635+132711328+132389856+132045710+131961058
4087+132274490+132839001+133328641+133582778+133739004+133969323+134243982
4077+134428267+134438880+134237279+133865963+133560709+133596945+133936429
4067+134234459+134232673+133982601+133729554+133682612+133831027+133985568
4057+134030989+133981154+133819077+133557165+133349776+133254172+133095474
4047+132811474+132608975+132570862+132454736+132105728+131752406+131654659
4037+131700236+131605090+131366941+131281484+131589303+132235095+132911995
4027+133344556+133582064+133882492+134297389+134637633+134803823+134816341
4017+134660582+134398157+134196272+134049332+133772722+133376699+133140711
4007+133247643+133592979+133978499+134333652+134745142+135301997+135866416
3997+136064400+135609330+134626251+133627018+133187167+133552595+134424906
3987+135224754+135634211+135736408+135681555+135509166+135330440+135429295
3977+136000417+136824194+137394373+137472770+137333659+137325646+137451131
3967+137599042+137932107+138712267+139823798+140751081+141114045+141020557
3957+140748279+140347723+139835565+139598808+140186790+141545645+142771058
3947+143110076+142999600+143333252+144010280+144091278+143199617+141992254
3937+141458631+142375429+144826089+147656098+148985557+148105902+146401940
3927+145663959+146141804+146651278+146475208+146499091+147762837+149648721
3917+150209881+148355791+145235125+142926789+142390483+143195780+144969083
3907+148337540+153775415+159916307+164126809+165163963+163546007+159804788
3897+154933520+151271421+150854015+153234182+155275221+154654731+153526827
3887+155035186+158422031+160461083+160813132+161364411+161285180+158964171
3878+156648271+157491250+161263239+165741047+169699775+172136022+171606081
3868+169439099+168748005+169638493+169208991+166162876+162741910+161730031
3858+164718106+172438328+183252521+189307132+183650577+172688381+164385690
3848+160839213+161290162+164104978+167863194+172234996+177371481+181997127
3838+183393125+181010046+177634025+175268400+173441819+171435221+169781313
3828+169012399+169166097+171374031+177170640+184458374+187348409+184865990
3818+181802733+179440771+175526768+170622974+167857553+168988351+173637495
3808+179275259+183001479+185652926+189856542+194173802+194454807+191374718
3798+188645177+186669110+184412751+182705016+182869319+184843261+187991445
3788+192083926+196736184+201185457+205625006+211419233+218800264+225718989
3778+230697527+235373026+242357685+252854207+266426971+280990169+293872993
3768+304343525+312899951+319083791+323538742+328973797+336381805+343409632
3758+348380074+353724543+363379349+379441804+400323676+419507208+432012690
3748+442267235+456436772+472858089+482600330+484952365+489275669+500691122
3738+517475659+533994411+544738733+548591930+549072623+550439464+554618190
3728+560930601+566819352+569615926+569101277+566698986+562443045+556325138
3718+550710341+548414276+550363017+555221226+559026951+557273556+550914112
3708+545200891+543457423+545926198+550556899+553674936+553023182+550562649
3698+549707014+551896560+557026708+565029217+575516508+585594352+589834359
3688+586623136+581311524+578806010+579912522+583279569+587307124+591501747
3678+595955856+598786972+597510204+594439236+592844522+590667724+584013630
3668+574324502+566027745+560679687+557581686+556186567+556974840+560119068
3658+563797797+565616136+566504299+569927499+576988586+584629560+587426757
3648+583183269+575757972+570029513+567940736+568393846+569012377+568685749
3638+568491025+569593582+571512213+573771941+578046711+586068158+594729857
3628+597358154+594347625+591581893+591804199+595230000+601138604+606698090
3618+608808259+608744193+610165356+614290566+619624485+624039327+625819828
3608+624667674+622446884+621421250+622505125+625550599+629713354+633790249
3598+637435426+641031958+643614871+643331137+641213349+641187635+644914496
3588+648680038+648102826+645166435+644440653+646484595+648856593+650020542
3578+650395924+650428304+649814462+649148533+650558413+655494131+662080606
3568+665341902+662250202+655825484+650604860+647990152+647174993+647263711
3558+647918431+648876593+649744499+650039369+649396004+648399307+648555423
3548+650260393+651334598+649208606+644482045+640273941+638425236+638322892
3538+638772633+639130433+638972558+638415273+638369193+639104352+639353142
3528+638242380+637109934+637597769+639009042+639339296+637971027+635601226
3518+632568353+628907279+625421662+623478305+623752589+625708913+628298492
3508+630903456+633258385+634349513+632410259+627497838+622775526+621296562
3498+622758383+624536979+625309721+626158873+627947212+629172625+627552490
3488+623307757+619340751+617956731+618627789+619096943+618013727+616104583
3478+615004737+615522682+617030437+618375263+619176503+619700016+619729686
3468+618604639+616446412+614171446+612459260+611814685+612758781+614928620
3458+616525459+615725318+612634460+609201846+607452920+607932331+609427046
3448+610188543+609488950+607683029+605156123+602291564+599871983+598469392
3438+597925440+598059614+599087629+600605238+601288274+600503224+599182317
3428+598320858+597666504+596435962+594564840+592876463+592235881+592646281
3418+593348218+593889570+594428577+594763300+594291618+593148879+591980828
3408+590676441+588713854+586539547+585270105+585337174+586389218+587901222
3398+589142423+589230664+587762835+585128750+582193019+579840655+578567660
3388+578205684+578179457+578252241+578866412+580553763+582936165+584558718
3378+584157585+581930823+579242747+577573747+577819972+579518239+580796875
3368+580270249+578779636+578319969+579784208+582423091+584664797+584881499
3358+582241188+577615725+573348648+571584411+572731985+575446619+577841804
3348+578816266+578601029+578217772+578404877+579099121+579765820+579704612
3338+578279054+575663760+573062935+571462104+570764013+570605260+570967382
3328+571612506+571881185+571528587+571099176+571075147+571147784+570658153
3318+569697464+569318565+570264273+572019426+573661026+575095119+576687416
3308+578176820+578720809+577770266+575700463+573606998+572298289+571599246
3298+571003279+570750717+571489430+572932204+573887911+573823370+573390442
3288+573183447+573084986+573179455+574167616+576108372+577694149+577768361
3278+576710896+575543211+574747429+574448970+574614463+574741056+574291791
3268+573486449+572976819+573017991+573311578+573284619+572592426+571700930
3258+571441664+571725692+571632579+571061264+571036429+571867705+572250450
3248+570993352+568905601+567903667+568538534+569368199+568901425+567530922
3238+566903820+567585757+568254360+567567698+566098954+565521558+566221810
3228+566811696+566191993+564937973+564029664+563279632+561973268+560367784
3218+559309183+558792960+558124759+557172934+556477298+556440009+556984913
3208+557554836+557279746+555820599+553956106+552806480+552662379+552809667
3198+552410329+551456599+550638546+550307083+550062909+549454782+548505887
3188+547432561+546304254+545113786+544042438+543456434+543421856+543284201
3178+542171388+540142794+538348008+537655961+537597390+537159151+536158572
3168+535005540+533716391+532195009+530752418+529462610+527920570+526271497
3158+525367950+525531355+526196076+526687904+526590506+525792526+524481106
3148+522724854+520547030+518610450+517721225+517583827+517237163+516544933
3138+516127976+516160394+516203873+515815011+514664067+512616865+510252046
3128+508756854+508732129+509409268+509551391+508956523+508472351+508605903
3118+508773155+508153305+506842692+505625154+504817211+503972272+502618801
3108+500797971+498965493+497676381+497280926+497719604+498571759+499223769
3098+499107690+498131249+496821661+495698592+494665449+493491574+492590958
3088+492558357+493192931+493739887+493941241+494113438+494307466+494121533
3078+493315934+492141657+491078147+490364086+489730098+488766771+487645094
3068+487030300+487086123+487085867+486290708+484791157+483262120+482182201
3058+481451070+480699024+479858334+479219437+478943798+478867205+478767352
3048+478461897+477755674+476770553+476156345+476381984+476939599+476745168
3038+475231259+472781423+470388289+469077016+469201410+470094152+470763195
3028+470832901+470361329+469191594+467262120+465182647+463743719+463143906
3018+463124016+463414710+463715404+463657382+463048778+461896149+460301874
3008+458640787+457469439+456944315+456713547+456458787+456100254+455600881
2998+455009529+454438215+453756021+452677164+451248383+449898795+448977409
2988+448404776+447757051+446770025+445780948+445373112+445535528+445584429
2978+444980111+443891144+442924740+442473022+442307565+441821597+440722154
2968+439334435+438245908+437887998+438258179+438720080+438381438+437057747
2958+435538014+434647800+434418608+434288389+433769858+432836091+431895438
2948+431406870+431360094+431205443+430457060+429315456+428461029+428209309
2938+428132204+427605394+426466537+425000723+423602235+422612461+422146237
2928+421927704+421471773+420469655+419037980+417662385+416787666+416405544
2918+416168842+415823753+415366174+414919107+414609695+414450026+414258526
2908+413800617+413078570+412420187+412147148+412114804+411797187+410963237
2898+409986027+409313321+408978672+408782556+408581055+408214281+407487180
2888+406470227+405570673+405037563+404605771+403917937+403067027+402364321
2878+401839123+401368687+401027297+400886639+400684589+400107487+399293207
2868+398652771+398213800+397566112+396526888+395399790+394434009+393529473
2858+392676439+392208420+392357650+392838489+393052517+392598051+391554065
2848+390358396+389416424+388814121+388407823+388074382+387749989+387327025
2838+386693000+385887181+385109018+384523894+384107193+383684522+383100716
2828+382299623+381250253+379975390+378728072+377891558+377575516+377509143
2818+377347606+376910356+376244390+375616738+375253920+375016156+374567478
2808+373833710+373044009+372390240+371822881+371130798+370193442+369173962
2798+368362429+367843495+367451007+366981925+366330684+365515892+364670623
2788+363913375+363209131+362454154+361671193+360994237+360451860+359899630
2778+359246081+358603741+358067847+357479280+356615513+355542956+354593695
2768+354000622+353666705+353325279+352870117+352397263+351914006+351257454
2758+350404420+349594608+349000400+348498022+347879089+347121109+346380491
2748+345806905+345372183+344877205+344165525+343265421+342305317+341425543
2738+340769833+340381741+340129215+339866250+339580831+339292957+338939223
2728+338445380+337815678+337121433+336448508+335822285+335155220+334316691
2718+333282815+332198060+331292902+330726569+330453201+330237231+329853241
2708+329276725+328639257+328043437+327510290+327059634+326697146+326320885
2698+325767299+324975143+324055625+323221528+322658785+322406735+322303549
2688+322081683+321612382+321036488+320547884+320113528+319589978+319008370
2678+318478740+317940539+317312191+316736261+316380183+316165166+315924582
2668+315623998+315243341+314679316+313957526+313328702+312981086+312818925
2658+312640685+312376401+312037795+311603219+311095384+310646633+310344547
2648+310087552+309706529+309182540+308636353+308127822+307583430+306932446
2638+306209612+305509635+304934767+304584311+304491235+304535227+304482334
2628+304163545+303620783+303022674+302425755+301743800+301000105+300419413
2618+300153041+300074837+299932860+299579510+299031474+298426020+297928606
2608+297614414+297432126+297285955+297111414+296857459+296461748+295948510
2598+295523421+295391682+295458366+295406389+295095310+294678060+294329015
2588+294074621+293884348+293744166+293627848+293495523+293309755+293019592
2578+292598001+292126448+291750535+291512038+291320483+291093524+290797006
2568+290399701+289963019+289676556+289616978+289631501+289602179+289599047
2558+289675201+289768991+289853203+289939613+289929485+289656300+289116230
2548+288567058+288295668+288255558+288082263+287564208+286915036+286484069
2538+286379381+286411450+286281048+285865373+285365084+285078364+285085305
2528+285237411+285330963+285264279+285155305+285210048+285388838+285416164
2518+285175012+284845637+284636993+284574906+284535785+284400512+284198278
2508+284060074+284039891+284085404+284114543+284004342+283655755+283155886
2498+282694846+282322339+281979869+281692618+281522088+281404085+281204801
2488+280910425+280651361+280507370+280362883+280048179+279582303+279174833
2478+279024871+279150474+279309173+279103625+278361469+277401310+276734978
2468+276549027+276641279+276768256+276846186+276862431+276800362+276678898
2458+276543935+276401445+276221868+275994360+275742036+275509748+275321727
2448+275115538+274790028+274396056+274178713+274303328+274604205+274728508
2438+274498656+274041461+273596867+273302877+273162237+273108189+273061633
2428+272985480+272901524+272825005+272735481+272664548+272729089+272992897
2418+273357876+273658314+273808331+273821445+273752526+273651995+273537967
2408+273406850+273289525+273248848+273283371+273285844+273164984+272993208
2398+272956615+273103904+273238756+273206009+273194343+273540110+274306313
2388+275306526+276492946+278097166+280404477+283517001+287315034+291611030
2378+296386913+301859550+308229177+315379128+322875047+330181261+336800850
2368+342331178+346565618+349499701+351101118+351219945+349950686+347789676
2358+345101745+341756713+337570588+332981975+329207751+327501572+328309479
2348+331389348+336324919+342493265+348644102+353169859+355158087+354831166
2338+352964768+350175264+346848107+343444540+340439872+337888278+335345328
2328+332382308+328928559+325101662+321117477+317362960+314133129+311304430
2318+308542435+305689798+302787712+299915937+297119106+294385333+291717568
2308+289250222+287164577+285465541+283963005+282464591+280913136+279370033
2298+277911472+276553587+275326471+274360232+273731683+273266632+272693595
2288+271963325+271252506+270719561+270391028+270192385+269978522+269610979
2278+269091001+268575711+268203736+267929983+267603099+267182534+266769735
2268+266459499+266310727+266395433+266673966+266897902+266846639+266580542
2258+266307485+266120179+265994374+265919136+265903257+265936865+266026571
2248+266190141+266361441+266393400+266225581+265986645+265877689+265986938
2238+266249060+266571934+266950722+267395902+267818299+268137564+268466463
2228+269010177+269784366+270571796+271172177+271613932+272101108+272788466
2218+273654614+274589919+275538484+276526609+277599624+278753334+279947685
2208+281224965+282734479+284523734+286375132+287994663+289346155+290685285
2198+292250293+294027222+295852704+297595678+299171546+300559980+301869238
2188+303213460+304550337+305769120+306805011+307595518+308130789+308568332
2178+309103237+309735760+310261763+310466194+310316012+309963817+309543160
2168+309034666+308344158+307407351+306251827+305004638+303727944+302302111
2158+300611628+298719626+296774914+294873462+292983658+290987811+288917569
2148+286952381+285119719+283562898+283136821+284851516+288617845+293320249
2138+298076609+302724654+307306546+311824903+316362381+321003229+325759240
2128+330685800+335888914+341389133+347096054+352910190+358805388+364812453
2118+370942338+377174457+383549102+390213635+397403256+405599940+415764083
2108+429105714+446515998+468368962+494521677+523857521+554076655+582686496
2098+608035957+629293211+646476756+660482082+672061929+681157985+687293327
2088+689734996+687771199+681222453+669988537+653850772+633265052+609138110
2078+582292433+554073468+526179629+499616990+474863276+452443539+432645653
2068+415444928+400808764+388451632+377745588+368327594+360199188+353264290
2058+347413634+342686634+338907355+335709612+333056626+331212609+330335692
2048+330460783+331687112+334317423+338917831+346075695+356225076+370015494
2038+388446065+412142057+440716147+472891458+506782582+540162940+571092070
2028+598338440+621282423+639965372+655046441+667297933+677279769+685249751
2018+691083704+694516721+695428803+693817752+689780123+683516576+675159784
2008+664621174+651589029+635761225+617334611+597155555+576207493+555081446
1998+534015473+513350230+493645492+475140564+457539512+440725305+425164385
1988+411237191+398805847+387612920+377554124+368567739+360637500+353759232
1978+347720152+342152095+336870153+331967586+327661681+324160679+321448867
1968+319065476+316354286+313144528+309958396+307380794+305478042+303942283
1958+302533025+301178840+299840901+298503620+297242951+296196566+295459447
1948+295073003+295161207+295824518+296583102+296333214+294586284+292294157
1938+290714424+290130930+290023294+289876903+289580311+289312346+289220277
1928+289339654+289858405+290965760+292286868+293230634+293960922+294872803
1918+295294393+294241268+292291044+291044019+291178762+292051320+292652708
1908+292534192+291989123+291557331+291468650+291603942+291842823+292296099
1898+293153803+294230866+294920348+295105658+295614354+296874932+297846445
1888+297439360+296211695+295336939+295058607+295024157+295090420+295271701
1878+295492322+295644537+295802796+296580868+299007170+303276243+307430281
1868+308414267+305673938+301826198+299249751+298285893+298160308+298216754
1858+298236131+298247706+298339189+298549041+298971767+299856358+301495743
1848+304210944+308055551+311680765+312364240+309470414+305880621+304117648
1838+304138747+304575172+304843046+305989320+309202540+313569763+316288719
1828+316234140+315057958+313815182+312012447+309847810+308529028+308501482
1818+309049720+309490560+310086453+311561242+313844010+315695902+316029526
1808+315256784+314722978+315473742+317807536+321089418+323779400+324571922
1798+323950095+323957055+326335646+330755103+334074788+333092853+329122147
1788+326061143+325670156+327083517+328955628+330825286+332367876+333041644
1778+333364976+335198919+340039289+347093270+352572170+352964842+349418822
1768+345131012+341987591+341219867+343327142+346658658+348533517+348766445
1758+349008422+349563913+350350647+352867077+358391618+365193623+369295499
1748+369139163+366998409+365531752+365839845+367662397+369710112+370684574
1738+371567096+375225935+382204935+387533433+386141721+380920658+376187467
1728+372969980+371556033+372157458+374186711+377538117+383661409+393503686
1718+404157862+409069623+406017007+399866573+395187410+393727677+395939640
1708+401451727+408402485+414234973+419059372+425677605+434615749+441561965
1698+443481989+441924307+437670893+432213018+429307507+430669403+435098420
1688+441672917+451543619+464101079+471911355+469429248+463009987+459591806
1678+461101979+466528169+472878162+477789191+482527180+488608677+493401428
1668+493719924+492528467+494755522+500719766+506351962+508610042+509704797
1658+513755025+523229869+538473611+554267752+558508273+553250580+551549529
1648+555311408+557405936+552249671+544407050+539949205+540310522+545296898
1638+554367166+564099443+567129130+561701072+555733896+554878298+558780176
1628+564286951+569269262+574102562+578649637+581120682+582117342+585163146
1618+591564018+597383905+598061006+595904574+595481097+597675698+600739266
1608+602959544+604133236+605051545+606202196+607358525+608310387+609473639
1598+611389633+613976026+616633444+618918776+620871730+622677578+624250461
1588+625399171+626288909+627369561+628857389+630739794+633461461+638061283
1578+644742263+650693284+651917452+650451601+651928221+657457341+662896058
1568+664624105+664821466+667078154+672677163+682932771+700637412+724910067
1558+742542254+745938055+746558197+751616478+760339422+770043751+778857390
1548+786543712+794565195+804242052+815166373+825866007+832487574+828239178
1538+815755746+805967974+802599426+802271443+800423543+797139170+795860278
1528+797755943+801143832+804771426+809231102+814011509+816464020+815881313
1518+814019128+811317022+807914921+805710614+806673025+811641489+820919594
1508+832327794+836549744+826548566+812478553+804332454+803236198+806794049
1498+811114972+812238554+810040694+808620044+810947721+815917430+819341876
1488+818069064+813471733+808979529+806655003+806570095+807792065+809850585
1478+813134665+818063423+824259644+829541513+830051253+825200297+820023117
1468+818737191+821097615+823828878+824453343+824849604+828696830+836923294
1458+845503382+846794655+839804593+831499668+825791722+823073425+822987492
1448+824393197+825563298+825741832+825420735+825340296+826511937+830128908
1438+835740372+839692579+838741963+835223599+832919219+832135928+830915789
1428+828439836+825958680+824524331+824112612+825051873+828047384+831535565
1418+831387728+826613035+820754320+816432518+813759936+812079435+811257316
1408+811590793+812622947+812761261+811440098+810597686+811997530+814838244
1398+817287458+818728327+819017482+817610166+815103590+813461623+813860814
1388+815367251+815848786+814864617+814599857+816778377+820655859+824778981
1378+829220270+834752613+840542171+844346174+845470122+845668509+846346746
1368+847305494+848574130+851131842+854895479+857748646+857852309+855827854
1358+853494536+851789420+850391774+848733470+847103371+846337662+846679491
1348+847636408+848691712+849672072+850814408+852626337+855082950+857044988
1338+857290774+856104482+854989032+854968299+855683459+856130049+856269755
1328+857451213+860671264+864885594+867977294+869390765+870546947+872580047
1318+875247721+878185723+881542477+885012929+887770639+889639564+891208418
1308+892896318+894695280+896397540+897620755+898116796+898268956+898810564
1298+899913120+900857509+900796411+899752462+898583459+897901119+897326471
1288+895976078+893385985+889788428+885838857+882312947+879679779+877765579
1278+876221341+875289186+875506620+876803901+878531288+880109739+881157937
1268+881491195+881438008+881666652+882547525+884075646+886062885+887861994
1258+888468070+887523022+885792411+884359307+883722169+883620924+883408984
1248+882797120+882331702+882540052+882674117+881549070+879673845+878788210
1238+879256851+879865638+880153841+881042920+883179242+886158416+889105429
1228+891139261+891808707+891371933+890368424+889386379+889379786+891209004
1218+894539970+897962145+900364766+901703364+902583798+903614926+905119825
1208+907152411+909558988+912102707+914643935+917081941+919266907+921259348
1198+923548563+926692937+930600969+934218380+936264154+936678803+936960047
1188+938596299+941557012+944661752+946970748+948292790+948722384+948496012
1178+948495353+950064133+953486381+957162107+959475937+961021494+963357156
1168+966432080+968811184+969784072+970311687+972007573+975596852+980105833
1158+983431085+984078113+982339957+979886713+978813167+980563998+984690636
1148+989001303+991893518+993930866+996052024+997769521+998618307+999739325
1138+1002087587+1004224129+1004059295+1002164143+1001234699+1002728022
1130+1005794815+1008989884+1011314777+1011893161+1010703279+1009523800
1121+1010428336+1013722966+1018316780+1023231619+1027683603+1030670322
1113+1031851779+1032114415+1032173902+1031457643+1029411210+1027122361
1104+1026339656+1027404118+1029229307+1030663289+1031031858+1029996920
1095+1027887777+1025988230+1025720759+1027372543+1029909668+1032596097
1087+1036321859+1042033102+1048480018+1053117935+1054813308+1054728180
1078+1055169349+1057839514+1062003222+1064314268+1062307322+1057786547
1070+1054818436+1055476600+1058522660+1061284033+1062139778+1061060005
1061+1059135622+1057520102+1056495274+1056125240+1056368022+1057053366
1053+1057996290+1059061630+1060366456+1061523005+1061534507+1059989683
1044+1058000392+1057793067+1060785648+1065666420+1069325516+1070191151
1035+1069479874+1069082221+1069330058+1069416651+1069428959+1070369831
1027+1072237291+1073741823+1073506806+1070715324+1065912939+1061352164
1018+1059420529+1060507921+1062867685+1064326429+1063883575+1062211352
1010+1061171359+1061866739+1062884754+1061918387+1059293277+1058031601
1001+1059994078+1063367828+1064522179+1061813113+1056619742+1051177142
993+1047054020+1045324288+1046259447+1048403828+1049488436+1048923751
984+1048146027+1048070277+1047767422+1046252121+1043571553+1039850992
975+1034983333+1029407987+1024162162+1020210394+1018007332+1017038035
967+1015629180+1012344513+1007487697+1002520258+999007975+998129446+999498081
957+1000432800+998064098+992413221+986212604+982082449+980835351+981755858
947+983364711+983948737+982466915+979457559+976114211+972790498+969677625
937+967855001+968153167+969936378+971922079+973291007+973603020+972703539
927+971069631+969552352+968696167+968717778+969755867+971266186+971700176
917+970196816+968311115+968425619+970472565+971576807+969371254+964647330
907+960164723+957943859+958159316+959735642+961267793+961674090+960524867
897+958196751+955991199+955439774+956670974+957827670+957221447+955399188
887+953667405+951973717+949666187+947157926+945848924+946927598+950148455
877+953267408+953506381+950513727+947051333+946051486+947636677+949325090
867+949179450+947988836+947457045+947674552+947867665+948212644+949225384
857+950603543+951657382+952071812+951724488+950182154+947101662+943490552
847+941843676+943698535+947331771+949211025+947895943+945403506+944548347
837+945762477+946859906+946071413+944599408+945059698+947757482+950287794
827+951166397+951260169+951357824+951161928+950886838+951524343+953373781
817+956031198+959177624+962034088+963309024+962776720+961566032+960344136
807+958525833+955652520+952987996+953011146+956581158+961052556+962637747
797+960537615+957097418+954791134+954609670+955952957+956954342+956228193
787+954730182+954695530+957056320+961433066+967147606+972403541+974452025
777+972389475+968494776+964915021+961053362+956396544+953355319+954654431
767+959492420+963888434+964564107+962265368+960413000+960607211+961432847
757+961629036+962104930+963845211+965868567+966754568+967041819+968461883
747+970953221+972076583+970458572+968428916+969087959+971679297+972121345
737+969024297+966361165+967946062+972249549+973913640+969950298+963060308
727+958059683+957186722+959209052+961375338+961830573+960660251+959220041
717+958977992+960273441+961777753+962084930+961517828+960907063+959651394
707+957444376+956409804+958745173+963394225+966740283+966081753+961633578
697+955851493+951488299+949194981+947382173+944950249+942468727+940168669
687+937418798+934895958+934285853+935008045+934276622+931031589+926600337
677+922159049+918333361+915192357+910922129+902930462+892085188+885459373
667+889709820+899778542+906980398+908394235+905265245+901092453+899047998
657+898990123+898268809+895478792+891664166+888420378+887052476+888544553
647+892301158+895718204+896183256+892802986+886591160+880196991+875992331
637+874452708+875051166+877249392+880385268+883677187+884941208+880853470
627+873006051+868182055+869966219+874103846+873240116+865007351+853601495
617+845152762+843310503+848899183+861529793+878540666+893065695+898290641
607+894698724+888041919+882448771+877643675+870809070+860194271
##END=
