##TITLE=<SNM>
##JCAMP-DX=4.24
##DATA TYPE=INFRARED SPECTRUM
##DATE=2/5/2025
##SAMPLING PROCEDURE=Instrument type and / or accessory
##ORIGIN=Admin
##XUNITS=1/CM
##YUNITS=ABSORBANCE
##RESOLUTION=4
##FIRSTX=4497.3318
##LASTX=599.83466
##DELTAX=-1.4281778
##MAXY=1.8172716
##MINY=0.28298795
##XFACTOR=1
##YFACTOR=1.6924661e-09
##NPOINTS=2730
##FIRSTY=0.29835644
##XYDATA=(X++(Y..Y))
4497+176285038+176945034+177875220+178594047+179038969+179315586+179365595
4487+178984734+178171594+177452820+177512654+178320336+179104104+179309951
4477+179009668+178412218+177771891+177660269+178395314+179426715+179940100
4467+179669998+178905705+178257278+178338983+179174381+180094864+180464226
4457+180272167+179966795+179843604+179638461+178935359+177877685+176987066
4447+176513830+176486078+176887946+177332763+177285518+176905837+176818392
4437+176980146+176695218+175778591+174909825+174734864+175158937+175663870
4427+175924269+175890249+175621749+175276564+174972125+174592866+174057312
4417+173680518+173936691+174958055+176324271+177211015+176997438+175954732
4407+175001584+174703502+174917749+175332049+175792255+176050911+175808385
4397+175222029+174856910+174892903+174809789+174230001+173603462+173640916
4387+174435620+175361421+175684613+175267654+174608221+174095347+173559546
4377+172847111+172316046+172287362+172465105+172316997+171759432+171213823
4367+171163690+171797872+172878190+173765428+173756764+172666550+170969641
4357+169303794+168194633+168175598+169389497+171047050+172095179+172315958
4347+172038056+171308540+170215544+169396593+169468824+170386596+171604862
4337+172416857+172263995+171240095+170101527+169466130+169295747+169339593
4327+169670551+170442451+171314422+171506816+170601723+169092964+167861016
4317+167290843+167204507+167359394+167675243+168244395+169324045+170927433
4307+172383400+172846600+172230380+171173675+170331216+170040952+170214329
4297+170303271+169858754+169102015+168579790+168613846+169327496+170586896
4287+171680403+171762954+170826570+169674372+168988984+168897700+169230436
4277+169713305+169982297+169820120+169414096+169110291+169025628+169147992
4267+169507845+169962452+170234279+170347821+170571700+170966172+171419318
4257+171880915+172246861+172342389+172177535+171957461+171923616+172195937
4247+172455913+172082659+171046275+170122006+169871978+170128468+170639564
4237+171372337+172106273+172463573+172331243+171815674+171029775+170238382
4227+169833573+169906491+170138540+170285856+170511636+171077284+171928107
4217+172763029+173331529+173469248+173108549+172543147+172396131+172926368
4207+173616211+173860815+173744685+173664248+173612460+173397386+173216878
4197+173501155+174271910+174968955+175004155+174347206+173404377+172498315
4187+171824074+171686743+172177747+172728938+172653484+172114989+171936981
4177+172446299+173123587+173488917+173736990+174259725+174970100+175373183
4167+175170717+174625319+174255974+174238612+174305543+174227325+174052487
4157+173783794+173304394+172807667+172750826+173178667+173567153+173552925
4147+173431125+173617778+173942062+173926267+173587121+173426370+173630122
4137+173773194+173437253+172775848+172335856+172525908+173289884+174144916
4127+174623858+174761664+174897006+175017961+174792638+174280204+173968986
4117+173985045+173928926+173584533+173217213+173109376+173203989+173308374
4107+173457943+173857910+174466629+174966349+175200406+175235236+175062405
4097+174705334+174386561+174172473+173863615+173461764+173220241+173233519
4087+173459986+173896332+174377563+174601477+174498448+174216953+173886154
4077+173705294+173910666+174397813+174776861+174888730+174883641+174829705
4067+174616920+174242504+173946975+173978054+174248614+174381367+174210579
4057+174033593+174155322+174418944+174443966+174108430+173611615+173273332
4047+173362257+173910701+174625196+175101127+175159870+174956312+174798079
4037+174825919+174893132+174847366+174804647+174957739+175225357+175305178
4027+175067723+174788870+174917995+175583697+176423567+177010116+177311826
4017+177539930+177661044+177389181+176648238+175724902+174952491+174533718
4007+174617571+175186389+175950083+176649999+177272910+177772596+177915632
3997+177573722+176840966+175822860+174699259+173927570+173916459+174529369
3987+175311693+176115096+177015487+177718607+177736850+177286452+177292896
3977+178205896+179399950+179995920+179801818+179238301+178740623+178481368
3967+178525144+179006305+179960350+181040774+181680784+181580432+180887578
3957+180044309+179564099+179684455+180272783+181263966+182717151+184189442
3947+184895573+184870885+184957714+185409662+185547363+184989428+184242708
3937+183950120+184362026+185373441+186468339+186816571+186044319+184777770
3927+183978083+184014216+184556040+185190926+185930478+186951402+188020768
3917+188431863+187651247+186042752+184673279+184325681+184955232+186248740
3907+188388951+191602700+195010939+196937907+196792194+195303791+193091209
3897+190709158+189335248+189943298+191990499+193392214+192881769+192057536
3887+192854933+194641682+195521296+195642110+196305892+196717392+195361953
3878+193363617+192929841+194479628+197086367+199888969+201796672+201719334
3868+200508552+199967310+200175746+199888528+198802962+197937014+198205214
3858+200135439+204162698+209486495+212100964+208807200+203030504+198754573
3848+197096756+197767212+199825999+202238213+204674974+207321667+209690968
3838+210543816+209594560+207963015+206483681+205198343+204292000+204213764
3828+204778144+205403926+206573926+209432224+213166403+214820434+213874805
3818+212696564+211839191+210139817+207914345+206663520+207252922+209698998
3808+212951276+215489393+217547828+220400069+223141198+223377720+221708034
3798+220556189+220248052+219996616+220005561+220960434+222888705+225503720
3788+228809247+232829234+237280355+242139278+248105039+255638707+263892822
3778+271768558+279678103+288861012+299918627+312577181+325644225+337304818
3768+346357158+352245581+354631083+354728988+355058554+356778618+358951124
3758+360671364+362738322+366730100+373432015+381954576+390027654+396986905
3748+405322319+417173087+430893982+441055289+446613301+452576773+462260529
3738+475445729+489389938+500814185+509082299+516512832+525245607+535184198
3728+544722823+552196744+557259736+561097366+564135380+565218815+564255683
3718+562993026+562946891+564760141+568208827+570721640+568579176+562176857
3708+555485754+551664676+551637523+554063314+556212082+556516679+555873676
3698+555727628+556794300+559149796+562383232+566279500+570730374+574145498
3688+574742120+573700383+573114185+573363104+574249496+576342304+580432691
3678+585697515+588654176+586753093+583105322+581455270+580557643+577292828
3668+572026278+567429848+564662799+563488890+563271456+563200246+562695542
3658+561742976+560989037+561855637+565557926+571510339+576839084+577826445
3648+573996951+568239044+562548931+557931055+555453142+555458742+556918090
3638+558506898+560036576+561979603+564443781+567410373+570738686+573203216
3628+573429982+572355492+571356297+570844832+571665473+574792024+579141577
3618+582244180+583856514+585483603+587515344+589562157+591912371+594868609
3608+597764203+599570726+599749773+598615201+597462176+597802308+600100188
3598+603686681+607574144+610750704+612406919+612809315+613350751+615299131
3588+618243255+619755500+618396452+616113081+615802321+618071745+621056369
3578+622669266+622291522+620798012+619710774+619784026+620466967+621041859
3568+621370017+621077922+619383602+616383764+613433583+612220829+613454714
3558+615941360+617470580+617049729+615743367+615198057+615924597+616955487
3548+616861808+615198550+612724230+610295129+608300543+606955018+606173962
3538+605504897+604913170+604811462+604953811+604572052+603852908+603932218
3528+605263515+607123429+608564886+608772952+606813514+602185706+595832304
3518+589973323+586513578+585737980+586692132+588286293+589566031+589701196
3508+588552785+586815358+585250427+584102368+583406362+583568363+585188198
3498+588027725+590421080+590386496+587414163+582803084+578670682+576806543
3488+577519488+579250717+579963557+578821097+576068980+572211698+568215906
3478+565607970+565405504+567136345+569515859+571800004+573475131+573549651
3468+571698084+569211015+567609071+566951980+566311865+565344331+564399336
3458+563537842+562547523+561664476+561085533+560072146+558137641+556506502
3448+556452654+557169333+557061743+555940942+554518044+553316277+552950718
3438+553871624+555461841+556343233+555496847+552992839+550002615+547748405
3428+546393301+545551741+545226330+545445595+545878278+546126880+545730400
3418+544329583+542511649+541647655+542152394+542828643+542421069+541090618
3408+539935655+539520158+539334631+538452042+536444496+533802294+531610348
3398+530661515+530690147+530770126+530606399+530661022+530983087+530982594
3388+530315678+529256613+528302955+527811810+527882879+528276366+528463935
3378+527988391+526831809+525333580+523870253+522960757+523230067+524661065
3368+526295022+527082523+526688614+525391196+523803022+522684757+522461266
3358+522896098+523419361+523614995+523443626+523209711+523198019+523314554
3348+523237955+522772836+521945997+521124052+520941907+521631820+522626260
3338+523163470+523001363+522310640+521177548+519624908+517951859+516593832
3328+515821862+515788123+516535653+517625110+518075544+517392463+516376469
3318+515968015+515638871+514222524+512163807+511334502+512428537+513950503
3308+514151595+512794308+510575104+508177805+506418543+506052139+506956633
3298+508227180+509036234+509124314+508841551+508875501+509556786+510402361
3288+510769153+510882519+511581236+513016672+514166739+513934901+512536409
3278+511311962+511296150+512361166+513516234+513829565+513244389+512456359
3268+511963313+511634415+511173135+510429902+509359708+508181819+507395022
3258+507221611+507345788+507407736+507292257+506806501+505621498+503873999
3248+502398908+501951539+502475014+503432053+504377329+504826037+504252941
3238+502817505+501472861+500820102+500294725+498954871+496921581+495418668
3228+495184964+495485018+495261210+494705441+494552913+494358899+493099024
3218+491281090+490616850+491460136+492223549+491542722+489712567+487819337
3208+486523117+485738856+484941916+483912082+483159446+483143845+483344480
3198+482738701+481080092+479339566+478888322+480074135+481489708+481239698
3188+479078885+476496235+474854988+474315877+474317778+474339860+474129470
3178+473517775+472345873+470759600+469198332+467836537+466480869+465230996
3168+464577004+464509844+464219580+463090045+461485143+460079396+458849350
3158+457319355+455495997+453923072+452967829+452543738+452397973+452334334
3148+452223364+451959302+451499007+451009588+450705766+450333903+449334391
3138+447796507+446498949+445669926+444567121+442693121+440689273+439588792
3128+439601858+439871026+439346283+437869679+436280060+435415503+435215150
3118+434971761+434349888+433771966+433634829+433635745+433236165+432311914
3108+430992697+429422836+427969686+427109072+426928371+427130555+427486112
3098+427931263+428273896+428125594+427305552+426224089+425517799+425225986
3088+424815207+424121561+423643834+423756882+424182663+424321421+423780689
3078+422657951+421459918+420594550+419999830+419416908+418751541+418043596
3068+417400346+416957133+416611014+415951317+414766842+413434489+412518443
3058+412099389+411704740+410916464+409856765+408949031+408408194+408161881
3048+408033584+407788363+407260979+406590612+406073124+405766378+405517777
3038+405281572+405082029+404770635+404124990+403132522+401994323+400880777
3028+399804738+398770290+397922848+397402015+397095164+396724639+396220815
3018+395829125+395753407+395827892+395640781+394893392+393588614+392022310
3008+390670306+389925065+389797965+389895729+389761479+389212472+388301885
2998+387107549+385790903+384770014+384427593+384553426+384426677+383584448
2988+382250862+380967461+380080012+379630001+379497864+379502689+379414399
2978+379035281+378335577+377423546+376407306+375435933+374793211+374659384
2968+374782998+374656426+374047055+373145519+372224684+371428836+370883315
2958+370665388+370576147+370212032+369389383+368363423+367577823+367239558
2948+367096926+366680795+365858780+364972564+364333857+363894799+363515963
2938+363198828+362920151+362522966+361877427+361045481+360300945+359962609
2928+360069882+360253753+360028466+359156619+357752210+356206860+354974948
2918+354235413+353789311+353396916+353113132+353131234+353396106+353551028
2908+353257032+352512813+351668435+351065931+350642369+350049304+349213942
2898+348512407+348235772+348151215+347788297+347006184+346128349+345537362
2888+345214592+344803286+344158838+343603914+343501713+343793209+344069597
2878+343920098+343216379+342222749+341323749+340591363+339858625+339169557
2868+338745219+338522503+338159374+337540213+336930208+336557747+336307349
2858+335939748+335431240+334964888+334686176+334554075+334358687+333905014
2848+333285888+332857818+332802596+332871200+332701310+332233726+331670561
2838+331140606+330579342+329919188+329236494+328636139+328115130+327627084
2828+327169642+326742276+326313677+325878845+325494586+325225382+325023973
2818+324689511+324079330+323360080+322851326+322599591+322306932+321713973
2808+320876920+320039093+319400668+319030918+318821831+318497547+317864228
2798+317085919+316526557+316322999+316283626+316142861+315783289+315308414
2788+314943243+314730845+314378458+313578172+312421907+311351502+310697828
2778+310337833+309878102+309181321+308508982+308080982+307776244+307367578
2768+306801103+306171904+305611803+305218634+304968553+304688009+304190737
2758+303481524+302770903+302215027+301716170+301103524+300404806+299775009
2748+299258261+298777294+298281711+297774225+297223280+296564359+295802073
2738+295025190+294296766+293635660+293103628+292760784+292558864+292403043
2728+292231762+291964637+291549843+291092137+290740296+290477731+290172059
2718+289732367+289132787+288414823+287702599+287093757+286563326+286064768
2708+285654025+285436609+285414633+285428737+285282514+284912570+284387352
2698+283781926+283165600+282666337+282374823+282183662+281868094+281348616
2688+280773143+280321459+279990889+279629098+279170071+278740346+278459450
2678+278238706+277918331+277510229+277139933+276835495+276526953+276199024
2668+275929856+275784724+275712545+275579141+275318795+274997874+274695266
2658+274399139+274048459+273600051+273080661+272643170+272488618+272634155
2648+272825562+272744949+272268507+271521982+270750540+270162881+269850078
2638+269751151+269674254+269469023+269201069+269018783+268880607+268621017
2628+268230947+267837496+267466989+267057971+266660346+266420620+266372601
2618+266374097+266280982+266105968+265956187+265865009+265771929+265640708
2608+265488180+265301421+265039754+264740915+264529644+264474599+264492543
2598+264436106+264246952+263976886+263669647+263304740+262897413+262572918
2588+262454974+262530058+262694383+262866192+262980949+262966457+262808295
2578+262564096+262279379+261983832+261759267+261685786+261743137+261855129
2568+261959796+261980082+261865818+261715773+261699380+261823152+261913010
2558+261838172+261655851+261539491+261591948+261710543+261665817+261334560
2548+260817477+260340666+260073047+259996008+259940224+259791429+259602487
2538+259449431+259300196+259106605+258889664+258631836+258213556+257587721
2528+256947429+256593246+256647252+256965813+257275587+257334682+257071448
2518+256654841+256334378+256187662+256139484+256167658+256307736+256502032
2508+256603265+256528058+256353642+256254839+256293438+256296766+256078839
2498+255738567+255548849+255602433+255749836+255806466+255658957+255282833
2488+254809666+254464357+254316778+254201511+253965693+253685326+253546480
2478+253592228+253682420+253674884+253548276+253348434+253114818+252892242
2468+252736581+252661232+252601327+252448095+252148517+251792572+251540326
2458+251428034+251341540+251207484+251092340+251081299+251139461+251103521
2448+250822872+250346360+249916846+249716123+249682208+249621986+249432040
2438+249176677+249004568+249014394+249162378+249268366+249167538+248928428
2428+248828991+248986044+249142868+249015239+248689546+248469788+248475670
2418+248585602+248671392+248744099+248888051+249109975+249281255+249259350
2408+249060740+248862535+248815943+248911277+249053556+249195008+249341759
2398+249514942+249770516+250228733+251112625+252801117+255763360+260435137
2388+267295549+276992389+290126910+306873721+326966084+350058390+375929790
2378+404219690+434022329+463917660+492560546+519133446+542953102+562923541
2368+578065573+588430051+594761618+597406673+596233081+591509340+583781887
2358+572645192+556932881+536028400+510609934+484276972+463384218+452980860
2348+454613232+466962682+485809925+504391663+517165133+523097226+524488040
2338+524151606+523545581+522888561+522205234+521524547+520613925+519068787
2328+516444193+512340176+506665947+499579350+491151066+481505697+471194784
2318+460968887+451173385+441641416+432093107+422314298+412064453+401275179
2308+390279918+379490821+369027205+358900622+349253984+340195376+331667356
2298+323614140+316069150+309050558+302534416+296527944+291062731+286116203
2288+281604561+277487567+273839601+270739939+268132795+265906231+264038482
2278+262532382+261298902+260230681+259277921+258380752+257472947+256584582
2268+255799141+255122064+254503114+253940671+253471696+253083492+252682768
2258+252158589+251487006+250778392+250189712+249766009+249401929+249007069
2248+248650332+248434307+248304547+248138989+247935431+247744217+247532225
2238+247270716+247034987+246890436+246783780+246634897+246474269+246415245
2228+246489413+246576418+246561415+246499221+246517605+246627977+246742100
2218+246815581+246878938+246969377+247099875+247268339+247458532+247646612
2208+247833899+248060366+248360121+248716488+249069738+249354121+249530579
2198+249605804+249636408+249723871+249960938+250320035+250656662+250908504
2188+251186934+251585052+252030590+252389493+252597083+252681465+252733464
2178+252807667+252860881+252855968+252827389+252774844+252642268+252448782
2168+252298174+252246122+252243974+252183400+251978239+251655311+251352316
2158+251183254+251138950+251149480+251203134+251345132+251584312+251902292
2148+252349169+253041354+254111829+255722507+257991174+260850353+264134890
2138+267808511+271943801+276531760+281463426+286668521+292190417+298109638
2128+304419017+311063668+318068913+325442288+332989531+340440350+347678383
2118+354669188+361246715+367047270+371647608+374820082+376585296+376985650
2108+376031639+373858606+370665282+366576692+361742438+356413588+350843462
2098+345176663+339364592+333235949+326808943+320417823+314418324+308904476
2088+303733119+298720488+293838796+289240060+285070979+281343351+277975208
2078+274880705+272078720+269705122+267808159+266242577+264873034+263700287
2068+262738247+261952119+261287897+260666605+260057041+259538795+259173694
2058+258903910+258640006+258344143+258053879+257883391+257905472+258037327
2048+258138384+258170344+258241308+258529124+259080931+259722191+260310519
2038+260946585+261782458+262820427+263980320+265169866+266319686+267481199
2028+268765427+270134354+271401220+272429311+273251062+274012995+274747741
2018+275195445+275048781+274383978+273606196+273004397+272558102+272086327
2008+271436914+270584383+269619472+268656217+267774192+267013949+266336467
1998+265649829+265010717+264672769+264709325+264741021+264351602+263633902
1988+262985017+262584627+262355325+262201618+262097321+262067862+262143861
1978+262291529+262445447+262575524+262649146+262669907+262794120+263163905
1968+263608439+263794283+263680512+263541121+263574067+263759382+264051724
1958+264469986+264970340+265407497+265695911+265916726+266210018+266622628
1948+267148234+267893650+268987721+270160433+270703788+270279697+269464779
1938+269038100+269156449+269486790+269755184+269945905+270165628+270482287
1928+270918422+271581042+272580606+273745482+274775298+275729872+276807990
1918+277691301+277843406+277448475+277286104+277822310+278889563+280000574
1908+280793358+281274166+281678412+282161087+282717033+283314394+283978669
1898+284753527+285572214+286243814+286774086+287497104+288478267+289093924
1888+288794169+287943030+287259403+286957535+286823937+286674596+286504900
1878+286396641+286371654+286398437+286678365+287699905+289599509+291458665
1868+291808675+290353324+288330600+286926473+286357602+286262920+286290319
1858+286284631+286259521+286314690+286518036+286908107+287549226+288525617
1848+290009319+292100559+294117438+294574598+293104684+291262362+290418125
1838+290568064+291018251+291443697+292313749+294213652+296683887+298268188
1828+298397049+297995850+297639588+296989471+296084871+295594218+295789993
1818+296292267+296755238+297347423+298439275+299950041+301217488+301705921
1808+301646861+301726841+302497543+304127908+306233359+307936167+308598681
1798+308589243+308998049+310665709+313343693+315377828+315181666+313514604
1788+312402150+312709353+313937040+315381456+316814884+318088670+318981895
1778+319811200+321495976+324659294+328686254+331611888+332014355+330777547
1768+329357150+328405746+328502700+330042555+332242495+333752134+334562245
1758+335532491+336699568+337954548+340121912+343806204+347900676+350342315
1748+350620147+350085261+350093256+351208739+353301511+355537655+356947874
1738+358024583+360618819+365220813+368896618+368560360+365939429+363762486
1728+362621188+362394845+363024958+364317516+366441597+370252144+376167157
1718+382466851+385505922+384092145+381039023+379002634+378782665+380275927
1708+383143382+386618200+389764825+392875352+397243254+402662472+406576243
1698+407769839+407400054+405701331+403238879+402079620+403242507+406073124
1688+410111635+416018336+423337546+428009024+427255402+424504482+423457638
1678+425172596+428990504+433004891+435807510+438341384+441749922+444761452
1668+445577198+445508242+447090500+450704181+454546776+457075790+459087914
1658+462537727+468893911+478651766+489331477+494329845+493789888+494748512
1648+499127789+503539502+504326017+503047899+503180282+505965750+511352111
1638+519046987+527606033+533445363+534993389+535915668+539725195+546797564
1628+555528684+564500270+573684218+583069576+591651267+599238342+607447854
1618+617427896+627477811+634547539+638943051+643110706+648060544+653281417
1608+657657841+660358329+661708644+662888152+664638750+666948111+669840958
1598+673614668+678254661+683098353+687293900+690670707+693882626+697489616
1588+701253887+704514124+706957242+708867516+710885064+713748821+718086788
1578+723861775+729476663+732872276+735233337+739671110+747096607+755715840
1568+763439348+770660512+778784938+788042174+798643456+812394673+830094490
1558+845046276+850886064+852452122+854154471+855918241+856667954+856383395
1548+856269290+857656513+860498787+863411144+864797732+862351234+854303019
1538+844822504+839167116+837161401+835655354+832365887+828358613+825818084
1528+825016531+824952575+825485770+827276235+829365767+829391758+827390340
1518+825480488+824182155+822934816+822117556+822751121+825478445+830101041
1508+834405762+833556665+826660419+820119590+817578426+818336239+820692439
1498+822736471+822656315+820517126+818676653+818932614+820779709+822277867
1488+822256102+821105190+819448201+817732820+816539999+816416456+817658229
1478+820126281+823073856+825466471+826347687+824934403+821812712+819346915
1468+819285988+821292477+823382292+823787506+823115412+823420045+825827804
1458+829200878+830005601+826636823+822036344+818780545+817308589+817130599
1448+817413819+817262524+816170848+814289874+812470672+812110114+814140551
1438+817536728+819175616+817310068+814355802+812975341+813178828+813518185
1428+813062188+812173083+811700674+812112579+813277226+814514985+814552598
1418+812333957+808713867+805635987+804030485+803590617+803466369+803081300
1408+802597550+802400050+802261504+801658648+800890059+800926333+802103165
1398+803526662+803989915+803320498+802582407+802980296+804617070+806343298
1388+806505017+804529660+802281226+802460624+805778689+810698732+815425572
1378+819496660+823333057+826955966+829879311+832103656+834289896+836628981
1368+838468046+839541056+840696829+842588931+844434124+845055292+844581192
1358+843912198+843402951+842920611+842452005+842127791+842070809+842479263
1348+843411685+844461593+845171229+845718299+846658610+848081402+849506730
1338+850551637+851284728+851976050+852885298+854223075+856051011+858295572
1328+861041350+864517118+868355840+871409702+873152552+874740233+877710206
1318+882068881+886427204+889636234+891643287+893150179+895040803+897839407
1308+901374130+905105861+908588602+911467714+913498785+914938412+916533982
1298+918719236+921048530+922507244+922297699+920618311+918592241+916890314
1288+914858397+911769248+908215225+905290190+903333357+902281759+902148706
1278+902491515+902273588+900901932+898880440+897155621+896455283+897188162
1268+899252902+901815055+903815909+904916460+905635815+906583381+907937428
1258+909578077+911318673+913063848+914802049+916347258+917368992+917859362
1248+918180899+918514410+918724096+918779951+918696908+918045029+916261890
1238+913617610+911238518+910006676+909924689+910351104+910294474+909115810
1228+907408953+906274029+905713365+904988374+904281275+904383899+905174112
1218+906044481+907189054+908998817+910907895+911993725+912241586+912617147
1208+913955417+916016705+918057989+920043912+922325944+924390894+925286619
1198+925345503+926190163+928864590+932612380+935583128+936686074+936639023
1188+937134464+939077632+942021615+945206275+948332121+950997673+952507805
1178+953090657+954097107+956268062+958799576+960645614+961818854+962646327
1168+962734372+961827447+961182049+962719228+966568374+970403574+971909832
1158+971330009+970767654+971632881+973413625+974780985+975546475+976930669
1148+979752728+983317879+986509724+988695330+989552245+989643036+990668503
1138+993589313+997182638+999599624+1000165783+999130455+997654343+997747036
1128+999935741+1001898701+1001776637+1001317188+1003209079+1007179303
1120+1010706631+1012413629+1013274489+1015000928+1017995624+1020724356
1111+1021385462+1020032893+1018202492+1016759696+1015259777+1013561302
1103+1012919284+1014621634+1018167486+1021792578+1024831014+1028434411
1094+1033222037+1037229099+1037832870+1035765032+1034836765+1037394904
1085+1042189714+1046587339+1049222604+1050019227+1049010876+1046477742
1077+1043629974+1042075961+1042712273+1045358737+1049345514+1053585082
1068+1056078068+1055311099+1052413814+1050567988+1051546052+1053549794
1060+1054132646+1053862668+1054506517+1055853873+1056645002+1057543474
1051+1060959373+1067350598+1073196584+1073741823+1068318026+1061158564
1043+1056519627+1054589067+1053410262+1053093374+1054961387+1057358722
1034+1056095606+1050405635+1044856040+1043720061+1047275562+1053378848
1025+1059642374+1064078669+1065587040+1064608483+1062537334+1060361729
1017+1058287693+1055568892+1051277201+1046447103+1043931719+1045019169
1008+1047884545+1049925830+1050351540+1050570876+1052636249+1056585554
1000+1059339855+1057891424+1053469921+1050146363+1049797778+1050973695
991+1051811663+1051362005+1048572909+1043142703+1037446955+1034857262
983+1036377114+1039993260+1042949358+1043835293+1042397920+1038798044
974+1033771221+1028463079+1023841398+1020536365+1019226339+1020508120
965+1023339054+1024530396+1021671992+1015869465+1010035242+1005720378
957+1002772239+1000613892+998605571+996024401+992923206+990284702+988495364
947+986787591+984477244+981806832+979490286+978069466+977596282+977461046
937+976842273+975732636+974889526+974327452+972790273+969519330+965814717
927+963626857+963275033+963461404+963041117+962349302+962938070+965675537
917+969194201+970980509+970089503+967956019+966498925+966064903+965409925
907+963774348+962219842+962094679+962878905+962834249+961598603+960459172
897+960146721+960261953+960664420+961694747+962876369+962712466+960439943
887+957108003+954329966+952929924+952882028+953664634+954491967+954980435
877+955485104+956310676+956997631+956604813+954544441+951409649+948964841
867+948629640+949978546+951267863+951422962+950805456+949967276+948937090
857+948100108+948364240+949723007+950716848+950242255+949330541+949556709
847+950157381+948686481+944545099+940482675+939668303+942644544+947359622
837+950617605+949821827+945097805+939720002+937380988+939203852+943172668
827+946155461+946770713+946523203+947689541+950653245+953869178+955659783
817+955916238+955743179+955515391+954636077+953217863+952247970+951721114
807+950644441+949245526+949161567+950776788+952138232+951908190+951770841
797+954056677+958292160+961652768+962520601+962063969+961821390+961352925
787+959615287+957521458+957207105+959204861+961832448+963399914+963751316
777+963034496+960542849+956423795+953236458+953258786+954836536+954083583
767+950613308+948396077+950364954+955059816+958847754+959871389+959438072
757+959461034+959493223+958411196+957727411+959623528+963165224+965795911
747+967327948+969360217+971157020+969638859+964261408+958723506+956567764
737+957419890+958927275+960337319+962190118+964140893+964443131+961871187
727+957506455+953887139+953015080+955275348+959310302+962302885+961732219
717+957952592+953990820+952498297+954083935+957179988+958959605+958509946
707+957940829+958609119+958693712+956252707+952081109+947997977+944815289
697+943113432+944222365+948746844+954703766+958789715+959295863+956376955
687+950685152+943938370+938658895+935536993+933491341+931992972+931451536
677+931936201+932647809+932753462+931416530+927213728+919346814+910237492
667+904742133+903914237+905202146+906686710+906879773+904745514+901935076
657+901002161+901226709+900149049+897560342+895228794+894152332+893718028
647+892484777+889629895+886518136+885426108+886942438+889885294+892592825
637+892992334+889155091+882606936+878505068+879993225+885194164+889026476
627+887072602+879516800+871678835+868452900+869162817+870689853+873088667
617+877027689+878201563+871562898+860475543+852976653+852309349+856497923
607+862292491+866412390+866570799+863348104+858797212+855546202
##END=
