##TITLE=<SNM>
##JCAMP-DX=4.24
##DATA TYPE=INFRARED SPECTRUM
##DATE=2/5/2025
##SAMPLING PROCEDURE=Instrument type and / or accessory
##ORIGIN=Admin
##XUNITS=1/CM
##YUNITS=ABSORBANCE
##RESOLUTION=4
##FIRSTX=4497.3318
##LASTX=599.83466
##DELTAX=-1.4281778
##MAXY=1.8721937
##MINY=0.40405485
##XFACTOR=1
##YFACTOR=1.7436163e-09
##NPOINTS=2730
##FIRSTY=0.43237135
##XYDATA=(X++(Y..Y))
4497+247973915+248507347+248892298+248950788+248676030+247906503+246620551
4487+245310720+244679589+244964175+245677212+246117303+246074146+245753598
4477+245152378+244229482+243736268+244698254+246757596+248217411+248046882
4467+246787132+245363467+244138260+243242575+242887621+243183419+244045467
4457+245144806+245962089+246218592+246152018+246086025+245887960+245204731
4447+244151370+243304347+242908251+242620930+242267309+242281393+243015180
4437+244011812+244333847+243476414+241842190+240460248+240168637+240834790
4427+241540837+241738184+241939155+242953768+244730148+246295747+246592588
4417+245234745+242925360+241209452+241221690+242618606+244065841+244597854
4407+244178923+243310944+242606590+242426916+242638963+243001164+243644158
4397+244706475+245728045+246000854+245372030+244260350+243059722+241864137
4387+240733536+239951531+239816195+240300828+241124794+241900868+242116333
4377+241608744+241063382+241180772+241524394+241138588+240019900+239022619
4367+238696413+238888188+239106337+238963052+238452079+237745947+236837238
4357+235835205+235267042+235482746+236226207+237133891+238033883+238570854
4347+238282029+237342810+236681476+236937057+237574205+237483120+236341460
4337+234841051+233738465+233342318+233697050+234589898+235498659+235998470
4327+236127038+236113330+235949586+235470422+234776597+234390876+234832984
4317+236008469+237224651+237853731+237771227+237190860+236475378+236121551
4307+236402890+237009442+237410598+237436885+237224019+236857680+236409675
4297+236008315+235659189+235305345+235134166+235481908+236313942+237059779
4287+237122166+236466029+235575762+234875697+234393645+233993772+233638133
4277+233316953+232959109+232600223+232494200+232821089+233361666+233735166
4267+233899508+234145482+234637619+235215543+235736651+236340264+237121858
4257+237786371+237960096+237682022+237239880+236771159+236404667+236291414
4247+236214226+235867253+235561387+235782099+236235608+236283688+236047576
4237+236121329+236469977+236520365+236213251+236132080+236459123+236537884
4227+235877542+235032074+234866536+235338761+235652455+235377765+234829104
4217+234331224+233757505+233123349+233030692+233924326+235358553+236543798
4207+237244683+237690107+237965344+238000297+237884788+237762441+237552805
4197+237072581+236326487+235403506+234329292+233409712+233318406+234256291
4187+235378774+235659189+235067148+234350504+233914258+233627741+233635450
4177+234527221+236471584+238815239+240735980+241747790+241661320+240691762
4167+239539454+238940200+239107995+239572887+239471171+238402837+237096271
4157+236592733+236893694+237213780+237281021+237420528+237661221+237714891
4147+237568085+237452012+237475941+237675579+238118217+238572238+238467343
4137+237662349+236830572+236588529+236690860+236528962+235984711+235337855
4127+234756103+234365220+234444956+235089675+235941040+236559950+236764015
4117+236485514+235831735+235315173+235391422+235818523+236006452+235793175
4107+235436238+235123791+234976063+235212363+235824454+236337615+236255332
4097+235588307+234770785+234196674+233994541+234065080+234132646+233991943
4087+233849274+234112460+234782152+235441126+235807567+235823155+235374415
4077+234532639+233800116+233547322+233618460+233890039+234490045+235099674
4067+235021135+234350555+234039528+234496455+235087111+235156779+234768837
4057+234335617+234058705+233812320+233381271+232809433+232413969+232445880
4047+232949384+233831874+234766700+235250240+235089846+234581352+233980474
4037+233211049+232316543+231733817+231923063+233032162+234780442+236372585
4027+236982539+236709115+236479309+236731540+236988795+236856774+236512195
4017+236170401+235864005+235691801+235652677+235360690+234547766+233817892
4007+234215475+235874432+237690432+238573964+238462625+237840707+236992983
3997+236076821+235357425+235088000+235323241+235789107+235951774+235628936
3987+235410138+235878500+236660214+236910547+236541918+236355561+236998982
3977+238206293+239134966+239244134+238704053+238030516+237528808+237157000
3967+236923520+237251058+238486828+240039830+240762182+240406458+239808230
3957+239527096+239341321+239129018+239440063+240904202+243140688+244530357
3947+243915959+242377109+241895005+242644193+242980004+241984329+240528822
3937+239913330+240913209+243638551+247127284+249372864+249074809+247337690
3927+246351501+246787132+247386591+247096382+246698936+247438329+248918962
3917+249258517+247335981+244194733+241720100+240878683+241670858+244062713
3907+248313298+254227148+260348173+264530629+265584298+263434025+258523507
3897+252678795+248925765+249097474+251951230+253731644+252477603+251247405
3887+253353495+257400033+259609890+259888973+260543059+260518583+257634266
3878+254036194+253344846+255998110+260245278+264602604+267221872+266283678
3868+263645558+262904661+264178990+264407206+262136569+259499457+259134264
3858+262451220+270081508+280342549+285288584+278185267+266067820+257122284
3848+253484541+254505581+258538617+263759324+269055426+273958748+277325544
3838+277332381+274193578+270534367+267865105+265652804+263537433+262323934
3828+262418352+263447613+266111782+271670318+278030189+279975287+277347833
3818+274677237+272563490+268565186+263391499+260207863+260691932+264519553
3808+269609266+273653172+277395691+282706868+287449300+287367941+283685929
3798+280393620+277587398+274013511+270934274+270396125+272687187+276974794
3788+282496787+288234997+292852639+296481699+301143952+307894364+314977631
3778+320514631+325696796+332943807+343257748+356094471+369382806+380084126
3768+386933742+391055777+393634279+395734609+398577187+401944701+404197870
3758+405191442+407295088+412742217+421860863+432306791+439156304+440848061
3748+442573250+448555708+457021191+462611142+465312640+470290006+480317925
3738+494847328+510716284+522885726+528634909+530792429+534257814+541487015
3728+551704590+562102557+570314152+576355476+580239245+580504516+577690107
3718+575291722+576286423+581573055+589867650+596477359+595841664+588127249
3708+578113037+570319314+567488017+569213309+571749046+572133964+571515600
3698+571970904+574037220+578148316+585038816+593803243+600412679+600123956
3688+593663223+586843348+583590624+584318549+587595065+591641415+596304386
3678+602365981+606994288+604833213+598465530+594982882+594527612+591525120
3668+584040834+576018895+570902809+569087646+569186884+570209923+572062689
3658+573705904+573328883+572134442+574149140+581324466+590850044+595061027
3648+588758158+577423673+568683927+564622365+563083857+561073741+558178109
3638+556699732+558150146+561366770+564809251+569048129+574693630+578447772
3628+576252990+570958256+567929544+568995006+573105931+577541199+579072801
3618+577519800+576463635+577841476+579720666+580374752+581273873+583723465
3608+585507828+584009521+580512105+578494673+579749518+583146431+586395189
3598+588619232+590125128+590627777+590158629+590931745+595270852+601565312
3588+604314019+600938163+595675323+592851410+592322439+592219338+592331600
3578+593896703+597133292+600201419+601346462+602014701+605825999+613146336
3568+617618283+612435913+601082080+592569661+590339123+591735901+593401165
3558+594681443+596005203+596555847+595316591+592927094+591244191+591782529
3548+594509700+597147307+596871028+593767281+590498081+588792343+588648768
3538+589715598+591262583+591740619+590426362+588616292+587568333+586583272
3528+584693143+582928539+582682684+583059876+582240884+580378649+578865575
3518+577857884+576588819+575219867+574891217+576060805+577472898+577443568
3508+576245402+575843323+576972984+577908341+576457072+572413217+567740299
3498+564789083+564306979+565062217+565557584+565447066+564953784+564226269
3488+563481150+562850104+562463135+562758250+563707690+563965544+562158175
3478+558679014+555203579+553064894+552478015+552869803+553476851+553731423
3468+553327328+552028625+549784276+547131388+544993421+543952093+544049622
3458+545077926+546442776+546956227+545876134+544071773+543090336+543453991
3448+544256575+544192650+542879521+540742272+538039543+535026760+532677294
3438+531939764+532361122+532416808+531317537+529851569+529229753+529559771
3428+529910367+529723890+529305267+528804567+527956518+527066148+526888560
3418+527216355+526772469+524846173+522230375+520371832+520003734+520581315
3408+520991255+520659324+519837255+519104818+518788577+518651087+518053440
3398+516588019+514679293+513414706+513441883+514063494+513982442+512969316
3388+511871242+511025005+509929733+508590009+507873365+508319643+509437579
3378+510199928+510064796+509428794+508942998+508571993+507874972+507145782
3368+507238764+508104965+508675675+508542561+508505881+509000496+509071839
3358+507627989+505236715+503821203+504674311+507260574+509843247+510858389
3348+509792824+507308193+504720905+503172347+503137547+504406476+506117752
3338+507040596+506521505+505194428+504287958+504183388+503902357+502341698
3328+499965841+498532895+498931623+500224891+501165170+501555352+501635036
3318+501314967+500582188+499805482+499286971+499043338+498960065+498749864
3308+498027614+496807194+495652612+494991655+494597508+494146888+493948413
3298+494576655+495947556+497295998+498057457+498342590+498479739+498437589
3288+497937846+497028470+496204863+495925678+496269198+496970903+497533067
3278+497441248+496543700+495216110+494113011+493730691+494074998+494772532
3268+495554263+496337943+496761113+496223698+494688233+492936517+491702696
3258+490956107+490309268+489757427+489583565+489734319+489839675+489822651
3248+490097973+490989266+492051754+492345501+491631524+490858613+490999008
3238+491774449+491934843+490612792+488206784+486022463+485018123+484932798
3228+484842380+484310435+483565145+482772680+481709679+480193084+478447008
3218+476864232+475600465+474661314+474233427+474573460+475538967+476364728
3208+476014268+474104654+471618791+470123698+470079087+470459287+470103495
3198+468899449+467506225+466414509+465602559+464934970+464488418+464270970
3188+463920990+462988847+461401011+459572106+458115847+457318083+456870300
3178+456261885+455324067+454270911+453426520+452919940+452473251+451774862
3168+451046698+450656550+450365093+449692650+448726117+447871539+447133256
3158+446196088+445001067+443848331+442918411+441932290+440525325+438896639
3148+437735733+437446430+437719769+437858387+437331809+436076315+434448347
3138+433026955+432427735+432914249+433906420+434248128+433356084+431765171
3128+430336225+429423226+428946831+428814776+429037317+429523762+429808109
3118+429208513+427542087+425445586+423718688+422614699+421909371+421298972
3108+420624820+419934635+419332133+418757628+418061529+417274397+416604484
3098+416187399+415989573+415896318+415784192+415522373+415068130+414685024
3088+414854545+415713499+416716267+417053224+416319180+414791748+413212117
3078+412167268+411597617+411081055+410456163+409888666+409545658+409445635
3068+409425329+409117566+408198960+406750392+405255607+404211783+403676761
3058+403233047+402579884+401997243+401908534+402234996+402494456+402292836
3048+401511652+400270481+398923168+397966891+397708285+397888130+397819487
3038+397131046+396167897+395446673+395034579+394635372+393951375+392835251
3028+391391469+390060017+389372498+389437893+389706275+389462745+388630831
3018+387813514+387474985+387441279+387248034+386622629+385620168+384615964
3008+384089386+384120084+384164114+383570192+382345601+381162954+380530917
2998+380262398+379888214+379218472+378336853+377469114+376915701+376720508
2988+376524973+376057773+375484089+375036204+374636484+374048579+373192463
2978+372253791+371467205+370775448+369966916+369221250+369025167+369394907
2968+369717164+369543097+369081777+368715866+368375867+367658300+366432923
2958+365082293+364127076+363771489+363835106+363971263+363854899+363291880
2948+362354029+361430979+360978410+361060932+361233324+361003502+360279371
2938+359275817+358244334+357408728+356898764+356623271+356361076+355998686
2928+355554048+355040563+354442266+353762029+353029352+352293599+351587074
2918+350903008+350273467+349790200+349451022+349138849+348855391+348752974
2908+348835154+348880824+348773656+348639550+348509512+348133961+347368024
2898+346501207+345888758+345435130+344816493+344067716+343521105+343254911
2888+342987246+342482478+341823230+341313710+341150445+341096365+340649197
2878+339755239+339066182+339155232+339722592+339907770+339271391+338194238
2868+337336583+336958947+336848702+336727723+336523197+336250541+335855164
2858+335323287+334805494+334426354+334030634+333361712+332503169+331870687
2848+331683014+331705234+331645035+331519612+331454696+331427417+331386395
2838+331325444+331113535+330587298+329898173+329410258+329186520+328896909
2828+328258172+327343190+326492508+326044589+326037137+326111727+325868436
2818+325312562+324765439+324417988+324216368+324055461+323812957+323318136
2808+322526833+321630789+320884337+320460039+320435289+320688220+320850494
2798+320574693+319861878+319082472+318646209+318547245+318319508+317654585
2788+316853574+316349387+316101549+315818331+315434200+315028669+314566700
2778+314001117+313427535+312951448+312515288+311977327+311306353+310610596
2768+310008881+309545715+309206878+308953845+308736226+308466579+308014933
2758+307336337+306584654+305951591+305421355+304844184+304218711+303738145
2748+303534986+303484598+303328239+302951252+302456226+301978532+301515674
2738+300936418+300132056+299194581+298401056+297953137+297809698+297802280
2728+297772198+297579944+297154177+296582783+296051385+295647221+295284216
2718+294875643+294486077+294158179+293716925+293009887+292246889+291815447
2708+291816917+291970815+291905044+291473226+290872673+290433778+290253831
2698+290136031+289885014+289505464+289109983+288774462+288503037+288252704
2688+287972631+287648322+287305008+286962718+286631112+286351140+286139060
2678+285875685+285416878+284843519+284404248+284203978+284123456+284027501
2668+283910914+283831059+283750418+283512186+283038817+282454911+281889414
2658+281318054+280734781+280261292+279977885+279854667+279872358+280007506
2648+280120178+280033452+279715639+279299477+278957837+278794760+278788624
2638+278764455+278501303+278017781+277661031+277693079+277896819+277861797
2628+277523934+277144520+276913467+276821340+276782490+276708429+276544634
2618+276310641+276061180+275813855+275543729+275232103+274924887+274729181
2608+274705303+274779603+274808916+274702773+274455072+274091554+273642336
2598+273197202+272930170+272946784+273122202+273234275+273242787+273272648
2588+273330761+273229883+272857289+272387235+272121126+272162540+272355272
2578+272530656+272684828+272868843+273031869+273058003+272897216+272613981
2568+272349119+272224431+272229764+272241626+272213424+272260923+272449724
2558+272611007+272546244+272318233+272137688+272048689+271906327+271592172
2548+271154063+270798220+270723202+270866332+270921062+270719749+270425199
2538+270225698+270062347+269798939+269462478+269153262+268877342+268634170
2528+268535138+268649434+268827843+268842473+268620548+268253030+267904451
2518+267753800+267855054+268040676+268100020+268000287+267827707+267627471
2508+267396452+267141350+266891342+266688013+266542677+266407614+266246725
2498+266105714+266048267+266067479+266118738+266183056+266236282+266211207
2488+266069889+265879669+265753477+265741136+265806138+265859722+265808121
2478+265634053+265412692+265180459+264858851+264400642+263936178+263662240
2468+263622261+263688494+263751701+263823625+263911103+263900865+263678666
2458+263310089+262994993+262837300+262721893+262459151+262033793+261635647
2448+261425583+261365435+261316021+261206717+261055621+260896783+260747773
2438+260625717+260553964+260552545+260634331+260774949+260854138+260712921
2428+260353266+259991594+259824689+259835183+259896100+259964811+260074902
2418+260186890+260179319+260035094+259906646+259901176+259949223+259987800
2408+260078115+260225639+260278454+260129324+259905860+259889690+260261378
2398+260917550+261604351+262325165+263548560+265941304+270036572+276298352
2388+285371191+297993782+314591278+335072886+359061856+386148866+415730078
2378+446676312+477524915+507211314+535341395+561487612+584696288+604251666
2368+620115871+631779484+638385639+640931700+641549072+640096026+634344963
2358+622992838+606166340+584220098+558206003+531812631+510935270+500241847
2348+501496965+513715495+532207838+548984769+558513493+561402254+560824570
2338+559307428+558425433+559005442+561014294+563423344+564616930+563546374
2328+560605276+556874073+552517087+546671128+539006144+530297711+521126694
2318+511311847+500971549+490929272+481657616+472547721+462571933+451322259
2308+439143827+426603791+414196835+402354676+391351302+381144631+371459753
2298+362088449+353087124+344661569+336882750+329601930+322661589+316081004
2288+309982832+304440500+299468023+295081536+291292800+288085952+285438209
2278+283282449+281421360+279606163+277765687+276042293+274566873+273311122
2268+272170642+271092890+270101984+269239578+268499671+267833142+267195875
2258+266552557+265867226+265147847+264466653+263887123+263392764+262911275
2248+262402559+261913891+261537469+261308262+261143817+260886066+260432557
2238+259857044+259357797+259044855+258831988+258580561+258299701+258139837
2228+258182961+258296368+258272063+258076904+257853730+257708155+257610798
2218+257474299+257258082+257041011+256969822+257054069+257104936+256984333
2208+256790507+256696243+256737999+256848620+256971377+257060240+257051369
2198+256924390+256781721+256783550+256956250+257130301+257145684+257055232
2188+257034088+257145923+257289190+257325033+257195183+256954370+256722719
2178+256586118+256551352+256589365+256653530+256664263+256569316+256412238
2168+256279927+256224548+256261980+256367371+256463635+256484282+256433228
2158+256345664+256250905+256186193+256164042+256122884+255988350+255784098
2148+255607535+255504862+255452252+255460132+255596186+255875063+256218959
2138+256563334+256934714+257403503+258007953+258723691+259473306+260176054
2128+260828619+261563945+262596658+264039859+265766176+267515619+269152681
2118+270747883+272386261+273952851+275167221+275838006+276023303+275893795
2108+275510809+274821376+273819839+272612306+271322661+270008045+268697172
2098+267459283+266371515+265445406+264648719+263970841+263409360+262916300
2088+262416198+261890116+261416626+261094301+260932232+260876152+260912046
2078+261030307+261121751+261058287+260869623+260715673+260722715+260957734
2068+261470535+262173608+262738097+262848615+262581685+262323131+262323233
2058+262512462+262704852+262797065+262791459+262758693+262780810+262887329
2048+263063259+263313507+263670838+264116210+264526612+264760315+264792055
2038+264720917+264677144+264760178+264987659+265266553+265491743+265658051
2028+265812633+265983624+266208490+266522594+266922963+267429679+268067032
2018+268682217+268982322+268881649+268626445+268491228+268518336+268575339
2008+268542522+268431798+268376607+268513516+268873513+269355583+269753576
1998+269930241+270119111+270822354+272093949+273169137+273257606+272496027
1988+271634937+271156918+271082977+271236499+271415045+271519803+271601744
1978+271696127+271728448+271645636+271522555+271583677+272155464+273331069
1968+274593451+275153684+274858671+274350057+274192211+274321941+274457636
1958+274596545+274865748+275205644+275467326+275656025+275912802+276353337
1948+277069212+278265567+280083174+281996377+282812378+281996001+280507574
1938+279559365+279326363+279327320+279320757+279396663+279602266+279840686
1928+280149902+280938333+282498018+284259596+285357243+285946823+286658493
1918+286997586+285981674+284131951+283037894+283397497+284554403+285415083
1908+285419750+284801164+284106569+283660445+283535158+283763083+284410469
1898+285509501+286825707+287840679+288455179+289309347+290614545+291347837
1888+290661310+289276462+288335157+288028899+288012490+288146767+288437096
1878+288820851+289210281+289661208+290725030+293383592+297847267+302195399
1868+303383925+300871946+297284146+294974231+294297481+294542378+295031285
1858+295401913+295586920+295732443+295998638+296560426+297705094+299729602
1848+302896488+307144391+311009700+311725797+308740465+305041155+303152872
1838+303013639+303335007+303656683+305001672+308384262+312788867+315513132
1828+315600541+314732324+313812931+312097314+309666318+307929916+307673054
1818+308341087+309122716+310045424+311699988+313997699+315746441+315972811
1808+315212650+314834740+315820860+318394372+321821675+324468000+325111762
1798+324484887+324721820+327388826+331890377+334936524+333527439+329419214
1788+326656833+326755763+328513462+330446492+332221693+333721538+334513832
1778+335050734+337001130+341716848+348453655+353675986+354075193+350668776
1768+346422754+343200045+342352098+344453522+347875219+349963687+350505374
1758+351016603+351662793+352381214+354836892+360427254+367372894+371542411
1748+371378667+369329341+368080171+368538346+370314914+372280284+373382358
1738+374577345+378520869+385625945+390870770+389222667+383718861+378743649
1728+375321234+373696855+373972997+375485559+378224010+383822679+393320602
1718+403726979+408228735+404467722+397430433+391732083+389079092+389968094
1708+394135629+399797676+404517290+408577554+414753427+423189922+429088935
1698+429452488+426148522+420111164+413103444+409078254+409678158+413573071
1688+419683721+428882906+440176369+446036891+441650849+433918248+429554836
1678+430211623+434715533+439914174+443374876+446444917+450639526+453201483
1668+450991661+447184841+446781122+450233688+453813454+454536798+454269168
1658+457030796+465539865+480424923+496702213+501883660+497060569+495393289
1648+499675683+503668432+501492965+496528590+494587868+497334626+504507696
1638+515619538+528035484+535040161+533769147+531075545+533157962+540654076
1628+550911544+561452812+572061390+582656157+591726398+599426046+608827671
1618+621857297+635467650+644139505+648216074+652005836+657348736+663452036
1608+668820507+672739759+675696855+678443579+681077495+683439438+685693291
1598+688025289+690470642+693200001+696450878+700211857+704121948+707537458
1588+709996896+711816058+713773736+716178136+718802138+721918944+726700125
1578+733665353+740380213+743107042+743602786+747157222+755452295+765592237
1568+773839042+780447862+787764575+796977708+809561910+828467714+852801744
1558+868875362+868927665+864655696+863197249+864063553+865212767+865552698
1548+866017333+868878507+874944136+882286966+887601425+886346170+875274427
1538+861072204+852318306+849279920+847755360+844458880+840704602+839477242
1528+840831016+842785617+845136280+849471490+854620701+856527717+854714845
1518+852029379+848500992+843260577+838587488+837793997+842242221+851393411
1508+861837937+864417772+854051255+841102988+834072058+833150375+835685292
1498+838224243+837596001+833923287+831091511+832102005+836022146+838507838
1488+836125589+830593306+825891912+823871198+823758663+824183850+825270438
1478+828230132+833408673+839565848+843916167+842830604+836203666+829246916
1468+826409056+827862102+830312105+830415342+829374150+831237684+837631142
1458+844745620+844459974+835811775+826912662+822266852+821425640+822063522
1448+821522313+818827618+815565938+813633283+813545156+815434465+819643944
1438+825045231+827755241+825291291+821054191+819033614+819166181+819048108
1428+817629793+816238074+816065032+817123931+819613383+823664724+826871572
1418+825468708+820407352+816123829+814155417+812876986+810657865+807925088
1408+806413654+806742304+807483629+807442950+807852548+810367365+814252228
1398+817123999+817722843+816412757+813904708+811248778+809793065+809966518
1388+810509846+809572097+807329662+806234323+808038375+812178938+817109642
1378+822208328+827557996+832202712+834336851+834029259+833500356+834033087
1368+835279454+837365802+841063881+845607753+848482190+848356597+846671506
1358+845444624+845230356+845370376+845241432+844821988+844116420+842943413
1348+841572820+840764015+841161239+843167048+846783836+850903683+853556469
1338+853783659+852521909+851203276+850733650+851651914+853885050+856399252
1328+858122697+859172777+860386121+862066016+864028411+866295527+868952756
1318+871804085+874744772+878007477+881663509+885453271+889175826+892626819
1308+895470081+897872841+900724170+904414044+907899017+909887324+910470375
1298+910641502+910840183+910783163+910398040+910015379+909668817+909074143
1288+908342527+907885138+907496255+906460191+904793766+903444503+902949444
1278+902758831+902270745+901814450+902177353+903573379+905470892+907314667
1268+908859670+909658356+909173552+907921374+907464395+908819332+911701427
1258+915114270+917822298+918902733+918763602+918927414+920376700+922786571
1248+925289423+927236367+928378197+928946754+929273011+929162936+928186422
1238+926392967+924180478+921906935+920026309+918970350+918589603+918280985
1228+917796660+917382549+917179629+917083092+917160486+917619721+918220479
1218+918247963+917429245+916589331+916834298+918269910+920210085+922532170
1208+925694851+929156305+931213733+931321346+931289486+933036313+936292045
1198+939515780+942121049+944369021+945645128+944822444+942435751+940871469
1188+942002292+945320649+948730484+951130099+953325291+955969872+958209093
1178+959122025+959390988+960524683+962767459+964565017+964381720+962806019
1168+962155283+963995708+967885084+972290371+975776506+977576047+978014224
1158+978229313+978877451+979742387+980813114+982842305+986076706+988949366
1148+989532075+988287827+987473074+988030897+988956681+989277127+989141824
1138+989297364+990659411+993812316+997856136+1000673691+1001437441+1001912947
1128+1003970581+1006852676+1008490797+1008848982+1009752410+1011597962
1120+1012796744+1012367250+1011175989+1010854518+1012545283+1016282469
1111+1020754143+1023836149+1023667483+1019972686+1015050323+1012838723
1103+1016308449+1025268821+1035772213+1042318955+1042922995+1041129197
1094+1040747562+1041449916+1041154015+1039729684+1038576709+1038553806
1085+1039154633+1039065001+1038083837+1038514562+1042832543+1049559505
1077+1053912900+1054144261+1053891501+1055828463+1057291012+1055177590
1068+1051355558+1049333750+1049549318+1050642470+1052149664+1054022769
1060+1055516427+1055820464+1055319661+1055299765+1055807132+1055460364
1051+1054042733+1053364171+1055042561+1058626259+1062628785+1066732497
1043+1071083500+1073741823+1072603889+1069287857+1067173477+1066634729
1034+1065723644+1064616271+1064897405+1065887046+1065848691+1064779605
1025+1063087678+1060458890+1057957610+1057644138+1058901581+1058570812
1017+1055384338+1051612079+1049885078+1050094355+1049690705+1047296286
1008+1045572772+1048008417+1053865657+1058985469+1060590637+1059460771
1000+1057799541+1057254777+1058011690+1057899838+1054673437+1049857388
991+1046937007+1045983191+1043709033+1039325076+1036585736+1038260981
983+1041880641+1043062604+1041393170+1039757784+1039503109+1039825332
974+1040041447+1040101338+1039682920+1038399155+1036548406+1035088455
965+1034756592+1034626554+1032757482+1029055301+1024982766+1020782790
957+1015751721+1010431177+1006129468+1003153161+1001336392+1001072624
948+1002284054+1003451387+1002765099+999779493+995651647+992307172+991276646
938+992426408+993546223+992123465+988109316+983814307+980702424+978086148
928+975291975+973071761+972190074+972230343+972620115+973728992+976153767
918+979291903+981029433+979459134+975641341+973359868+974728273+977423105
908+978105633+977287325+977712580+979406900+979452571+976362839+972234309
898+969753335+969245969+969256771+968557903+966910620+964468138+961597734
888+959287888+958774984+960489404+963301763+965087971+964602825+962547243
878+960505061+959445683+959307715+959385655+959075739+958661765+959252609
868+961414095+963903068+964512851+962752897+961141098+962456586+965763731
858+967170286+964814154+960527896+956365865+952909744+950399166+949039034
848+948379410+947547496+946754074+947242775+948768839+949043614+947418825
838+946586569+948542880+951769144+953939176+954768014+954629771+953248308
828+951411438+951341223+954027919+958021489+961209193+962344939+961175966
818+958744286+957362343+958905910+962729378+966189601+967418329+966584842
808+964443252+961408215+958755020+958594900+961128381+963592195+963962139
798+963861158+965423732+967692557+967947710+965294651+961584129+959054476
788+958364359+959271889+961699878+964780037+966457744+966287916+966977417
778+970579301+974993476+976586611+974322093+969996318+965615780+961606075
768+957826637+955378822+955805923+958998550+963090503+966317519+968107556
758+968335567+966857156+963977932+960322106+956617258+954327034+955398649
748+960057107+965328699+967314066+965515209+963133165+962878012+964437646
738+966265422+968485090+972486249+977768779+981178888+980820634+978426147
728+976449599+975063486+972922648+969788955+967439933+967960700+971647703
718+976464572+979646260+979994053+978313680+976294538+974223368+970013547
708+962600229+955439055+953482061+957416287+962524476+963757169+961195793
698+958432045+957635341+958083158+957612027+955482675+953897745+954626285
688+955002998+951421420+945829315+943584008+946673877+952153446+955632608
678+954915827+950866332+945917442+942921034+944068334+948340439+949920857
668+942326429+930484714+925627849+928152716+932706365+935838006+937471478
658+938306742+936458934+929699633+919941463+911599079+906819949+904359007
648+902284487+899211847+894725542+890838560+890466291+893342164+895853768
638+895024041+890964701+887501606+888690611+893685240+897947773+898475855
628+896090666+891801401+885875928+881701659+883120179+887837571+889417510
618+886352597+882555998+880003920+878625328+879891795+885159148+892758088
608+897413196+895681751+890496715+886507247+884755497+883775086+883098096
##END=
