##TITLE=<SNM>
##JCAMP-DX=4.24
##DATA TYPE=INFRARED SPECTRUM
##DATE=2/5/2025
##SAMPLING PROCEDURE=Instrument type and / or accessory
##ORIGIN=Admin
##XUNITS=1/CM
##YUNITS=ABSORBANCE
##RESOLUTION=4
##FIRSTX=4497.3318
##LASTX=599.83466
##DELTAX=-1.4281778
##MAXY=1.7406073
##MINY=0.1896939
##XFACTOR=1
##YFACTOR=1.6210668e-09
##NPOINTS=2730
##FIRSTY=0.20747948
##XYDATA=(X++(Y..Y))
4497+127989465+127712283+128311458+129638517+130932392+131383398+130922712
4487+130214160+129938477+130260874+130818785+131110251+130953405+130545759
4477+130130134+129892470+130126089+130982121+132021584+132533111+132358092
4467+131964666+131782008+131872955+132118681+132355527+132431409+132362228
4457+132343467+132503154+132602540+132038764+130564833+129042798+128771803
4447+129950040+131494687+132291154+131967828+130834559+129698284+129293212
4437+129620381+130219905+130788424+131072665+130784030+130115445+129703184
4427+129714591+129568288+128863183+128042127+127725575+127804509+127631962
4417+126892845+125883110+125072304+124757131+125000843+125577093+126009291
4407+125887072+125258703+124640418+124535902+124979609+125504401+125485961
4397+124750843+123928482+123804856+124322037+124784193+124895960+124874432
4387+124822974+124694100+124473046+123947758+122873384+121628135+121049946
4377+121440808+122184824+122399452+121770412+120793034+120235077+120371112
4367+120843297+121209266+121294358+121003940+120266698+119327826+118752017
4357+118978605+119966996+121156401+121759648+121461564+120812806+120490381
4347+120383696+119953400+119188417+118616387+118608895+119048126+119502882
4337+119610945+119375119+119008507+118577026+118091650+117769436+117801278
4327+118022130+118095869+117869732+117434905+117053851+117017938+117338460
4317+117718750+118016072+118391739+118822053+118990978+118933251+119132308
4307+119705937+120199209+120356818+120428977+120722907+121382189+122371490
4297+123223882+123203540+122203512+121122372+120931303+121626251+122400004
4287+122640095+122402826+121947932+121296748+120407872+119490785+118987292
4277+119258112+120201737+121227190+121814066+121981943+122034614+122109117
4267+122177185+122274025+122519558+122894599+123095770+122864844+122447969
4257+122342617+122597066+122831752+122962061+123383606+124315363+125282354
4247+125542337+124987404+124253169+123842324+123635931+123471391+123544873
4237+123905382+124233341+124420706+124705875+125052412+125091102+124816889
4227+124730722+125164722+125837388+126164915+125904059+125385500+125028549
4217+124811925+124547080+124398470+124643442+125181838+125692528+125987543
4207+126045233+126014816+126135712+126411321+126555106+126339475+125820815
4197+125374791+125491164+126108089+126380197+125729444+124728359+124302733
4187+124655649+125441582+126327020+127057799+127508382+127793184+128039939
4177+128262510+128619801+129343751+130257942+130831563+130809317+130384509
4167+129835450+129421085+129448836+129971109+130601050+130992665+131248484
4157+131565909+131810494+131722130+131273744+130666866+130212266+130217717
4147+130677299+131108615+131026575+130475347+129786428+129083207+128408280
4137+128033008+128174632+128595175+128858146+128937143+129305015+130295465
4127+131501002+132062103+131538277+130219611+128746727+127788275+127813407
4117+128719647+129834026+130550640+130786236+130697789+130353697+129953313
4107+129969087+130602144+131335782+131566359+131450703+131582822+132132148
4097+132747124+133044399+132903088+132449527+131863653+131211246+130605995
4087+130347492+130559998+130975200+131401653+132002427+132850545+133680941
4077+134291734+134769342+135189113+135458950+135466680+135077409+134149972
4067+132924726+132127598+132216495+132788590+133157353+133171527+133055476
4057+132881118+132610794+132331223+132175958+132191015+132315155+132431464
4047+132525224+132705851+132930131+132950933+132743925+132624785+132694085
4037+132554216+131925783+131227397+131118984+131678090+132416701+132960557
4027+133337456+133721524+134223602+134838808+135406269+135742630+135862055
4017+135854894+135559467+134705493+133464676+132512107+132359774+132865722
4007+133579256+134322684+135140817+135901885+136330526+136380706+136325075
3997+136439398+136644274+136537525+135963151+135412934+135490194+136139898
3987+136835490+137309265+137586584+137539116+136997291+136274481+136109086
3977+136882628+138099233+138868574+138831704+138352772+137888291+137542186
3967+137303299+137421097+138239451+139611845+140787398+141160877+140882050
3957+140437176+140048695+139807051+140022304+141050148+142674473+143908654
3947+144055885+143842314+144415668+145445892+145490686+144173913+142606184
3937+141928719+142726749+145149747+148398425+150523430+150138526+148267942
3927+147119763+147443696+148046713+147891163+147765423+148941490+151106510
3917+152418594+151419283+148570447+145604338+143885535+143890867+145890555
3907+150381806+157262706+164703107+169809646+171031307+168631391+163447784
3897+157315304+153196245+153178393+156495213+159430832+159162438+157996096
3887+159444418+162645783+164145012+163881545+163987458+163318909+160136498
3878+157238218+158167126+162451938+167533291+172047210+174625602+173420616
3868+170187868+168862850+169746220+169556806+166727577+163576695+162984975
3858+166583333+175292937+187574849+194533137+187823516+174752786+164706968
3848+160525567+161790100+166617014+172617255+178312279+183289797+186527950
3838+186278161+182943748+179099425+175951687+172999779+170381254+169320953
3828+170183254+172291153+176186180+183166511+190840596+193121400+189670742
3818+185942223+182743156+177167428+170332701+166340641+167271700+172477019
3808+178843459+182996235+185955423+190764117+195695472+195879665+192131125
3798+188650703+185669344+181936651+178761465+178112367+179955696+183168754
3788+187153203+191540858+195582904+199284803+203953022+210013583+215558682
3778+219003108+221894200+227034898+236130408+249438978+265006547+278788422
3768+288399100+294867776+299877981+305184286+313082274+324225309+336136812
3758+346246019+356060746+369800980+390294940+415828429+438327905+451398360
3748+460132452+471459809+484614133+492904058+495577810+499059004+506777616
3738+518134425+530632574+540332287+544259156+544362697+545028726+547817013
3728+551384651+554000896+554855182+553994719+551421640+546841427+540817598
3718+535373981+533091633+536016479+544240367+553641665+557175807+552891546
3708+545833485+541761049+543472672+549522128+554896216+556077854+554982365
3698+555220149+558455617+565038552+574746355+586099193+595417394+598083498
3688+593650801+586804933+581707604+580045324+582145998+587175488+594037498
3678+601932931+607225650+604560060+596811114+591118278+587900054+582313443
3668+572930639+563406570+556963136+554443335+554888642+557054028+561032594
3658+567316929+573981270+578386501+582396540+590212516+601541380+608385594
3648+604259954+593544613+582580274+573934133+568346713+565755874+565605747
3638+567533571+570998072+575158570+580824271+590521888+603735704+612700484
3628+610601832+603815640+601208219+605218626+614747806+626101967+633359830
3618+634361632+633640155+634792268+636569670+637323798+638052996+639339315
3608+639781938+639328285+639951810+642521800+645809885+647801208+647580007
3598+646771315+648091829+651661194+654997593+657390284+660655572+664710948
3588+665739518+661864898+657232032+656037855+658302371+661997853+665810629
3578+669075917+670335027+668364073+664836844+663942701+668597922+677170710
3568+683328818+681548033+674237370+668287153+667052898+668503647+668563801
3558+666475776+665917405+669520010+674622560+676535051+674932300+672948404
3548+671592151+669409042+665732973+661917992+659820848+660092201+661983661
3538+663676495+663302189+660987668+659079148+659305276+660453050+659909460
3528+657178570+654276116+652964868+652976193+653092897+652941336+652918319
3518+653217102+653695169+654059327+654169119+654385319+654861549+654913687
3508+654471432+654794703+656113820+656495774+654653658+651988951+650461870
3498+650503860+651625014+653168052+654351933+655048334+655662593+655770620
3488+654364655+651471614+648425689+646636373+646524155+647145180+646804259
3478+644808744+642371857+641064580+640838378+640352810+639205624+638720423
3468+639997844+642155068+643312402+642824113+641912983+642308100+644216767
3458+645678400+644767343+642085869+639980636+639819074+640862572+641373585
3448+640501871+639257689+639319019+640901106+642587248+643082597+642237430
3438+640621148+639117526+638672109+639647144+641654792+643906806+645382337
3428+645405943+644430394+643425944+642586734+641664352+640912063+640374503
3418+639048107+636171170+632534591+629450794+627549260+627099651+627940480
3408+628703947+627732589+625197235+622999050+622477301+623229002+624121748
3398+624701959+625236283+625715454+625616105+624684678+623296363+622000484
3388+621092222+620602903+620130645+618959265+617429316+617433655+620082919
3378+623495502+624363834+621725601+617850098+615586980+616065489+618475976
3368+621035377+622433988+622786086+622797925+622545912+622234922+622997580
3358+625050086+626283826+624866904+622121674+620531351+620320445+619902825
3348+618649083+617645296+617962169+619382400+620919850+621924520+622441562
3338+622668940+622483479+621703907+620665483+620279043+621242753+623077883
3328+624247130+623794212+622648203+622526277+623780755+625116932+625342104
3318+624491127+623048541+621202307+619590070+619644782+621918784+624879994
3308+626663574+627067883+626616657+625312762+623492634+622180651+621951067
3298+622577754+623618531+624499216+624808589+625033908+625893783+626968755
3288+627050161+625769063+624241467+623995705+625306512+626936472+627611693
3278+627056632+625672582+624216465+623496017+623431819+623214589+622832929
3268+623173555+624510541+625942023+626380381+625799434+625433364+626367585
3258+628037402+628794030+627751635+625418583+622901907+621052879+620195284
3248+620552015+622297502+624530911+625448219+624694973+623939228+624216612
3238+624577902+623858851+622187858+620313606+618734240+617977024+618637170
3228+620451195+621947390+621813993+620387658+618939116+617799283+616298566
3218+614473952+613522192+614077658+614766558+613327428+609522043+605858697
3208+604558075+605194322+606088134+606727764+607718719+609070413+609694195
3198+608789977+607175423+606485273+607098393+607610398+606645291+604503841
3188+602617161+602097288+602986246+604383313+605206639+604924770+603503877
3178+600936387+597453612+594174572+592692276+593489349+595088718+595435778
3168+594184206+592842439+592555827+592628923+591687422+589752428+588118681
3158+587345029+586721541+585842069+585286676+585228067+584644179+582717642
3148+580142908+578310757+577651235+577301748+576367417+575017709+573944244
3138+573251741+572624024+572207250+572512799+573527323+574521477+574776910
3128+574135368+572867691+571348994+569999690+569214823+569053408+569204859
3118+569403594+569656600+569965201+570170775+570204198+569973216+568904054
3108+566439737+563305640+561210849+560821137+561069547+560891144+560609753
3098+561023696+562079879+562896808+562583648+560965528+558786426+557086753
3088+556172534+555445358+554380497+553265227+552674610+552648945+552720313
3078+552378070+551497788+550591511+550413183+550988982+551367847+550734946
3068+549286771+547682513+546356631+545503154+544999753+544459252+543856170
3058+543668392+544062995+544582721+544790722+544654494+544330745+543896064
3048+543225586+542180249+541019680+540289709+540182822+540428548+540696519
3038+540603898+539742075+538324859+537174879+536508371+535572643+533962759
3028+532356110+531475939+531119870+530502890+529094720+527044272+525046845
3018+523854213+523789243+524607679+525697542+526477187+526738356+526483401
3008+525593376+524024967+522149907+520539949+519412508+518464793+517307569
2998+516014485+514997203+514304442+513534578+512539210+511590465+510771036
2988+509887667+508957968+508200384+507666649+507257228+506919029+506563806
2978+506054191+505357165+504536633+503697459+503023046+502746214+502928514
2968+503225422+503029444+502043783+500617927+499367642+498642304+498453717
2958+498563104+498346352+497063636+494813204+492755696+491926671+492211335
2948+492669952+492469782+491427608+490053375+489121103+488915124+488981087
2938+488726280+487997596+487011935+486051425+485337963+484985792+484907474
2928+484781137+484264977+483345279+482261189+481080985+479756095+478492132
2918+477633985+477251737+477099882+476841839+476264716+475505514+474940158
2908+474677371+474449699+473998178+473190920+471993949+470709542+469811796
2898+469218458+468283134+466778077+465337256+464705679+464907539+465266660
2888+465136866+464563751+464073550+463830361+463403586+462525952+461584120
2878+461032699+460714943+460096455+458948608+457539665+456302837+455518485
2868+455214224+455196869+455125611+454672105+453742480+452507233+451197676
2858+449982505+449029899+448511055+448475242+448796859+449177416+449152597
2848+448390049+447103657+445879146+445034310+444382436+443649377+442934813
2838+442592679+442644670+442528922+441644412+440032690+438364601+437383941
2828+437308307+437545466+437197376+436040888+434658455+433583005+432865536
2818+432375114+431898333+431085927+429855828+428661210+427943226+427556419
2808+427048421+426295912+425546968+424948336+424356359+423657200+422963263
2798+422342422+421636535+420741767+419798905+418936678+418155121+417527220
2788+417141295+416844608+416357311+415607596+414764194+414004955+413350361
2778+412657196+411760332+410651569+409459378+408312818+407336754+406638478
2768+406188354+405877474+405687821+405604429+405446177+404971345+404063303
2758+402748231+401221996+399907402+399216480+399086134+398911188+398171033
2748+397021053+395988880+395261373+394635274+393950345+393174965+392275233
2738+391321966+390524745+389987406+389591407+389145254+388533495+387755542
2728+386859413+385842683+384762637+383914491+383557430+383452492+383071052
2718+382311556+381633246+381367371+381181725+380444732+379061454+377714908
2708+377139440+377320305+377583937+377347441+376583863+375608498+374664092
2698+373803923+373029720+372376008+371835139+371304933+370703580+370092961
2688+369585589+369149658+368631034+367993832+367374939+366818591+366144656
2678+365244373+364334603+363699937+363312688+362905989+362303937+361531793
2668+360734756+360096817+359709017+359483956+359288346+359061409+358701442
2658+358046590+357139725+356269703+355562602+354828697+354013718+353426005
2648+353233705+353100969+352637462+351922935+351310881+350936796+350638491
2638+350215466+349627717+349017061+348593485+348424275+348282164+347827481
2628+347038975+346281354+345810309+345461300+345006544+344515864+344154464
2618+343898406+343614404+343225464+342732248+342165935+341521857+340770192
2608+339995033+339405188+339095264+338915612+338685145+338415226+338215130
2598+338071842+337855017+337474129+336905941+336171227+335412246+334832403
2588+334458979+334183985+334057170+334221342+334542775+334632601+334283923
2578+333667678+333074230+332597449+332105998+331481480+330798610+330202699
2568+329689002+329125153+328481185+327944103+327720770+327763274+327834973
2558+327824605+327783056+327683082+327417390+327026391+326672933+326396505
2548+326080184+325628185+325039149+324374517+323800556+323576561+323813683
2538+324271380+324549757+324466586+324125813+323705950+323326974+323026794
2528+322735806+322357786+321945682+321695948+321709111+321846958+321880123
2518+321723047+321488462+321334474+321285278+321208652+320973736+320617152
2508+320294690+320066209+319825484+319475041+319055693+318656825+318321825
2498+318073341+317875010+317570197+317071208+316583029+316377823+316388008
2488+316308771+316056500+315815702+315668185+315482319+315191221+314937332
2478+314867913+314929795+314939097+314775108+314470700+314193095+314143384
2468+314369990+314669508+314754297+314495813+313964100+313327080+312772754
2458+312423230+312248836+312093929+311822612+311464485+311187395+311072198
2448+310998698+310837209+310613655+310399550+310201918+310022707+309885854
2438+309800036+309771356+309783416+309730212+309486986+309071278+308647151
2428+308365704+308241554+308185261+308132994+308102550+308125126+308195924
2418+308311010+308480404+308677669+308799484+308700796+308321048+307815790
2408+307490368+307506362+307681437+307687063+307450970+307240984+307302351
2398+307549198+307714253+307708683+307709822+307904458+308226810+308406168
2388+308249478+307776723+307071572+306127276+304886219+303328584+301481670
2378+299407653+297233387+295170567+293435411+292068440+290854372+289515694
2368+288001850+286567077+285584597+285300613+285770923+286978520+288879135
2358+291336778+294202923+297628026+302190278+308193902+314725213+320085255
2348+323145410+324030104+323820191+323445443+322773420+321210747+318675136
2338+315541884+312171180+308732197+305324209+302178990+299626391+297778024
2328+296404674+295224543+294184060+293445284+293212114+293540404+294219101
2318+294829977+295007350+294724396+294344905+294349630+294934952+295863051
2308+296741476+297390886+297843418+298111830+298186636+298193787+298314003
2298+298549397+298748959+298867502+299018860+299220886+299287052+299121703
2288+298945764+299025166+299317919+299584180+299717688+299789313+299846213
2278+299823527+299658472+299404454+299196325+299155254+299320070+299569031
2268+299650438+299455471+299195957+299145621+299295178+299400667+299290343
2258+299062284+298999888+299241697+299563976+299642973+299476080+299336248
2248+299376381+299507039+299638138+299813912+300064785+300315805+300510790
2238+300688696+300911974+301233995+301687777+302216494+302736257+303283616
2228+303925470+304585028+305173292+305787385+306584091+307563207+308602660
2218+309619464+310605566+311571335+312576850+313806582+315434262+317365910
2208+319308404+321128349+322942557+324847988+326763936+328591050+330401618
2198+332351834+334420997+336402246+338199908+339958264+341844613+343834208
2188+345701621+347201824+348355187+349462515+350697762+351868627+352728722
2178+353316912+353823733+354269628+354496970+354450126+354254957+353960954
2168+353430565+352572602+351473510+350257824+348953819+347475236+345737985
2158+343823361+341885610+339913002+337759675+335286901+332412649+329264874
2148+326149272+323206042+320643957+319373926+320470665+323870454+328417060
2138+333143576+337805158+342441591+347141596+351984853+356819543+361352655
2128+365560547+369771970+374355381+379441459+384903645+390577214+396432127
2118+402444631+408463092+414398344+420413238+426757066+433568702+440988237
2108+449393064+459570772+472702005+489797170+510832293+534638311+559572579
2098+583701648+604743389+621192159+633340931+642405611+649348291+654474594
2088+657154302+656443930+652145292+644259419+632246251+615866202+595694520
2078+572764040+548598864+524782183+502122248+480983400+461881616+445113657
2068+430554876+418010141+407168206+397606853+389261701+382282767+376482492
2058+371581251+367575182+364351406+361511386+358820353+356406335+354593341
2048+353675923+353613158+354138989+355325333+357558044+361091339+366370821
2038+374522348+386789515+403680687+424913884+449776563+477286042+506104968
2028+534349934+559896439+581386024+598654921+612200575+622934778+632005342
2018+639911143+646012922+649301080+649418814+646831983+642166393+635524996
2008+626540692+614941982+600979039+585458570+569264388+552698583+535512783
1998+517715886+500100149+483699436+468770357+454640741+440736371+427329408
1988+414986498+403914095+394118967+385640932+378415279+372210806+366761967
1978+361865469+357422367+353392656+349701917+346378607+343727579+341967163
1968+340669446+339017131+336757027+334420960+332492070+330914211+329523763
1958+328416839+327672529+327111143+326499936+325772944+325042753+324530012
1948+324468718+325082095+326430296+327857807+327972709+326141109+323528798
1938+321698816+321034699+321000504+321066173+321010100+320825190+320625278
1928+320636272+321259245+322695765+324359589+325442025+326095737+326799160
1918+326886449+325418787+323140741+321750734+321880454+322807579+323447429
1908+323268328+322548579+321886815+321536372+321354440+321243435+321393047
1898+322061614+323108127+323966052+324519901+325482066+327041797+327934359
1888+327096693+325360472+324139417+323760883+323835928+324062791+324265718
1878+324356574+324394298+324559096+325468572+328246085+333195604+338105559
1868+339331651+336164352+331727757+328824201+327802690+327746177+327903069
1858+327955575+327847585+327730918+327820119+328302305+329392977+331370953
1848+334638778+339261827+343552339+344209544+340583297+336219578+334019592
1838+333761843+333869686+333946312+335395075+339424492+344641393+347631099
1828+347246571+345640180+344074897+341877411+339202335+337479240+337318340
1818+337962639+338579766+339321245+340896273+343248739+345091958+345264697
1808+344213110+343470344+344304554+347046071+350771888+353554880+354029638
1798+353012026+352918596+355668092+360759906+364385344+362773658+357717032
1788+353972022+353531421+355236243+357422771+359511789+361096193+361559810
1778+361572496+363328683+368530288+376261070+382257837+382554892+378337808
1768+373102669+369085386+367923640+370230035+373945005+375943498+376200145
1758+376644679+377344757+378008617+380526101+386623026+394323107+398834048
1748+398298437+395514048+393613433+393755838+395560891+397592881+398442607
1738+399270824+403366866+411343227+417441255+415757429+409628588+404070179
1728+400394110+399038592+400100585+402618731+406431139+413491737+425206931
1718+438266171+444624742+441236720+433940618+428392283+426745410+429506782
1708+436198883+444558816+451449652+457035381+464884191+475812092+484515078
1698+487033261+485192028+479978252+473286739+469854999+471846543+477651487
1688+485865632+497908289+513473689+523596721+520842960+512886381+508562557
1678+510375000+517078279+524973344+531125937+537020597+544393987+549806498
1668+549179333+546223087+547092705+552421346+557736531+559390537+559361012
1658+562208754+571361605+588037643+606348898+610942642+603716842+600798872
1648+604566274+606278118+599163102+589041724+583502177+584290978+590816480
1638+601810638+612696402+614732032+606544545+597857590+595065112+597745078
1628+602495089+606742839+610353238+612917456+612960659+611942459+613901278
1618+619837597+624934559+624036445+619843627+617472556+618135718+620437149
1608+622728359+624235878+625051557+625542273+625836423+625923345+626122337
1598+626965445+628458478+629876724+630614526+630859627+631018688+630998024
1588+630570477+630027255+629936215+630522825+631874812+634771751+640575996
1578+649332922+657066057+658063888+654420912+653223500+656403852+660079553
1568+660477097+659188131+659505004+663136656+671992637+688368126+708435495
1558+716121493+707930218+698610510+694423135+694525499+697277642+701694896
1548+708183040+718461973+733295453+750802686+767634843+778444349+775631979
1538+763235459+754520524+753788825+756639067+756967854+754850781+755097794
1528+759627560+766427872+773482035+780901533+787657869+790549513+789772736
1518+788566573+787136047+784370226+782044086+783283341+789787296+801526537
1508+814847129+818897872+808019609+794762479+788772184+790010556+795287611
1498+800037843+799737662+795020228+792099390+795395932+803363579+809378509
1488+808165213+802030490+796340301+793700009+793814948+795449688+798397220
1478+803603311+811289236+819824519+825932989+825690389+818931773+811388070
1468+808323319+810326482+814011007+815799588+816980822+821928796+832274794
1458+842991863+843393158+832347449+820610782+814045202+812603425+814347883
1448+816246255+815735316+813063550+810429802+809510509+811089508+815579196
1438+822018879+826490551+825435434+821475363+819258280+819457934+819758188
1428+819119441+818974719+820011966+821273135+822939275+826545631+830848828
1418+830881846+825190481+818239196+813684648+811902906+811695604+812106973
1408+813163561+814815361+815685531+814665198+813315636+814071529+817147016
1398+820841028+823598981+824318546+822329576+818991265+817045755+817507130
1388+818564085+817792382+815636996+815039430+817714579+822835367+828626081
1378+834116322+839291968+843829088+846448569+846719776+846491442+847607742
1368+849891818+852674774+856253258+860196121+862240391+860942454+857748129
1358+854887519+853161666+851974255+850410111+848363046+846608146+845769671
1348+845658629+845677234+845693854+846489089+848957965+852521668+854920905
1338+854487548+852118830+850079707+849755774+850981277+852743899+854241638
1328+855284695+855901087+856188030+856706985+858390259+861579877+865374562
1318+868404971+870280767+871650919+872834726+873366844+873152482+873114389
1308+874125090+875908596+877521422+878574994+879452665+880596394+882071264
1298+883519439+884195763+883454726+881445680+878960772+876619410+874521310
1288+872431299+869994559+867020774+863716143+860560426+857928370+855725994
1278+853442947+850886267+848767576+848046173+848686317+849615979+850014258
1268+850143390+850738383+852075148+853916749+855868583+857348306+857654516
1258+856606974+854989662+853991022+854135082+854973999+855821666+856444676
1248+856860531+857061730+857408680+858505493+860211049+861663195+862568295
1238+863575760+865290876+867789094+871005994+874763543+878497559+881597388
1228+883938014+885631364+886423657+886083767+885334345+885371261+886456676
1218+887953091+889553636+891546210+894167456+897394725+900978651+904337773
1208+906862979+908424549+909452236+910786134+913230816+916707745+920022451
1198+921943472+922520816+923130515+925175006+928856591+933091692+936427355
1188+938140413+938630099+939006097+940251602+942555607+945460929+948482146
1178+951212669+953010368+953412250+953167003+954160054+957517411+962066150
1168+965514840+966840722+966641730+966090125+966451929+968361332+970931028
1158+972691591+973585587+974788147+976891026+979327178+981334974+982765500
1148+983795320+984569009+985556471+987480066+990408700+993559195+996178750
1138+997884527+998342960+997815402+997716788+999552285+1002978547+1005632591
1128+1005835922+1004718299+1004255968+1004319651+1003494928+1002070432
1120+1002238097+1005650019+1011933509+1018842362+1023468316+1024469309
1111+1023488391+1023119968+1023977931+1025306387+1026863471+1028668230
1103+1030319148+1031916016+1034374817+1037619735+1039732175+1039344191
1094+1037441333+1035647017+1034582855+1034752874+1037082323+1041348825
1085+1045254110+1046547562+1045617753+1044764424+1046008017+1050151491
1077+1056118916+1060711042+1060870619+1056735822+1051139762+1046928193
1068+1045624151+1047117405+1049810938+1052156271+1054243929+1056831495
1060+1059396779+1060888047+1061645704+1062878782+1064777522+1066187384
1051+1066059281+1064764138+1064365932+1066886726+1071283830+1073741823
1043+1072182533+1068199077+1063924486+1060207604+1057945662+1058156127
1034+1060272979+1062285187+1062763181+1061538634+1058710821+1054533152
1025+1050752587+1050362985+1054451305+1060162967+1063561431+1064078400
1017+1063865950+1063968756+1063636734+1062509918+1061695416+1062425129
1008+1063771381+1062988941+1059183446+1054573745+1051092036+1048713978
1000+1047513257+1047983162+1049120715+1049039456+1047863884+1047240359
991+1046951651+1044987242+1040700224+1035474424+1030710515+1027109822
983+1025135633+1024676611+1025040916+1025972049+1027417650+1028103020
974+1026248844+1022073161+1018031905+1016145887+1015857105+1014722936
965+1011021129+1005637665+1000980238+998361565+996956410+994881695+991674354
955+989003103+987733403+985891655+981512126+976008649+972440313+971682656
945+972026444+971692436+970318240+968326328+966286323+964887639+964352138
935+964033206+963556903+963440052+963803401+963923708+963664709+963663680
925+963685814+962635919+960540981+958977940+959249147+960945805+962436191
915+962558410+961434094+959785824+958292717+957424901+957137884+956760489
905+955566312+953446372+951309076+950646871+951966502+953901937+954622752
895+953685516+951722725+949406366+947499684+946649884+946846376+947807071
885+949042796+949178399+946824168+942562152+938606567+936544133+936421913
875+937330985+938068934+937961863+937580203+938246601+940672458+944196451
865+947011615+947049193+943594693+938412060+934297781+932467505+932222551
855+932700840+933669550+934885346+936078714+937331279+938688414+939878326
845+940398677+939591088+937348119+934832988+933449673+933405329+934296310
835+936097981+938417208+940043050+940575535+941067281+942298079+944060480
825+946247560+948884690+951029634+951412544+950185570+948702097+947939733
815+948274843+949951279+952556862+954735485+955484906+955074126+954176379
805+952963745+951445341+950087838+949750595+950992130+953163841+954473912
795+953443725+950529358+947995621+947453576+948166155+948810564+949989886
785+952897046+955972313+956211531+953930690+952494796+953261866+954538919
776+954888885+954272199+952816743+950643782+948616499+947891639+948687757
766+950046437+950706583+950353235+949563221+948443391+946756072+945686469
756+947566824+952862925+959004781+962896756+963390782+960711367+955404015
746+949448650+946069893+947387392+952904106+959782147+964599004+965338497
736+962179692+956820275+951568517+948666799+949298854+952472588+955814281
726+958000994+959280327+960028865+959854581+958206678+955383057+952227855
716+949244657+947021396+946587965+948176965+950394710+951532704+951364009
706+950726953+950119312+949944219+951006322+953213405+954843953+954605618
696+953322755+951507701+946843435+937762650+928049736+923189787+923379072
686+923965608+922129228+919005720+915850003+913179193+912298066+913859121
676+916305274+917268175+914860041+907558791+895945814+886797522+888707954
666+897683948+903663948+903938832+901576511+899137859+896780980+894993724
656+894637214+894595371+892889961+889709315+886472780+883297429+880494765
646+880068615+882319159+883818810+880692729+872632866+864110304+861111811
636+865096516+870358349+870821489+868569254+868437328+868880980+865183658
626+858054634+851512660+846605572+842712715+840066833+839389994+841627227
616+847559281+856203767+864511525+869362577+869266316+865405521+860725444
606+856716397+852586528+847730917+842986054+839703705
##END=
