##TITLE=<SNM>
##JCAMP-DX=4.24
##DATA TYPE=INFRARED SPECTRUM
##DATE=3/5/2025
##SAMPLING PROCEDURE=Instrument type and / or accessory
##ORIGIN=Admin
##XUNITS=1/CM
##YUNITS=ABSORBANCE
##RESOLUTION=4
##FIRSTX=4497.3318
##LASTX=599.83466
##DELTAX=-1.4281778
##MAXY=1.7123603
##MINY=0.18422049
##XFACTOR=1
##YFACTOR=1.5947598e-09
##NPOINTS=2730
##FIRSTY=0.20565484
##XYDATA=(X++(Y..Y))
4497+128956629+129635430+129972453+129598354+128836636+128437253+128649498
4487+128832684+128362399+127651530+127679552+128758727+130214122+131046909
4477+130753522+129736176+128889999+128665821+128749066+128687536+128479132
4467+128381928+128403307+128283920+127983928+127844891+128115320+128587202
4457+128863294+128776677+128388712+127786063+127116746+126671166+126661710
4447+126930420+127046601+126682547+125844761+124848765+124109107+123870616
4437+124120554+124688686+125302604+125658557+125666462+125498647+125266499
4427+124891849+124344862+123713032+123037473+122318559+121631180+121143797
4417+121076185+121473513+121967754+122105062+121900983+121649391+121412535
4407+121221566+121399715+122086057+122801700+123005115+122776528+122567329
4397+122507669+122269046+121572875+120616469+119823878+119330412+118998108
4387+118750964+118575870+118425939+118379481+118572506+118812605+118656918
4377+118002682+117236526+116767587+116728137+117140826+118046421+119231106
4367+120007316+119702605+118446168+117093687+116301395+116002981+115794866
4357+115543695+115516140+115979323+116805644+117634087+118326885+118945045
4347+119323853+119078830+118155818+117129922+116744134+117121737+117642739
4337+117786662+117818936+118321970+119320330+120165040+120153968+119263398
4327+118380659+118530590+119706127+120860015+121181490+120837020+120315261
4317+119750922+119157009+118661441+118256507+117866421+117812853+118589568
4307+119986339+121099404+121435025+121377813+121475363+121856488+122281866
4297+122240641+121312958+119949142+119413824+120407382+122094186+122977243
4287+122553715+121656371+121229975+121310594+121329860+120983606+120555435
4277+120612731+121434848+122550454+123089995+122854661+122552342+122741143
4267+123215669+123623004+123940433+124110154+123847620+123111112+122353000
4257+122126646+122640687+123648849+124663318+125378364+125885033+126384031
4247+126834403+127017486+126823237+126370781+125932509+125776028+126024957
4237+126598350+127189450+127357704+126855922+125894106+124972122+124541886
4227+124810380+125545646+126073330+125900964+125385213+125355967+126107584
4217+127157158+127948197+128341067+128418341+128237257+127857431+127350612
4207+126808240+126468256+126555434+126863135+126971215+127006722+127543002
4197+128611310+129483462+129597990+129138479+128621980+128367286+128411137
4187+128670017+129030193+129275618+129136003+128655646+128358335+128725500
4177+129570538+130234501+130437645+130622662+131261462+132099445+132484382
4167+132329555+132250086+132661130+133185936+133227824+132790010+132336619
4157+132106611+132035038+132131849+132400671+132558797+132368453+132098333
4147+132219298+132753541+133208604+133156297+132762838+132641312+133145598
4137+133969892+134572298+134774798+134758745+134727835+134755045+134742449
4127+134514628+134126728+133901514+134000446+134244741+134471908+134708344
4117+134961160+135224264+135585403+136008473+136239555+136169644+135990047
4107+135872548+135828950+135953008+136475711+137445581+138520299+139224310
4097+139370139+139130003+138735310+138258906+137661826+136940342+136289694
4087+136119253+136689245+137721841+138599759+138932063+138787187+138501294
4077+138391915+138510824+138590415+138403436+138193994+138458406+139222142
4067+139875005+139926835+139589654+139314039+139119509+138808594+138570214
4057+138824693+139452309+139697238+139130386+138326489+138161590+138733880
4047+139432733+139853112+140122868+140386299+140493090+140327816+140101546
4037+140114608+140401744+140800978+141264899+141882022+142593283+143127003
4027+143363028+143566256+144012358+144518934+144668594+144425701+144173539
4017+144169989+144251467+144067179+143427145+142468608+141631962+141457672
4007+142205935+143532076+144709212+145325755+145548596+145665151+145770680
3997+145913874+146020880+145744947+144963943+144252840+144338710+145273140
3987+146463796+147301003+147539112+147271841+146762770+146314360+146207915
3977+146560289+147145232+147527086+147480965+147186251+146962840+146884586
3967+146780935+146623715+146663202+147038563+147478087+147621795+147525021
3957+147600248+148079717+148699568+149014081+148956972+148876260+148973184
3947+148993749+148634928+147986793+147447047+147388695+147884693+148590694
3937+148966110+148828756+148623024+148882147+149499895+149868715+149748908
3927+149577197+149875610+150617623+151288921+151550529+151575711+151680913
3917+151906062+152024299+151865351+151563844+151373099+151252713+150928538
3907+150439473+150214848+150463804+150926165+151436441+152171539+153133261
3897+153980943+154487930+154713265+154689607+154272349+153545857+153026162
3887+153030909+153312214+153525637+153760858+154176892+154531406+154566278
3878+154440669+154333084+154179527+154023719+154155084+154726010+155513929
3868+156170258+156472185+156343240+156038781+156038697+156401985+156777065
3858+157131831+157933868+159332789+160320880+160070521+159504229+159539474
3848+160047928+160442013+160385745+160035220+159875628+160401255+161670278
3838+163004371+163637004+163639695+163535717+163513479+163517646+163694301
3828+164204007+164923818+165734507+166592289+167055724+166717795+166374877
3818+167016611+168178721+168688708+168493534+168458438+169047324+170070193
3808+170970657+171399333+171786112+172700910+173865936+174585000+175026495
3798+175798632+176834171+177699111+178423556+179339065+180453054+181535500
3788+182681277+184335826+186671821+189333672+191943010+194429347+196894454
3778+199537543+202566195+206087099+210141125+214617715+219052408+223014640
3768+226807188+231041362+235903554+241416170+247736279+254804063+262268361
3758+269947007+277891690+286051356+294552109+304040748+314614841+324897574
3748+334247420+343693955+353399427+361836343+369168931+377660079+388374721
3738+400441677+412730381+425203307+437629478+448391362+456052405+460970659
3728+464695109+468204427+471156179+473072262+474679475+477504227+482469687
3718+489093526+496221522+503347760+510559140+517651031+524665330+532292398
3708+540298190+547871625+555161343+562422282+568805126+573802467+578497367
3698+583791991+589064227+593064283+595598740+598350311+603192507+608851615
3688+611481529+610260701+607894732+606645761+607235394+609452124+612426601
3678+614831067+615669769+616078991+618522514+622648039+625159772+623471828
3668+619136964+615735250+615493021+618843755+624394512+629816175+633713299
3658+636157196+637950015+639873049+641860220+643027974+642836015+641991333
3648+642221041+644255678+647260355+650793069+654675990+657942892+660137869
3638+662709291+666978000+671726982+674765071+675640551+675192944+674910686
3628+677231020+682637134+688315192+691180084+690596207+689273570+690678283
3618+695001411+699493550+702425942+703956685+704058496+702410543+700268191
3608+700308257+703774892+708653342+711690609+711596498+709786038+708211640
3598+707722398+708832071+711864554+715779319+718618796+719541966+719084044
3588+717713118+715214055+711533185+708169556+707192117+708679579+710713245
3578+712510923+715604403+720487039+725033147+728110481+731039360+733555018
3568+732532429+727696213+724130160+725332673+729241010+731547963+730368473
3558+727435707+725142059+724091290+723666631+723038502+721518522+719796044
3548+720326026+724663281+730712027+734510854+734693171+732984521+731036893
3538+728903585+726313401+724070957+723294597+723919363+724816894+725126137
3528+724930216+724588605+724646537+725830512+727592758+728199808+727307211
3518+726357280+726046691+725459002+723942162+722289201+721627883+722165713
3508+722923685+722727091+722031088+722524292+724246023+725058413+723990675
3498+723194432+725436950+730598257+735073651+735341558+732116816+728974075
3488+727551346+726574954+724916835+723083427+722071004+722402224+723435727
3478+723761191+723503376+724663506+727872924+730830656+731647382+731236777
3468+730897932+730716736+730882608+732113751+734399924+736366912+736328864
3458+734295423+732772827+734025573+736699477+737430314+735198036+732288667
3448+731304351+732950883+736189529+738581922+737625712+733078632+727617426
3438+724568871+725361377+728921152+732656141+734436029+734084551+732870003
3428+731871559+731349575+731171145+730921852+729985900+728353645+727369030
3418+729006891+733628647+738377031+739115418+735010711+729619771+727117569
3408+728688677+732209731+734797074+735491134+735275478+734999349+734654599
3398+734470190+734731518+734689358+733369113+731290223+729922810+729862636
3388+731224816+734449633+738424049+739747210+736553041+731342399+728274110
3378+729249456+732930626+736100351+736618448+735789015+736218681+737510522
3368+737093637+734842747+733354462+733857533+734541502+733458440+731165016
3358+729402845+729014590+730124487+732673035+735874081+738284265+739330998
3348+739882509+740463620+740344991+739087311+737553429+736893605+737527640
3338+739201007+741020736+741455561+739273814+734918469+731021345+730596687
3328+734106154+738617728+740522374+739144047+736694245+735222928+735200802
3318+736486289+738528550+739834070+739299229+737639467+736256954+735760311
3308+736259420+737364534+737939889+737954615+739349312+742543780+744842960
3298+744921523+745193466+747250080+748861105+747763616+745073566+743014634
3288+742253299+742398166+742900565+742935997+742019554+740790355+739850067
3278+738513077+736256131+734398728+734494708+736268615+738300711+739406945
3268+739250866+738369855+737352723+736170617+735053543+735057655+736366987
3258+737612033+738357745+739670067+741112605+740808968+739265592+739325243
3248+742134894+745852542+747796282+746596460+743286428+740435887+739171705
3238+738087671+735853749+733605998+733391090+735269199+737211444+737460065
3228+736214794+734891409+734267466+733743240+732381508+730202602+728115265
3218+726856465+726642379+727677152+729871606+732321857+734065789+734832880
3208+734513919+732969870+731114933+730906528+733318656+736937932+738829571
3198+737387482+734389160+732917694+733745034+734790496+734234800+732762063
3188+731624956+730410782+728074526+725046976+722832040+722113836+722354085
3178+722947455+723713425+724065650+723120578+721112926+719168886+717673724
3168+716425688+715854742+716500812+717808649+718783920+719177408+718900531
3158+717485054+715404968+714620759+716183944+718134113+717504264+714217405
3148+710742697+708368019+706509868+705057015+704853020+705964637+707267764
3138+707872945+707865919+707682705+707580895+707815537+708656780+709781329
3128+710118454+708850684+706214304+702970201+700018150+698735205+700029138
3118+702658267+704131901+703428497+701484682+699594388+698696559+699089747
3108+699722885+699160386+697628596+696406648+695576169+694174146+692080007
3098+690258035+689438470+689332847+689017474+688038091+686823319+685963089
3088+685626188+685596586+685516827+685282709+685214760+685330848+684743981
3078+682649543+679777250+677962679+678160319+679425324+680065638+679504784
3068+678437196+677446900+676390374+675081491+673844517+673238439+673479062
3058+674146435+674496193+674156900+673324477+672223326+670812632+669014880
3048+667111056+665931790+666253442+667871868+669611090+670260075+669367927
3038+667450125+665561027+664460025+664152650+664205051+664090159+663102554
3028+661024486+659021169+658490216+659034027+658862623+657239115+655305391
3018+654215302+653726134+653206318+652840414+653073337+653585528+653502630
3008+652385781+650620694+648880350+647484382+646436229+645890325+646069353
2998+646499618+646142085+644832006+643652740+643418920+643777274+644088536
2988+644141759+643642051+642109663+639746198+637516835+636123408+635542372
2978+635389731+635204574+634666220+633904511+633398449+633294172+633137345
2968+632530071+631649285+630745774+629581981+627873257+625880293+624047333
2958+622487362+621192980+620285283+619840069+619764645+619860999+619737212
2948+618932596+617422895+615559175+613447395+611162381+609532855+609586525
2938+611075446+612440430+612318549+610682594+608741059+607881090+608208722
2928+608197509+606389367+603142087+599970642+597731899+596107418+594407066
2918+592556689+591319155+591278715+591806641+591799502+591219213+590851403
2908+590767682+590185823+588849842+587466732+586486975+585473132+584034557
2898+582505533+581341703+580512494+579788534+579077918+578248485+577142512
2888+575918993+574909561+574077661+573120554+572137845+571609732+571563574
2878+571343321+570476363+569357159+568779748+568895649+569023099+568625612
2868+567862969+566878840+565337706+563240353+561409860+560432122+559825670
2858+558920664+557888283+557308517+557232272+557127060+556484429+555271226
2848+553838257+552495885+551335718+550449811+550018463+550002840+549925959
2838+549129117+547263528+544580392+541886828+540159902+539877045+540561350
2828+541169259+541032055+540276849+539406116+538721176+538142793+537401192
2818+536300340+534938384+533792307+533312520+533193592+532371597+530206071
2808+527424675+525289835+524103393+523166207+522020765+521041906+520662696
2798+520633768+520470400+520175285+519871311+519153593+517670952+515940998
2788+514658053+513636773+512309800+510786457+509593810+508774656+507940738
2778+506977389+506141490+505510632+504752212+503604678+502306970+501248576
2768+500403333+499479528+498484933+497737352+497354778+497039742+496314212
2758+494811202+492578475+490249657+488607199+487786885+487184433+486261973
2748+485108645+484072377+483220594+482388470+481503684+480620805+479714603
2738+478644734+477361565+476003421+474694014+473373021+471935081+470434612
2728+469080728+468053468+467311306+466634664+465903341+465177363+464449404
2718+463617915+462735372+461835673+460607371+458819411+456902618+455496746
2708+454651877+453965591+453189493+452303399+451359859+450538126+450014348
2698+449695836+449358187+448912225+448319714+447526348+446624071+445711366
2688+444579305+443032565+441455401+440482597+440172531+440008267+439599680
2678+438932979+438073608+437015401+435783212+434522617+433458729+432707896
2668+432121590+431452796+430683911+430033693+429626713+429286859+428691246
2658+427686785+426472760+425438174+424739480+424129365+423355696+422535346
2648+421823122+420971936+419689328+418220141+417094883+416469033+416110081
2638+415837241+415610597+415315669+414725550+413735814+412596465+411784636
2628+411553619+411655429+411532390+410778343+409524252+408369317+407753522
2618+407489054+407133390+406572051+405930615+405251095+404571948+404007207
2608+403518600+402886022+402042013+401217738+400668919+400357620+399977364
2598+399318063+398520362+397892980+397597827+397546511+397430199+396903394
2588+395998089+395202817+394865692+394761863+394478483+393933177+393309085
2578+392767516+392393352+392209054+392137294+392027560+391753337+391326474
2568+390934519+390757958+390731384+390602626+390241431+389799991+389557239
2558+389614423+389760000+389683156+389275541+388651298+388000108+387534412
2548+387404458+387520097+387582776+387357440+386817067+386093519+385463296
2538+385274102+385644043+386285890+386826822+387193250+387460147+387512099
2528+387207341+386736150+386439502+386354735+386230985+385913332+385480190
2518+385067865+384725246+384406734+384070505+383831714+383907848+384270687
2508+384514150+384285451+383700639+383127190+382729890+382414293+382051192
2498+381619133+381225571+381026062+381055588+381152465+381078948+380722425
2488+380216998+379817307+379569695+379250435+378767733+378403474+378410276
2478+378559590+378414873+377968836+377644643+377649539+377721374+377609884
2468+377423754+377347883+377357189+377346014+377267227+377065886+376700804
2458+376299767+376152358+376435177+376930064+377110811+376642610+375741305
2448+374907648+374417359+374242854+374292974+374444718+374460602+374174756
2438+373710629+373305294+373050095+372947949+373006441+373121968+373068933
2428+372750869+372324080+371970397+371667134+371304182+370936708+370723071
2418+370666597+370662710+370743590+371022746+371456711+371848815+372010912
2408+371873558+371561661+371305827+371204988+371216687+371350117+371629908
2398+371925622+372032366+371884808+371582853+371239822+370847194+370313064
2388+369611006+368739302+367459608+365228937+361525642+356237559+349702934
2378+342395014+334639823+326656718+318714838+311110644+304073003+297715220
2368+291982930+286787089+282315712+279053801+277496054+277990585+280717226
2358+285611692+292392452+300974982+311875230+325139617+338409983+347557254
2348+349724013+345497277+338683197+333196987+329721531+326733599+323462923
2338+320206225+317142384+314007940+310704075+307801863+306148286+305951187
2328+306585988+307369524+308185577+309333821+311114288+313656015+316884606
2318+320438512+323763458+326559281+329077517+331741330+334544292+337098745
2308+339206414+341062285+342880070+344606137+346103243+347409286+348654033
2298+349823805+350786519+351528905+352204987+352927302+353638180+354205911
2288+354562846+354765121+354962612+355241843+355495061+355539388+355341186
2278+355032990+354755254+354547821+354363299+354170816+354044786+354072145
2268+354152278+354020156+353558646+353009453+352755488+352916314+353267193
2258+353517421+353539622+353399389+353313389+353487334+353883176+354251733
2248+354393236+354256555+353934903+353736066+353996796+354641782+355190153
2238+355331506+355244870+355282881+355566410+355937435+356180636+356233522
2228+356198726+356205827+356328231+356589036+356945783+357289412+357517215
2218+357600337+357596899+357633526+357826458+358185074+358639633+359132052
2208+359603803+359964438+360197622+360441833+360841749+361349417+361774412
2198+362035740+362277260+362674036+363181181+363598626+363891387+364271980
2188+364884935+365593683+366203275+366710121+367185236+367611277+367981592
2178+368365399+368780826+369206381+369743128+370548827+371629908+372867853
2168+374173672+375484200+376717174+377855813+379040199+380513011+382463741
2158+384909394+387702489+390618324+393460156+396203653+399041000+402115082
2148+405196789+407829805+409849903+411597647+413546396+415847108+418334211
2138+420882123+423549113+426355102+429183928+432033870+435123313+438539230
2128+441932834+444827664+447167844+449263627+451212040+452700848+453372744
2118+453074414+451817782+449799253+447375950+444818432+442175063+439429062
2108+436640415+433888882+431117614+428082253+424598837+420839814+417168923
2098+413714099+410354769+407044699+403895119+401022676+398492368+396296792
2088+394286187+392252634+390172623+388267678+386755996+385613620+384625603
2078+383615124+382580950+381646941+380900668+380283938+379674458+379072080
2068+378618157+378413976+378408930+378482896+378530325+378433860+378101481
2058+377594485+377081247+376620297+376165701+375801741+375710919+375847675
2048+375907887+375723850+375491339+375488685+375706994+375924556+376121038
2038+376585837+377518314+378755586+380020367+381196381+382231939+383016746
2028+383486553+383689053+383672981+383395432+382779412+381861587+380839596
2018+379887348+378966495+377946411+376860920+375886209+375094899+374372210
2008+373600821+372824834+372150658+371562595+370964291+370342104+369746155
1998+369165268+368549771+367894881+367226835+366594856+366086327+365758247
1988+365593534+365544572+365507271+365306529+364891663+364454446+364168450
1978+363961466+363709295+363465010+363337896+363296223+363179425+362823986
1968+362217982+361606634+361322694+361430671+361647934+361648084+361377860
1958+361057516+360890822+360853933+360815885+360737023+360622991+360434059
1948+360206518+360096111+360131393+360084300+359745381+359217268+358786592
1938+358588167+358521751+358450252+358394151+358455073+358598968+358691136
1928+358725596+358795525+358859997+358818100+358790928+358985990+359279984
1918+359307828+359014432+358771866+358864894+359198805+359499638+359589078
1908+359476840+359267201+359030167+358805878+358669720+358648229+358615824
1898+358444533+358212096+358105838+358168816+358279708+358348703+358405401
1888+358482581+358509679+358419118+358283782+358221440+358232765+358265169
1878+358333230+358450626+358566526+358653873+358728362+358748245+358628046
1868+358391348+358201482+358208135+358453466+358872854+359300279+359543891
1858+359537313+359395847+359296205+359333244+359492500+359709389+359955729
1848+360267477+360634839+360923301+361048397+361142470+361324226+361535285
1838+361724890+361941031+362214432+362518779+362836618+363171613+363552991
1828+364005681+364435086+364679932+364750160+364826331+364978822+365144170
1818+365372571+365854712+366643817+367514475+368185399+368599854+368927187
1808+369336559+369877791+370542436+371311994+372157386+373031968+373854263
1798+374568729+375284018+376223222+377421288+378552863+379340435+380051800
1788+381118753+382616494+384372161+386261371+388214119+390068421+391669729
1778+393084758+394549085+396208362+397946501+399443794+400543301+401461201
1768+402466260+403713774+405308728+407217373+409216466+411106722+412908063
1758+414680886+416393872+418090636+419887604+421736523+423417515+424849812
1748+426243911+427803471+429507411+431223312+432884271+434539885+436325191
1738+438404529+440861171+443530591+445926647+447774632+449480741+451443430
1728+453664010+456003592+458409105+460941880+463722267+466821353+470133965
1718+473362182+476245277+478851383+481364013+483795949+486144577+488609105
1708+491497656+494863228+498371125+501777810+505276663+509109426+513130935
1698+517070779+520945440+524728158+528298024+531797175+535495276+539500788
1688+543843089+548745721+554500099+560693151+566242525+570932080+575256142
1678+579554004+584077426+589078766+594516426+600077910+605585760+610965787
1668+616065237+620853575+625556735+630476746+635807587+641491475+647259383
1658+652845946+658176413+663482810+669161465+674995677+680141585+684628715
1648+689053579+693723250+698330430+702322338+705589463+708426100+711177073
1638+713901733+716260040+717952245+719219642+720294332+721056713+721495126
1628+721799809+721954842+721540200+720150736+718098831+716308553+715046688
1618+713480962+710823278+707543968+704303678+700795631+696847826+693096167
1608+690176034+687950035+685845057+683526816+681148775+679174162+678008875
1598+677690512+677741641+677417298+676345673+674779797+673107401+671507962
1588+670185026+669473549+669487079+669881164+670150790+670087327+669792137
1578+669441407+669400518+670255740+672025536+674066302+675980367+677986674
1568+680629482+684122504+688257783+692752688+697470648+702665817+709021937
1558+716549250+724155127+731903926+740488213+749642100+758584666+767034701
1548+774929264+781810059+787195244+791328131+795154541+799074613+802148882
1538+803967191+805542336+807513361+809890580+812472467+814940284+817148866
1528+819366642+821999434+825058827+828279010+831743851+835726639+839896079
1518+843623070+846933850+850361167+854003391+857273880+859590327+860669053
1508+860314212+859336698+860246488+863895963+868730236+873425098+877166591
1498+879099941+878886005+877589156+876758079+877023219+878135883+879419425
1488+880430129+881581214+883453717+885852165+888031819+889477047+890259985
1478+890769486+891366444+892364290+893967542+896065567+898249930+900044394
1468+901102414+901453144+901699298+902481115+903573221+904237904+904030172
1458+903123970+902755076+904043029+905976230+906915845+906463604+905435558
1448+904788666+904746881+904989746+905143209+905005817+904775884+904839945
1438+905158682+905319471+905386821+905778066+906203546+906094859+905726936
1428+906039170+907452330+909549085+911420990+912118040+911364030+909906019
1418+908952650+909038688+909831717+910769165+911341755+911442518+911388773
1408+911092088+909915064+907957794+906476610+906164452+906148530+905309005
1398+903483072+901167522+899195825+898601632+899349138+899739262+898023959
1388+893985631+889160478+885872946+885712905+888707714+893516197+898321766
1378+901813666+903541826+903989433+904519639+906333463+909184078+911850358
1368+913670386+915010814+916475702+918313745+920509545+922814032+924759118
1358+926111805+927129834+928124167+929006449+929609163+930187807+930988835
1348+931626907+931770129+932131174+933664384+936026728+937732089+937851690
1338+937172805+937288743+938815450+941064920+943227456+945071330+946481874
1328+947257337+947516049+947659421+948132517+949384067+951240947+952536376
1318+952443984+951586669+950803058+950054804+949486550+949983118+951740356
1308+953653823+954738006+955016078+954770672+953969495+952750088+951696926
1298+951263447+951211346+950668955+948946178+946453618+944272395+942649036
1288+940836707+938563690+936321993+934142340+931540719+928642189+926160618
1278+924239003+922257738+919855851+917426381+915442200+913741399+911748473
1268+909256586+906789890+905201365+904868650+905044762+904105147+901021310
1258+896647053+892830585+890287269+888247101+886292147+885266718+885743478
1248+886855842+887377302+887006165+886212837+885795056+886521707+888290306
1238+890011066+890901645+891275174+891808370+892739015+893875374+894945953
1228+895926756+897069693+898583467+900365971+901976623+902845972+902819585
1218+902652069+903497499+905690308+908418108+910728575+912496876+914250077
1208+916391159+918863761+921317300+923447319+925257555+926926662+928479531
1198+930021861+932176398+935451298+939207293+941884038+942528538+941855109
1188+941549304+942710331+945146604+948052160+950899935+953586921+956241166
1178+958898177+961185770+962850317+964327240+965700334+965817170+963993703
1168+961730329+961164541+962657311+964953875+967016768+968712336+969980555
1158+970631334+971273816+973202232+976826815+981146430+984919991+987342285
1148+987913454+986919196+985871342+986532661+989411980+993115724+995341050
1138+995492943+995756215+998349987+1002443855+1005157826+1005343581+1004701249
1128+1005163357+1006789407+1008664452+1010541590+1012631692+1014770083
1120+1016624272+1018184094+1019599048+1020854186+1021759117+1022346433
1111+1023129745+1024623113+1026546670+1028306599+1030403055+1033601485
1103+1036841924+1037898375+1035858431+1031438127+1025854480+1020778464
1094+1018367083+1020246762+1026718746+1036125215+1044639087+1048584650
1085+1048259111+1047748639+1049913417+1053416680+1055338369+1054988984
1077+1053839843+1053141896+1052985219+1052655643+1051488188+1049988765
1068+1049446001+1050152320+1051154875+1051843104+1052810302+1055008644
1060+1058484697+1062308864+1065681388+1068685093+1071630492+1073741823
1051+1073268203+1069765015+1065708897+1064172323+1065177793+1065916404
1043+1064646541+1062731205+1062562718+1064879090+1068309097+1070852338
1034+1071642227+1071140576+1070040097+1068941114+1068583058+1069156993
1025+1069758736+1069451212+1068431987+1067416500+1066653744+1066133256
1017+1066000499+1066504841+1067687994+1069491876+1071650600+1072709891
1008+1070780502+1066181694+1061700320+1059490990+1058998234+1058117074
1000+1055713467+1052866440+1051589475+1052464955+1053590923+1052410387
991+1048879092+1045634168+1044741496+1045023679+1043291857+1038317577
983+1032323623+1028220337+1026946138+1027540405+1028456997+1028421640
974+1026533141+1022413484+1016989205+1012303985+1009364417+1006988319
965+1003832945+1000157083+996481894+992422935+988082989+984919243+983743267
955+983141524+981008291+976782488+971770907+967889855+966208414+966212376
945+966218954+964781948+961890744+958743966+956390817+954855588+953800184
935+953697926+955489474+958892421+961996590+963235732+962746040+960943279
925+957623754+953534745+950793341+950820176+952952139+955086194+955280920
915+953562851+952218461+953361473+956348807+958350703+957362425+953723191
905+948958661+944594869+941738274+940841416+941785741+943727164+944896189
895+943818584+941223840+939408671+939283314+939555481+938911878+937612114
885+936837100+937415072+939087243+940422289+939963246+938064655+936787166
875+937373809+938715733+938943348+937885776+937013586+937457231+938844453
865+939600855+938344147+935354421+932459255+931220786+931556865+932251822
855+932179388+930941070+929162005+928283461+929152885+930721004+931139308
845+930441735+930679891+932718266+934542031+933922199+931461932+929598698
835+929764943+931436068+933205490+934089342+933903138+933179626+933017119
825+934049574+935117312+934350371+932015086+930456013+931031443+932892659
815+934915186+937388759+940799780+944333765+946680412+947379255+946917969
805+946140114+945811585+945969608+945792150+944780550+943570188+942980330
795+942726702+941852194+940330346+939410764+940109458+941919096+943502613
785+944154139+943977055+943379275+942721320+941997210+941085253+940674946
776+941746945+943526159+943982288+942960970+942399742+943175953+944002470
766+943543203+942172276+941425742+942071363+943304449+944330700+945405839
756+946468718+946849797+946941291+947407660+947076590+944791314+941988464
746+940935826+942206661+944762086+946977994+947753606+947483757+947388225
736+947634603+947070161+945159984+942960447+941657095+941425144+941990632
726+942813412+942674899+940963334+939542773+940531874+942559410+942966726
716+942413571+943366193+945690639+947328574+947845251+948174976+948552392
706+948717217+948576760+947883149+946105505+942431362+936319900+929229430
696+923878705+920359371+915833445+909713462+905694345+906425257+909349426
686+909962008+907418244+904190213+901728226+899694411+898176301+897749699
676+898245296+898173386+894787332+885938203+873103222+863950456+866006472
666+874079017+879534467+881619411+883470909+885505547+884587235+879433254
656+873081694+868783608+866411621+864055855+861502373+860376779+861447207
646+863584403+865248426+865893076+865756132+864278088+860549378+856290536
636+854732583+855413262+853802910+848332435+843203495+841782187+843133977
626+844721905+844360934+841573408+838055569+835780609+835287778+835725592
616+835826879+834534291+832340435+832082097+835893258+841467636+843859208
606+841130511+835321117+829527719+825409109+823784554
##END=
