##TITLE=<SNM>
##JCAMP-DX=4.24
##DATA TYPE=INFRARED SPECTRUM
##DATE=2/5/2025
##SAMPLING PROCEDURE=Instrument type and / or accessory
##ORIGIN=Admin
##XUNITS=1/CM
##YUNITS=ABSORBANCE
##RESOLUTION=4
##FIRSTX=4497.3318
##LASTX=599.83466
##DELTAX=-1.4281778
##MAXY=1.7779621
##MINY=0.22760361
##XFACTOR=1
##YFACTOR=1.6558562e-09
##NPOINTS=2730
##FIRSTY=0.24756993
##XYDATA=(X++(Y..Y))
4497+149511732+149150339+149399829+149605467+149137722+148059085+147125909
4487+146997078+147619030+148531356+149365065+149790676+149519363+148785769
4477+148376536+148758753+149427132+149449270+148527360+147280324+146616786
4467+147014383+148293916+149889630+151238824+151937314+151812443+151109868
4457+150397888+150020117+149812769+149469329+148911872+148289488+147931190
4447+148211160+149132701+150147174+150601069+150297027+149546514+148800293
4437+148343860+148237950+148350169+148345462+147796753+146623455+145409688
4427+144937461+145401741+146358891+147319272+148060930+148486109+148482113
4417+147937957+146849016+145518027+144630116+144843511+146073909+147323249
4407+147572352+146840260+146030344+145831843+146153595+146421039+146093122
4397+145138141+144201923+144035233+144704881+145600675+146096856+146023550
4387+145576845+144865586+143741485+142298035+141193085+140972761+141371752
4377+141727818+141661000+141104912+140289902+139829141+140228313+141283219
4367+142373060+143195890+143826770+144236596+144150052+143418626+142350383
4357+141515656+141239691+141405013+141670926+141710450+141386655+140928665
4347+140752571+140903441+140928719+140526749+140025627+139938048+140259162
4337+140419381+139905696+138920946+138272186+138409286+138875015+139070097
4327+139120231+139434721+139849713+139843711+139357482+138886912+138763787
4317+138681967+138209399+137566119+137453729+138181862+139358895+140366889
4307+140848654+140834292+140564284+140216362+139907991+139864048+140210198
4297+140593036+140438153+139724779+139226267+139774715+141330941+142940587
4287+143643153+143260098+142255470+141171019+140362273+139901809+139567160
4277+139187517+139000102+139398626+140366835+141455947+142307610+142871654
4267+143146836+143160596+143172061+143340496+143256184+142443658+141257338
4257+140624191+140980716+142004891+143238861+144461303+145540984+146282939
4247+146493724+146128407+145424248+144839057+144693884+144888534+145051831
4237+144893051+144392604+143766449+143268252+142967737+142763539+142633682
4227+142786900+143469381+144556450+145459443+145711579+145516749+145340134
4217+145265217+145277293+145574478+145960430+145699368+144595623+143451662
4207+143106988+143705363+144899755+146136677+146807207+146600849+145768039
4197+144936130+144612100+144792082+145108588+145379100+145767742+146357964
4187+146901886+147088329+146833250+146284280+145749726+145640334+146218749
4177+147263000+148127271+148335356+148043166+147798616+147964586+148401724
4167+148629860+148320166+147619858+146876104+146250281+145856680+145937006
4157+146532699+147270587+147752703+147874730+147654217+147205253+146977910
4147+147433758+148275998+148566803+147919599+147054852+146848737+147316941
4137+147844925+148044731+148034094+147996406+147854842+147603912+147613514
4127+148126695+148676151+148583442+147943501+147503401+147572820+147637560
4117+147186238+146458340+146077463+146258255+146711187+147178760+147655594
4107+148060075+148130159+147850010+147642914+147872174+148385013+148799582
4097+149020617+149168139+149165295+148808239+148184316+147646532+147429339
4087+147607971+148291333+149447497+150598514+151111253+150887897+150474038
4077+150353262+150375058+150080752+149430723+148886936+148801652+149059385
4067+149361340+149512479+149325065+148653311+147682105+146833799+146327943
4057+146111237+146163638+146502471+146939448+147230352+147424678+147772114
4047+148338551+148890248+149084196+148739045+148046576+147463320+147269246
4037+147331141+147406140+147515082+147850064+148430575+149025774+149408837
4027+149546820+149507701+149363185+149297329+149571153+150168124+150681278
4017+150764843+150468378+149968849+149313186+148620411+148214490+148308881
4007+148778218+149426628+150257017+151265371+152123217+152313367+151632443
3997+150468765+149506756+149148431+149318711+149787635+150369955+150829349
3987+151023351+151178638+151618207+152213441+152484565+152285488+152099837
3977+152496444+153429215+154290462+154621555+154527155+154331768+154166167
3967+154128011+154508401+155450640+156498707+156849347+156170655+155011611
3957+154343250+154738831+155916395+157139728+158090174+158919222+159450707
3947+159259855+158687928+158610266+159071576+159196105+158574036+157781794
3937+157545496+158254245+159960216+162067941+163281826+162831908+161660374
3927+161402065+162416403+163482559+163525250+163066550+163352936+164624072
3917+165665049+165046309+162811210+160438930+159286708+159672300+161375283
3907+164475462+169108074+174411008+178474141+179987946+179030553+176084348
3897+172068983+168898431+168307517+169986365+171236857+170097053+168681590
3887+169930120+173166941+175430998+176222970+176971494+176696933+173922412
3878+170917048+170829415+173739551+177870825+181997815+184849116+184971215
3868+183553808+183189328+183688218+182556207+179159510+175799924+174903059
3858+177816525+185228750+195628216+201630504+196585663+186296670+178355227
3848+175077065+176082387+179851304+184609758+189453398+194159964+197523150
3838+197457366+194123788+190246828+187415740+185229092+183363982+182440011
3828+182775641+184113874+187068016+192600642+198753106+200956258+199141218
3818+197384042+195992030+192353960+187163136+183764818+184127606+188033363
3808+192974931+195942500+197733458+201189460+205195934+205696624+203227082
3798+201482595+200724226+199284501+197602143+197509849+199690449+203643217
3788+208762426+214373597+219555907+224249101+229782807+236889496+244137885
3778+250110548+256010228+264125785+275653607+290259165+305488592+317545650
3768+325159761+330108816+333806820+337169844+341531871+346839665+351024627
3758+353242069+356002299+362600271+374495886+389926514+403417915+411767070
3748+419275459+430705606+444904298+455414777+460571890+466300228+477014949
3738+492688408+509663348+523057812+531053015+535665684+539508610+544322247
3728+551126766+559241836+566063885+569767865+570939291+570230309+567480518
3718+563552389+560709368+561222315+565351087+569480075+568358143+561794907
3708+554405990+550030679+549792744+552448512+555412301+556675302+556160664
3698+555331310+556355979+560658361+567389231+574255916+579599202+582604854
3688+582955962+581331918+579134094+577898162+578693608+581489438+585478616
3678+589350807+590277315+586535323+582294638+581938455+583594751+581916461
3668+575988488+569539073+564516513+560318377+556630055+554949497+556968024
3658+561671728+565350943+566481478+568187881+572988271+578471295+578951809
3648+573348846+566910877+563285729+562481788+563092429+563803535+564137329
3638+564451648+565229059+566782982+570143414+577114235+587457439+595397352
3628+594184709+586905652+580751478+579099825+582431424+588514901+593270656
3618+595616497+598478740+602703298+605301509+604831254+604119823+605582136
3608+608089132+609475780+609603783+610080085+612391622+616632630+621417830
3598+625136532+627110208+627672614+627896438+629274160+632823824+637376775
3588+639541015+637982233+635675376+634932845+634554740+632950314+630993053
3578+630397891+630857995+630721353+629886384+630410130+634099387+640095142
3568+644628728+643942783+638363145+631414570+626173945+624115534+625110687
3558+627872105+630954393+633229213+633389325+630543964+626492080+625088729
3548+627704722+631004644+630698244+626674725+622467697+621224530+623442980
3538+626710289+627463259+624511781+620197917+617562558+617864062+620300506
3528+622786336+623559032+622344446+619853864+616845656+613880499+611270266
3518+609178235+607887697+607791083+609009628+611155222+613319246+614153495
3508+612839343+610500018+609560803+610890074+612246125+610831256+606967776
3498+603512710+602141361+601842592+601101500+600169521+600172401+600867165
3488+600843047+599717768+598286736+596745916+594587976+592360455+591681853
3478+592773188+593605565+592534029+590467951+589116147+588695495+588614899
3468+588794952+589126766+588767847+587116014+584918946+583566170+583449794
3458+583622181+583083820+582069769+581659304+582356120+583646622+584623417
3448+584474464+582891492+580640358+578953717+578081023+577399758+576639049
3438+575656134+573806646+571180790+569293182+568972887+568855503+567486601
3428+565737651+565313363+566000136+566129434+564985365+563301027+562005558
3418+561719675+562685167+564215765+564953184+564302480+562876667+561243769
3408+559199613+556529049+553823138+552274219+552665318+554504547+556306736
3398+556978679+556802657+556619940+556293022+554886864+552356326+549883814
3388+548545473+548652778+549860849+551048654+550957439+549596240+548163913
3378+547692686+548400192+549628565+550100800+549109031+547268362+545525062
3368+544330454+544069193+544959165+546328967+547242516+547609966+547626920
3358+546983631+545697160+544670439+544456729+544307021+543287246+541762696
3348+541069372+542068737+544199140+545672539+545118448+543307512+542235183
3338+542435467+542533736+541519038+539953488+538705281+537949216+537769198
3328+538602584+540534864+542634922+543449769+542300877+539951256+537849614
3318+536870480+536859357+537119430+537074614+536586217+535885154+535309645
3308+535063395+535122933+535428361+536125609+537298043+538490672+539031551
3298+538821225+538288804+537757572+537336235+537040202+536510481+535263390
3288+533865403+533846829+535745488+538170629+539346051+539080974+538539159
3278+538503774+538850382+539240798+539383487+538867840+537556568+536065927
3268+535238877+535448807+536768610+538950704+540772763+540600341+538277250
3258+535543441+534177383+534315536+534613442+533756262+531848460+530268692
3248+530084283+530746326+530581356+528875096+527039827+527042706+529132974
3238+531609553+532560898+531426620+528941330+526205829+524046845+522717467
3228+521905751+521205228+520590303+520291354+520258850+520069905+519397639
3218+518289602+517010367+515880768+515203966+515075243+515182044+515047310
3208+514671329+514444841+514249525+513521428+512517960+512271494+512717092
3198+512217032+509706724+506246547+503811939+503300720+503856142+503848151
3188+502586266+500765071+499344766+498723182+498859320+499400344+499644579
3178+498950427+497288947+495314372+493969587+493776143+494270012+494324655
3168+493166691+490977074+488575043+486677247+485453086+484656165+483982423
3158+483268653+482525222+481859075+481311140+480825442+480362674+479884572
3148+479308559+478603248+477736350+476560280+474982204+473133903+471301621
3138+469853816+469083927+468839297+468595854+468131790+467676473+467255353
3128+466523477+465413604+464356717+463663069+463141483+462446575+461403980
3118+459969852+458372158+457275244+457210198+457873466+458508836+458777692
3108+458768441+458558007+458240340+457980770+457646113+456732168+455064173
3098+453295496+452272698+452009782+451757484+451131869+450541962+450372959
3088+450420078+450295279+449798927+448833615+447488578+446254302+445745279
3078+446048872+446561530+446630175+446154953+445388196+444517806+443793957
3068+443537448+443586799+443272299+442275167+440965659+439755068+438724531
3058+437910583+437399760+437088105+436678107+436035934+435411398+435082860
3048+434852052+434231189+433099070+431808460+430794517+430423324+430818059
3038+431426108+431277731+430073944+428515377+427321669+426459343+425479704
3028+424178763+422798270+421794046+421423429+421464860+421393948+420853032
3018+419917741+419018986+418622019+418710894+418564749+417474206+415719208
3008+414297787+413727714+413718715+413877783+414021984+413897221+413259115
2998+412180955+410892648+409544804+408360131+407647549+407451549+407466776
2988+407378225+407053826+406430731+405490796+404396690+403476229+402985888
2978+402881823+402762495+402150487+401017504+399875631+399142963+398654529
2968+398025422+397228105+396520058+395976911+395368646+394499516+393515018
2958+392726880+392237906+391973622+391923119+391994788+391820962+391102332
2948+390005166+388954975+388182171+387581141+386928313+386211843+385652425
2938+385287099+384836750+384209911+383680298+383377029+383071061+382553326
2928+381813423+380872805+379786293+378751833+377976041+377417163+376786760
2918+375964282+375309330+375241225+375638767+376016152+376048009+375605147
2908+374680547+373558183+372661120+372132227+371847496+371686377+371524754
2898+371169615+370503900+369589307+368618163+367817066+367269635+366840200
2888+366376748+365860453+365265687+364478124+363510545+362646886+362167596
2878+362010976+361918610+361809073+361721926+361557747+361212831+360751287
2868+360192841+359469568+358714042+358164595+357761689+357228440+356498472
2858+355791649+355317110+355001495+354520549+353714412+352906044+352560192
2848+352709433+352949168+352886930+352409764+351647723+350864192+350283788
2838+349871055+349357100+348626484+347938019+347573845+347450162+347250023
2828+346753850+345951133+345045899+344359774+344023857+343853775+343647336
2818+343382584+343044687+342536095+341827905+340998407+340136188+339367020
2808+338866276+338645043+338439756+338018924+337455870+336896920+336280772
2798+335542344+334861907+334423796+334082984+333494805+332515958+331361738
2788+330367089+329652887+329095773+328588765+328165701+327842023+327510461
2778+327044993+326385146+325530018+324563375+323667823+322999445+322539125
2768+322121496+321591163+320912561+320192852+319594630+319146224+318694903
2758+318126306+317499539+316917839+316453667+316158498+315910916+315408156
2748+314546585+313584369+312787592+312222306+311900068+311768321+311609938
2738+311222546+310599342+309832010+309024218+308320815+307840192+307560645
2728+307325374+306942553+306340552+305652663+305072007+304652795+304320225
2718+303946224+303360169+302475381+301453249+300575444+299993528+299737918
2708+299789411+299949954+299866785+299391274+298725523+298092079+297485722
2698+296823787+296120581+295462444+294953492+294666818+294532876+294343428
2688+293967951+293509520+293166242+292998085+292921845+292860543+292724586
2678+292332964+291619896+290819501+290170344+289636448+289178503+288973936
2668+289093678+289278087+289213870+288798077+288132542+287446723+286921519
2658+286499085+285994741+285354458+284686979+284151444+283849328+283702499
2648+283502576+283169592+282818125+282558897+282427835+282445707+282537786
2638+282470455+282052394+281365405+280685292+280205821+279920047+279729447
2628+279526842+279182610+278630715+277986921+277443558+277078592+276853381
2618+276687222+276488505+276238745+276030128+275907417+275766852+275509316
2608+275183208+274922163+274815560+274813850+274725336+274394836+273900211
2598+273475383+273256166+273174202+273061354+272823437+272539390+272361785
2588+272305702+272225269+272028135+271789948+271611388+271487579+271384738
2578+271327576+271318109+271257347+271060592+270782952+270511684+270207138
2568+269809109+269441425+269317976+269454870+269655891+269786810+269878456
2558+269940208+269885043+269696171+269462951+269192475+268799972+268331786
2548+267963185+267734140+267520503+267280048+267085938+266909340+266609383
2538+266181117+265818509+265658668+265608255+265515870+265411535+265438622
2528+265602855+265728644+265664805+265449547+265243091+265118760+264974559
2518+264714054+264443038+264344174+264429881+264571112+264669400+264681027
2508+264601673+264502162+264438142+264335031+264112808+263838534+263597629
2498+263342956+263020357+262724306+262597635+262634837+262663598+262534732
2488+262297138+262114061+262015467+261857876+261543088+261155517+260863947
2478+260771670+260835420+260862273+260639150+260130307+259530393+259104737
2468+258981954+259066707+259114204+258919158+258492441+258051594+257802914
2458+257764614+257845372+257988349+258121247+258086439+257790855+257349343
2448+256970410+256773187+256765232+256902467+257105036+257242632+257163044
2438+256817840+256363981+256029882+255851376+255651507+255311846+254956095
2428+254803255+254892256+255043926+255104274+255097669+255089245+255057209
2418+254990490+254974543+255095923+255332454+255556837+255642400+255604388
2408+255599061+255722240+255886257+255960643+255936202+255910914+255998259
2398+256250395+256612625+257006353+257521621+258494978+260386456+263625814
2388+268600805+275780422+285770431+299116371+316021784+336339446+359789035
2378+385962245+414034583+442682861+470596527+497135567+522093760+544671843
2368+563354698+576998903+585300651+588526384+587617154+583645794+576306443
2358+564007670+546034517+522936792+495859787+468658775+447890513+438465466
2348+441731911+456200107+477191439+497368931+511329652+518360515+520255826
2338+519428812+517788570+516044587+514105648+511591884+508125444+503742358
2328+498778941+493187856+486432329+478105096+468399566+457967524+447380625
2318+436862192+426519456+416480061+406689544+396914326+387041953+377126241
2308+367184720+357247878+347556027+338452607+330090818+322379193+315212768
2298+308653852+302806906+297575623+292690965+287987387+283527647+279462786
2288+275886215+272800759+270152640+267926882+266172226+264839753+263698437
2278+262580915+261616989+261037449+260807685+260599428+260084610+259195538
2268+258165055+257346337+256921671+256771171+256648676+256407249+256012244
2258+255488930+254948986+254522862+254179170+253736650+253120736+252498936
2248+252085663+251892831+251787812+251730506+251772405+251867669+251907229
2238+251888979+251861550+251824096+251829009+251965399+252144787+252174304
2228+252085213+252102887+252295881+252512111+252637846+252726396+252882404
2218+253153078+253527295+253951511+254342899+254664741+255005932+255508620
2208+256192873+256921869+257560353+258109008+258647585+259206463+259768832
2198+260351774+260981097+261619040+262219098+262811273+263453284+264142217
2188+264810524+265367170+265752870+266000344+266230954+266559942+266969490
2178+267281721+267350924+267277024+267289623+267447556+267607758+267636015
2168+267502954+267225567+266838499+266413905+266032723+265695654+265317405
2158+264870547+264458498+264183955+264048087+264027803+264167594+264580921
2148+265338985+266333256+267432636+268848297+271032982+274150403+277981846
2138+282322690+287129632+292381685+298077951+304268247+310946778+317992292
2128+325235497+332602709+340248640+348410074+357024593+365664957+373915374
2118+381653384+388956703+395861255+402295516+408304877+414248904+420654044
2108+427982165+436588908+446648857+457961261+469887436+481518514+492016862
2098+501001134+508624604+515226715+520933744+525523304+528555630+529569824
2088+528073676+523408379+514850123+502029224+485355824+465983677+445248567
2078+424267350+404013078+385302289+368593614+354050366+341719592+331519221
2068+323263081+316707873+311409258+306812967+302724763+299338252+296725103
2058+294681415+292977063+291450570+290074720+289066591+288674663+288915298
2048+289747082+291329280+293978588+298041792+303825925+311577181+321591379
2038+334238092+349670052+367542847+387013084+406863010+425818465+443085515
2028+458523558+472294327+484584244+495515987+505055538+513046961+519268556
2018+523340418+524788260+523376954+519318807+513044586+504713717+494117352
2008+481246670+466675813+451187231+435368527+419676602+404494672+389991811
1998+376242713+363604063+352639852+343469982+335467400+327882771+320588667
1988+313953187+308296661+303704761+300050816+297020992+294277069+291653805
1978+289190400+287050548+285360757+284026303+282851295+281890483+281370247
1968+281154575+280680936+279653603+278410616+277364042+276523313+275790879
1958+275284826+275084560+275012568+274901375+274806957+274852762+275081897
1948+275523211+276278881+277387746+278445820+278620204+277562957+275996364
1938+274842989+274332886+274255746+274462383+274835088+275183586+275406331
1928+275679525+276432567+277880607+279524502+280680216+281508292+282527923
1918+283307134+282964305+281844876+281281444+281971708+283442372+284720653
1908+285250950+285261317+285306403+285630693+286110631+286607362+287190735
1898+288052450+289156869+290117862+290808864+291728713+293049488+293863543
1888+293346187+292051221+291031159+290589251+290477824+290482468+290479264
1878+290389472+290234922+290182871+290730302+292627432+295945262+299035253
1868+299429682+296799075+293391884+291155454+290327252+290259921+290345772
1858+290235264+289895135+289607327+289662563+290151356+291079808+292543416
1848+294838142+298093267+301191196+301808982+299371998+296266294+294607964
1838+294421036+294681271+294993232+296193708+299133037+302918423+305220600
1828+305263868+304557189+303912352+302669257+300813415+299453512+299223172
1818+299715367+300358458+301207790+302678400+304623062+306044879+306137785
1808+305337480+304834000+305545106+307705494+310700276+313187582+314149978
1798+314081189+314630420+317107432+321106941+323911446+322906790+319467311
1788+317085582+317209265+318897994+320840677+322646357+324145638+324937628
1778+325406443+327064683+331218653+337290971+342119978+342675581+339821617
1768+336271341+333766972+333474791+335774160+339112202+341142500+341755876
1758+342340024+343042203+343805864+346100590+351118578+357266632+361085908
1748+361421753+360267569+359660780+360393016+362382638+364648711+365926866
1738+366938289+370300197+376595656+381422864+380361802+376104559+372485458
1728+370254302+369445573+370142857+371891808+374782884+380278758+389271310
1718+399091200+403772911+401246117+395806144+391522049+389989112+391700086
1708+396403539+402464770+407642113+412095500+418271379+426393217+432406646
1698+433816836+432321011+428665518+424027543+421588292+422814684+426682195
1688+432452613+441100357+451907948+458367730+455971423+450368604+447499413
1678+448962158+453807687+459397224+463699534+467793857+472916234+476784321
1668+476779426+475565415+477447552+482851348+488467018+491593474+493724489
1658+498098719+506857295+520635263+535593980+541478686+538813018+538470550
1648+542743919+545988694+543276915+537989496+535267242+536625129+542105057
1638+551223200+560878946+564661074+561114542+557098150+557531402+562249000
1628+568829910+575622226+582708451+589638489+594795782+598635864+604084331
1618+612448280+620676091+624527692+625249561+626752837+630155060+634026387
1608+636807171+638483157+640013502+641852767+643691385+645318128+647111102
1598+649624074+653013842+656858028+660522808+663784934+666828130+669693433
1588+672249816+674558041+676723288+678596030+680198008+682467357+686995111
1578+694292995+701570072+704398659+704160652+706407179+713042299+721238649
1568+727455996+732308149+738690504+748293300+762388791+783370583+810961219
1558+832841479+839083807+838676546+838925856+840466640+842321312+843682979
1548+844847458+847467842+852715018+859999511+867279252+869691218+861563261
1538+848151339+839415837+836597689+835140992+831146846+825971519+823020689
1528+822779802+823547242+824660463+827054359+830430880+832714556+833343482
1518+833206841+831548781+827762189+824224764+824271127+829325939+838423348
1508+847320905+847520541+836678033+825279671+819999090+820237241+823291093
1498+825757413+824782274+821241969+819344894+821691275+826880065+830492362
1488+829222774+824518853+819921194+817421901+816998801+817756091+819310337
1478+822027768+826189944+831439280+836019877+836382143+831451735+825919972
1468+824408129+826872649+829479931+829151933+828001348+830201944+836909633
1458+844290236+844879638+838020622+831376862+829021627+830217855+832532343
1448+833338011+831549428+828706515+827061486+827396395+829593319+833728067
1438+838872725+841639686+839754706+836088558+833841239+832608151+830546140
1428+827619212+825467787+824868233+825265848+826384540+828451230+830085460
1418+828313364+823119246+817852848+814616640+813117179+812083007+810784189
1408+809743249+809742169+810308319+810327253+810110123+811055313+813493412
1398+816184565+817647526+817165464+815112453+813112068+812785870+814093614
1388+815108493+813756257+810672313+808995607+810872380+815686809+821469178
1378+827209286+833120306+838712974+842168903+842956286+843173919+844516868
1368+846288172+847480801+848682284+850487209+851854203+851658960+850606789
1358+850103993+850442646+850928523+851155588+851466380+852036057+852296310
1348+851771772+850890295+850456108+850852283+852052111+853816000+855608182
1338+856843070+857508497+858093940+858912208+859958475+861285802+863062649
1328+865280595+867758147+870388538+873198119+876274720+879619061+882975209
1318+886132442+889375633+892885053+895876559+897466514+898238850+899684892
1308+902216582+904868859+906891921+908543646+910102860+911179149+911408589
1298+911197867+911221552+911428315+911037683+909605896+907776422+906514176
1288+905725930+904297094+901518542+898108184+895635096+894929498+895288812
1278+895367500+894623961+893536442+892719687+892488375+893105351+894835475
1268+897573423+900553194+902739104+903746135+904022875+904073989+904182410
1258+904821848+906346938+908232782+909530736+910025036+910098181+909670833
1248+908273530+906107419+904091412+902688133+901429200+899800153+897916108
1238+896307939+895677212+896600516+898772675+900847428+901612565+900989973
1228+899641841+898217469+897157451+896694035+896877544+897757940+899401530
1218+901478227+903199352+904129064+904751295+905776829+907351738+909376024
1208+911886475+914646597+917070226+918872703+920168569+921051413+921723104
1198+922782258+924883648+928134327+931903712+935130562+937124683+938337325
1188+939861695+942049764+944204789+945743485+947050870+948761844+950841493
1178+952752751+954235293+955663049+957520528+959773535+962020854+964038517
1168+965805069+967252695+968463178+969783305+971489816+973508991+975382596
1158+976623748+977174779+977373910+977666920+978605846+980872531+984524209
1148+988060914+989338638+988238808+987219105+988422245+991409143+994518789
1138+997403025+1000373510+1002327891+1002232933+1001594431+1002692533
1130+1005295423+1007207905+1007571395+1007844463+1009773935+1013396887
1121+1017189454+1019863617+1021739526+1023845452+1025941011+1026911974
1113+1027071942+1028032322+1030140839+1032073407+1032899737+1032663098
1104+1031045138+1027525998+1023035464+1020146260+1021736143+1028444191
1095+1036767896+1041946031+1043605027+1045317874+1048595118+1051224214
1087+1051637235+1051200024+1051282671+1051562075+1051385117+1050295942
1078+1048086059+1045681364+1044822493+1046099785+1048670422+1052488474
1070+1057804691+1062385576+1063342789+1061369402+1059555190+1059652596
1061+1061290786+1062322079+1059888803+1053853885+1048073964+1046442037
1053+1049678030+1056061392+1063093047+1068072987+1068749861+1065066506
1044+1059693703+1055997679+1055550245+1057231703+1059556414+1062450730
1035+1065423229+1067030823+1066987267+1066116734+1064925329+1064440891
1027+1066349557+1070466379+1073741823+1073134854+1069045894+1065021655
1018+1063760706+1064288051+1063842921+1061665075+1059422076+1058616839
1010+1059419268+1061155584+1062481038+1062193068+1060684393+1059358218
1001+1058411660+1056588233+1053392413+1050611269+1050496441+1052578033
993+1053830847+1052347801+1049467740+1047599101+1047231507+1047056998
984+1046320154+1045252001+1043908260+1042206788+1040447867+1038929976
975+1037425332+1035440858+1032858198+1030285904+1028658225+1028032610
967+1027046744+1024331978+1020116455+1015579629+1011965388+1010199771
958+1009761120+1008518745+1005221991+1000892000+996826077+993403048+991247952
948+991003177+991327791+989389176+984340844+978770493+976038952+977092635
938+979761974+980950643+979650098+977403571+976114257+976163715+976503880
928+976059686+974846396+973743686+973046799+971849707+969715704+968110342
918+968732430+971003938+972705482+972793025+971971014+970619570+968070243
908+964444914+961385592+959981233+959630486+959797148+960947301+962783687
898+963782871+963374241+962594706+962143313+961488397+960056033+958057017
888+956146191+954711020+953340066+951318371+948910437+947424871+947699595
878+949167162+950530269+950921692+950448558+949938562+950068221+950836813
868+951815120+952429936+952172779+950935227+949435191+948869473+949358375
858+949229868+947122502+944331352+943220291+944207597+946078971+948096417
848+950130135+951657816+951792874+949851595+946196678+942877894+942332623
838+944999658+949013602+952460749+955102515+957295840+958542822+958318062
828+957251420+956657698+957086197+958123610+959245038+959882531+959327181
818+957571643+955807538+955313957+956492187+959151159+962550215+965442875
808+966966021+967069834+966152361+965133595+965015311+965314008+964401287
798+962306376+961049242+961455856+962171246+962417317+963355235+965747835
788+968048213+968089465+965737468+962799021+961155072+961683065+964174510
778+967523747+970127141+970590557+968699097+965827315+963760769+962913993
768+962436899+961922872+961847136+962424804+963261573+963998129+964614385
758+965113077+965309329+965003577+964284083+963917785+965021863+967585157
748+969675100+969160066+966418950+963820379+962497804+961698183+961000072
738+960977610+961372633+960833481+959263180+958611935+960036092+961847856
728+961997456+961229512+961354923+961486669+959163110+954823616+951696548
718+951706267+954438168+958769023+962962516+964321519+962124091+959557125
708+959360802+960260924+959119915+954912311+949855987+946828917+946391922
698+946468450+945085618+942983291+941854377+941557407+940974052+940209275
688+940448218+941693905+941845018+938490309+931915735+925588743+922490400
678+922443173+923333361+923390883+922715665+923030920+924325922+923391171
668+918469401+914601386+915238808+916101422+913699607+908900009+903794082
658+899124719+895140004+892376858+890999785+891769385+895562024+901335825
648+907457423+911875677+912425484+909272067+905322988+903565434+903573281
638+901911118+896375684+888207842+881202537+878797410+880137839+881552564
628+881467829+880529046+878275968+873035343+864592851+856066487+851544851
618+851397771+851836637+850549915+850522701+854413178+859428826+861662466
608+861763976+862931263+867230873+874824286+883172756+886494708+878946723
##END=
