##TITLE=<SNM>
##JCAMP-DX=4.24
##DATA TYPE=INFRARED SPECTRUM
##DATE=2/5/2025
##SAMPLING PROCEDURE=Instrument type and / or accessory
##ORIGIN=Admin
##XUNITS=1/CM
##YUNITS=ABSORBANCE
##RESOLUTION=4
##FIRSTX=4497.3318
##LASTX=599.83466
##DELTAX=-1.4281778
##MAXY=1.6967715
##MINY=0.26637489
##XFACTOR=1
##YFACTOR=1.5802416e-09
##NPOINTS=2730
##FIRSTY=0.28739879
##XYDATA=(X++(Y..Y))
4497+181870155+181644918+182547733+183857553+184329244+183599406+182481216
4487+181774538+181604257+181886657+182613760+183570174+184189345+183870924
4477+182613779+181348090+181252681+182619040+184545032+185672576+185196755
4467+183400232+181423584+180483936+181048170+182491589+183658643+183975650
4457+183855346+183916978+184194890+184225159+183643122+182626037+181832191
4447+181803770+182408325+182924392+182607235+181289155+179667704+178817732
4437+179095568+179717813+179680226+178911576+178240730+178252480+178482130
4427+178050213+176971591+176293823+176841009+178210668+179204556+179139095
4417+178539689+178428475+179098906+179933375+180276917+179992141+179217852
4407+178127140+177019003+176144778+175423238+174735966+174313177+174314743
4397+174226688+173346089+171891053+171037818+171691936+173550751+175487002
4387+176616922+176778641+176146136+174896044+173343449+172012337+171385698
4377+171616159+172403461+173133978+173302712+172915587+172369873+171967037
4367+171692916+171423341+171180772+171070690+171041024+170941730+170819144
4357+170851262+171009642+171065749+170920306+170762302+170928641+171574348
4347+172336360+172509620+171849279+170954592+170518847+170515961+170552888
4337+170620536+170893035+171144524+170963361+170412914+170067656+170372894
4327+171019261+171043721+169962609+168677741+168565924+169731167+170845076
4317+170887415+170364257+170393753+171189108+171974354+172071084+171506586
4307+170718190+170251195+170616104+171860010+173307823+174040584+173632374
4297+172411080+171197010+170735748+171163516+172006566+172702269+173049658
4287+173158476+173003132+172238121+170819125+169426438+168706068+168569733
4277+168742221+169343042+170377288+171342887+171877681+172215396+172596015
4267+172735065+172310711+171617781+171216680+171207986+171368215+171647050
4257+172069839+172562992+173137203+173848841+174619378+175447454+176376088
4247+176979210+176688022+175843443+175414261+175570115+175545786+174956564
4237+174239362+173692177+173033929+172160477+171574932+171716604+172395804
4227+173230387+174223482+175496714+176698583+177144022+176556723+175384067
4217+174357195+173992210+174402665+175137651+175312044+174475933+173218807
4207+172491308+172643145+173370870+174182689+174720671+174981609+175251467
4197+175646835+175878974+175606400+174920769+174397139+174535284+175103704
4187+175337466+174929934+174378695+174150874+174100708+174016029+174134504
4177+174672240+175265423+175377372+175092332+175014500+175388009+175821680
4167+176047162+176432628+177286070+178056889+177933455+177037014+176320981
4157+176427895+177176743+177953238+178217288+177875406+177357924+177127086
4147+177159939+177097288+176747523+176303819+176089501+176098384+175997355
4137+175756577+175869790+176602381+177438322+177685775+177355925+177101192
4127+177389683+177929608+177973229+177244297+176399059+176306704+177042407
4117+177892228+178243107+178166198+178108225+178247614+178336253+178106150
4107+177662955+177406770+177620805+178176741+178621878+178597832+178191903
4097+177789483+177639325+177703484+177800440+177690471+177230869+176702939
4087+176668483+177203768+177676157+177618994+177381838+177514249+177889475
4077+177927137+177521095+177242731+177577787+178349436+179033841+179351602
4067+179330178+179045195+178596399+178194412+178046460+178201050+178513870
4057+178688998+178471456+177961159+177626745+177842892+178510947+179252082
4047+179861691+180391676+180843773+181039797+180891430+180625476+180535950
4037+180581118+180488802+180222018+180053981+180199311+180578912+180897918
4027+180899464+180704685+180788062+181299829+181710435+181637845+181555543
4017+182011638+182642030+182691404+182081436+181329552+180807921+180555658
4007+180518562+180677980+181124645+182033043+183313630+184365680+184530756
3997+183836411+183002036+182644067+182695459+182700871+182492966+182392974
3987+182733253+183348030+183746226+183737683+183596294+183633654+183958507
3977+184597292+185455543+186189303+186448827+186227588+185822131+185490055
3967+185249787+185073433+185126145+185533413+186030413+186203297+185973779
3957+185591217+185373486+185590029+186312285+187289576+188073748+188232053
3947+187648866+186851304+186637231+187195902+187931398+188254666+188135210
3937+187832178+187707877+188254496+189585664+190849862+190998512+190266034
3927+189866819+190307185+190868873+190814445+190451459+190581400+191337904
3917+191875056+191230633+189509529+187823333+187092138+187375820+188402730
3907+190310183+193339541+196873726+199559655+200772556+200800053+199605200
3897+197178229+194685042+193701169+194552933+195836877+196028318+195641532
3887+196117938+197302757+197814581+197713306+198283085+199129945+198600921
3878+196935283+195959896+196599662+198542985+201092958+203007200+202933894
3868+201536228+200788888+201051731+200816555+199151520+197010532+195864864
3858+196739070+200442159+206886228+212354816+211802237+206867123+201846520
3848+198752041+198024410+199235576+201344428+203555818+205985147+208716640
3838+210588921+210397310+208712397+206804473+205221155+204115903+203805214
3828+204345553+205335782+206851942+209539549+212760556+214184417+213487942
3818+212885386+212807893+211497168+208537364+205644038+204447432+205437830
3808+207729184+209863854+211916657+214860223+217640675+217897672+216238389
3798+215023394+214423441+213476306+212569454+212787298+214191188+216071050
3788+218129623+220532907+223140060+225733749+228717599+232356604+235717433
3778+237801523+239243169+241530072+245569084+251371897+258010802+264136223
3768+269423271+274519235+279648600+285001203+291744702+300956549+311726065
3758+321691928+330220048+339347745+351586027+367577847+384396385+397846983
3748+408151730+418573932+429751413+437886694+441415315+444375780+450452336
3738+460107416+471328538+481827573+490712626+497620012+502090205+504576998
3728+506719759+510041984+514198093+517250290+518307507+518745044+520493682
3718+524077486+528963791+535174777+543309945+552695713+560951957+566582075
3708+569771643+571831838+574978558+580064508+584842108+586806988+586530397
3698+585819437+585823172+587650114+592240328+599218059+606270021+610030386
3688+608898712+604543825+599622215+596026492+594685253+595538375+598162879
3678+601560616+602702022+599358599+595102724+594512125+597373314+599625534
3668+598273508+594601405+591336211+589346739+587907808+587404490+589654976
3658+594592201+599171515+601813784+604895251+610431675+616788180+620159062
3648+619494534+617662801+616700069+616777430+617939505+620040323+622056161
3638+623311816+624709671+627512660+632080620+638313181+645503193+650754842
3628+651104570+648497680+647174207+649278608+654595661+661197412+666128905
3618+668213768+669972892+673954025+679128199+682099602+681526127+679343045
3608+677562949+676718201+677088599+679111603+682031784+683934390+684826965
3598+687551160+693012148+697038844+695725932+691702253+690793157+695541865
3588+703090657+707638777+706367808+701637884+697443566+696418749+699130044
3578+704080396+708366672+709795984+708963457+708627987+710804884+714900832
3568+718206045+718549587+716789331+714913505+713483590+712547563+712573513
3558+713456583+714362435+714832410+714486077+712839204+710961416+711033233
3548+713032022+714656717+715171124+715949487+717053438+716995275+715683344
3538+714516252+713994980+713750110+714309026+716493089+719547926+721510203
3528+721135354+718928283+716161919+713801257+713116361+715518890+720039777
3518+722352386+719037215+712501320+708624668+710160875+714386274+716907919
3508+716403092+714085052+710796812+707227492+704973046+705141121+707129424
3498+709569974+711309786+711556089+710263168+708377912+707277357+707757365
3488+709359730+711056920+712641784+714745431+717342740+719149843+719172474
3478+718040159+717313923+718047476+719831646+721053580+720061579+716376764
3468+711179657+706852041+705701017+707741900+710006077+709744310+707806097
3458+706813643+707449052+708780597+710579402+713105875+715687418+717050269
3448+716417953+713918411+710921208+709212552+709430490+710915249+712682596
3438+714008257+714436062+714103534+714012934+715085880+717012023+718737577
3428+719981012+720812482+720099448+716786012+712591618+710678451+711630395
3418+713253053+714067777+714764290+716272434+718149317+719079686+718618990
3408+718023185+718343719+718609409+717344249+714913053+712946023+712293339
3398+712223182+711064313+708139455+705158924+704302408+705391648+706584690
3388+707544405+709905142+714191645+718148260+719323499+718376081+717922627
3378+718711929+719090700+718255080+717703482+718285934+718274769+715908902
3368+712222654+710245365+711980726+716531486+720816481+722262992+720612649
3358+716855415+712099012+708163670+707350531+710340190+714907018+717694731
3348+717541593+716313472+716091687+716824259+717249650+716621031+715089199
3338+713703641+714223857+717625479+722538942+726222776+727060885+725248653
3328+721970748+718916892+717396527+717150903+716986223+716836178+717718418
3318+719377663+719891845+718554566+717235921+717665763+718991273+719181149
3308+718110617+717737957+719137395+720823647+720792567+719275823+718205970
3298+718750175+720403989+721826889+721858045+720299885+718156860+716743164
3288+716547856+717448051+719516619+722446833+724506500+723881879+721287889
3278+719490895+720220450+722670581+724796934+725381649+724856605+724385348
3268+724252125+723446530+721417792+719781555+720764353+724359397+728261622
3258+730079437+728978956+725627952+721687330+719151050+718660707+718774089
3248+718043176+716879781+716421423+717037370+718706572+721093260+722743906
3238+722071532+719466378+717092816+716701824+718241048+720166210+720802298
3228+719909044+718864387+718790082+719031481+718145846+716327956+715326676
3218+715443755+715041146+713639821+713003054+714102855+715405282+715391024
3208+714699641+714614924+715192548+715713972+715587614+714470763+712356178
3198+709661630+707131234+705643534+705741225+706963763+707794857+706924234
3188+704671674+702799167+702997039+705311836+708052325+709501024+709091324
3178+706787014+702802864+698487242+695822115+695481741+696622732+698526997
3168+700863897+702591413+702481123+700790949+699117748+698553702+698782428
3158+699094588+699727357+701396107+703466335+703810405+701274502+697214990
3148+693832831+692094452+691638735+691468925+690635267+689187321+688275661
3138+688783053+690239220+691448482+691649899+690837363+689655184+689035541
3128+689129084+688836688+687242772+684849370+682726562+681198050+679919990
3118+678694283+677640951+676860174+676202134+675348183+674148200+673106561
3108+673290553+674961491+676397441+675237441+671403110+667612457+666390974
3098+667649647+669788523+671816280+673283311+673327668+671481338+668890064
3088+667333942+667415490+668433366+669474704+669971308+669770343+669212483
3078+668634633+667672656+665601899+662331689+658693495+655919210+654922682
3068+655714246+657357574+658706546+659232193+659018253+658182935+656828758
3058+655575291+655262150+655715529+655690182+654535764+653017134+651967724
3048+651080958+649766084+648455737+648073269+648522122+648644858+647690802
3038+646083382+644620878+643549516+642530885+641165317+639745737+639417282
3028+640858966+642814454+642879255+640213675+636620140+634380630+633825713
3018+633522530+632390705+630869624+629972635+629998774+630364495+630183143
3008+629019333+627457364+626627553+626840023+627113973+626420251+625024660
2998+624108586+624235358+624682778+624352701+622947680+620934483+618690221
2988+616412879+614788863+614678725+615729907+616228850+615065115+613070965
2978+611648292+611000775+610477504+609870233+609619781+610056450+610911306
2968+611525178+611472523+610899576+610129964+609191108+607968833+606549328
2958+605166636+603964089+602849351+601551526+600073406+598876366+598068695
2948+596957239+595209468+593667301+593099409+593063501+592798112+592288721
2938+591702686+590670438+588968684+587334824+586738491+586994865+586734003
2928+584982007+582471677+580922571+580986919+581345171+580287388+577907074
2918+575799844+574846316+574502887+574142221+573845375+573697970+573195708
2908+571683377+569171048+566566799+564874626+564121157+563555301+562819711
2898+562177287+561712215+561156091+560422123+559599855+558519026+557023065
2888+555499720+554441598+553734071+553028580+552483130+552350210+552223663
2878+551556193+550571019+549881106+549514632+548944551+547936444+546889109
2868+546274407+546042852+545738010+545080385+544231450+543422837+542540823
2858+541302179+539741266+538283552+537365856+537127512+537275897+537120836
2848+536076707+534331501+532668446+531536357+530708696+529843731+528877416
2838+527845470+526772939+525734807+524761967+523745071+522550671+521206415
2828+519902819+518841528+518130154+517807734+517855599+518016583+517638981
2818+516075692+513512782+511096749+509833286+509518901+509146504+508283916
2808+507436226+506918461+506190981+504767968+503061914+501742288+500851410
2798+500026238+499066222+497938773+496645323+495372619+494515688+494296656
2788+494422561+494328981+493734157+492718430+491402576+489921288+488546366
2778+487436984+486475421+485608382+484945513+484387352+483667717+482793021
2768+481990895+481265263+480322522+478927836+477200244+475516557+474168189
2758+473217754+472576687+472014641+471263775+470312849+469373804+468473007
2748+467438836+466320552+465436237+464979765+464743194+464209210+462983956
2738+461205331+459399323+457996112+457077096+456380093+455494646+454258303
2728+452934641+451882327+451192830+450704674+450199546+449564702+448818928
2718+447972559+447005150+446084172+445541966+445412327+445226751+444522128
2708+443369407+442178176+441156225+440191381+439140652+438019200+436956551
2698+436068389+435306019+434418837+433183022+431652398+430167677+429215544
2688+429113477+429563310+429751677+429214337+428277291+427398484+426573161
2678+425650826+424713139+423849117+422946924+421936327+420960959+420164869
2668+419538361+419078947+418834908+418646578+418132359+417139905+415970098
2658+414973570+414185853+413518458+412995224+412564401+411943363+410950758
2648+409836095+409009302+408579837+408360050+408145695+407797287+407207065
2638+406377518+405452844+404601873+403895590+403251204+402501470+401627377
2628+400858594+400400878+400142090+399757699+399059224+398165140+397317450
2618+396555533+395696942+394715163+393934348+393639199+393631580+393402967
2608+392710942+391807542+391099449+390752852+390652784+390544833+390149994
2598+389365294+388430814+387683984+387152112+386600854+385893704+385094482
2588+384339128+383751659+383384015+383197987+383115533+382993363+382605011
2578+381851693+380923625+380082008+379395150+378814622+378347023+378006310
2568+377689662+377215048+376505823+375735268+375241040+375188649+375303050
2558+375095521+374419716+373605143+373000852+372645353+372404406+372122383
2548+371659914+371111447+370846021+371011794+371246819+371167308+370809509
2538+370342325+369736412+368988601+368364470+368127672+368179573+368193303
2528+368029113+367786922+367515422+367171541+366856779+366785339+366956771
2518+367061704+366801672+366232233+365689121+365359648+365074721+364644200
2508+364195800+363962812+363910157+363815219+363569670+363195802+362718623
2498+362229412+361927851+361886700+361894545+361728772+361459498+361305870
2488+361314922+361322805+361144886+360728283+360167482+359590235+359036676
2478+358508124+358087409+357877241+357829602+357763745+357582167+357366152
2468+357212487+357084017+356897649+356649460+356380337+356129696+355914624
2458+355641578+355184881+354697857+354564408+354863329+355201741+355213170
2448+354911646+354496778+354109257+353795927+353526239+353263415+353053284
2438+352939487+352837458+352645130+352410973+352234298+352089798+351909503
2428+351754630+351740146+351829652+351855603+351725737+351498859+351286465
2418+351182098+351257950+351535559+351953596+352391019+352694240+352722190
2408+352461138+352070335+351734375+351534277+351511872+351711857+352043517
2398+352243916+352125631+351797893+351533938+351434964+351319054+350961142
2388+350301215+349276172+347567780+344719075+340453695+334738182+327635752
2378+319328852+310268313+301089281+292304296+284159397+276727118+269959819
2368+263758753+258268760+253930601+250985356+249336163+249189211+251288445
2358+256223124+263917134+274102708+286894512+301783871+316015434+325508343
2348+327657742+323133536+315734279+309600032+305776998+302841710+299834323
2338+296860073+294024023+291061371+287904241+285168448+283817911+284263520
2328+285887272+287555022+288615653+289417986+290862480+293537622+297338289
2318+301645933+305688868+309016580+311836203+314726624+317998287+321480250
2308+324791499+327600410+329763728+331422671+332878763+334287217+335579686
2298+336691105+337687142+338646970+339560969+340365961+341040862+341677516
2288+342409937+343246236+344060846+344727562+345126173+345130775+344771504
2278+344266791+343781728+343350754+343055983+343022413+343220625+343447842
2268+343517660+343446334+343461459+343744236+344183998+344539459+344764413
2258+344976241+345206589+345380133+345467829+345534780+345641335+345740120
2248+345734538+345660722+345699761+345962547+346362894+346711490+346870700
2238+346878244+346947533+347246643+347700700+348111608+348386728+348563100
2228+348731967+348990227+349340445+349636386+349751767+349785110+349976608
2218+350398379+350802195+350862658+350575128+350291635+350324714+350660373
2208+351102888+351526696+351901167+352218758+352499046+352788273+353103525
2198+353410820+353676435+353927679+354250438+354718225+355305618+355863402
2188+356208377+356296450+356300637+356432502+356692195+356906588+357004242
2178+357106082+357333111+357653116+357947850+358165487+358394213+358774342
2168+359322998+359923555+360511401+361101887+361601169+361838458+361842946
2158+361829707+361895677+361986315+362128363+362431584+362887641+363348186
2148+363653443+363721224+363630888+363625267+363895069+364398312+364982122
2138+365555107+366042772+366343352+366433613+366392273+366284699+366135635
2128+365991512+365923203+366001470+366279155+366711184+367113379+367292505
2118+367203677+366960731+366736531+366640915+366654833+366720463+366883936
2108+367245545+367769533+368263610+368616242+368957559+369430099+369867975
2098+369955030+369685680+369370654+369202466+369121371+369061474+369053779
2088+369133479+369313510+369574486+369824825+369945638+369868578+369613939
2078+369342403+369286654+369478114+369661918+369655053+369644416+369925911
2068+370455821+370854545+370836704+370498141+370140606+369936661+369870653
2058+369913614+370078181+370276393+370300872+370064678+369735318+369510854
2048+369397510+369335576+369388646+369637551+369985167+370201634+370128272
2038+369798723+369410598+369189831+369236639+369490335+369828257+370151469
2028+370386230+370482450+370449182+370384344+370464571+370830744+371393583
2018+371814901+371839418+371609786+371475131+371548305+371644110+371602356
2008+371494707+371493839+371651315+371861332+372019260+372136075+372242366
1998+372284196+372254059+372295437+372476222+372572028+372292645+371639584
1988+370872084+370263229+369975058+369990221+370109827+370108243+369884232
1978+369479925+369046462+368730417+368511611+368287637+368129256+368182553
1968+368302385+368126352+367593802+367045523+366738795+366608703+366531794
1958+366481440+366375149+366097765+365720956+365418037+365195874+364975446
1948+364870663+365121530+365724916+366258900+366197607+365469711+364528706
1938+363803828+363362896+363063221+362744762+362328009+361901787+361632778
1928+361592569+361798136+362216965+362600602+362702480+362715493+362914647
1918+362960626+362291120+361111090+360210330+359997484+360175931+360147868
1908+359621428+358876786+358400437+358334882+358413978+358368866+358253937
1898+358332996+358665184+358951771+359003445+359125390+359589368+359981001
1888+359673329+358780075+357984098+357686196+357753373+357841408+357741642
1878+357520837+357389878+357481723+357923786+359014308+360872256+362768940
1868+363377493+362294137+360557719+359314775+358870223+358869054+358852193
1858+358669484+358520533+358611322+358882783+359208786+359662617+360446638
1848+361760569+363629454+365406231+365800127+364459416+362687883+361727452
1838+361676305+361962628+362257625+362924982+364455833+366449869+367679084
1828+367703525+367337239+367020553+366360816+365370888+364736121+364771124
1818+365093807+365332378+365639860+366370094+367496186+368535185+369055326
1808+369110659+369114054+369556984+370794082+372676169+374416019+375266764
1798+375392820+375739719+377165033+379607243+381594565+381462361+379782182
1788+378627198+379011514+380414121+381954778+383305183+384370962+384968804
1778+385325849+386300160+388675834+392181862+395101892+395845403+394909866
1768+393603329+392615702+392599634+394106986+396499973+398259852+399033274
1758+399707231+400613800+401676939+403531944+406824635+410710716+413195435
1748+413555347+413009633+412953960+413991375+415990466+418194972+419781609
1738+421186178+424003160+428690688+432706258+433226512+431659602+430490323
1728+430358684+431228025+433051346+435512491+438613043+443280768+450286299
1718+458281303+463623967+464556713+463347791+462723999+464016543+467581148
1708+473129266+479601454+485535283+490823556+497067810+504893005+511900308
1698+516037030+518528991+520389654+521795166+524017702+528319518+534487467
1688+541774945+550595913+561242089+570441565+574428430+575408588+577239529
1678+581534104+588137213+595512273+602055033+608155315+614836087+620954624
1668+624456993+626354545+629435974+634582123+640288207+644863107+648572137
1658+652844759+658979780+667763407+677594029+682996704+683485764+684621776
1648+687818133+689980998+688489978+685344089+683220903+682635057+683678280
1638+686461920+689004235+686905416+679732000+672444447+667761672+664770051
1628+661745390+658327246+655235294+652239525+648312255+644031108+641097575
1618+639483667+636977562+632327904+627256927+623382011+620723183+618686298
1608+616625952+614121016+611344732+608895506+607054344+605544880+604140952
1598+602946363+601879189+600566578+598992426+597588650+596539580+595564627
1588+594346012+592803581+591084325+589488523+588401018+588313171+589688998
1578+592245873+593990777+592596770+589382948+587615790+588102738+588986148
1568+588423988+587007916+586255956+587217669+591182998+599388058+609510132
1558+613147497+608510512+603074079+600317710+599831139+600535536+601810012
1548+603925503+607749688+613753825+621661548+630974708+639952435+644002216
1538+642104060+639884919+640908453+644265115+647466149+650213956+654297155
1528+660276699+666767784+672642244+678500108+684585641+689158278+691242613
1518+692381717+693739515+695138577+696717179+699347681+703826624+710412836
1508+717877063+721876527+719410705+715125560+713702207+715647511+719597488
1498+723527172+725590762+725748954+725998501+728142431+732113229+735780240
1488+736918967+736040876+735443110+736367369+738218678+739844580+741224933
1478+743433815+747159893+752019117+756734406+759415978+759353592+758550636
1468+759339334+762019775+764817446+765728880+765287723+766069103+769789675
1458+775072102+776969503+773361559+768581394+766082682+765876738+766278970
1448+765510489+763242012+760736208+759013445+757900366+757153536+757312483
1438+758704453+760149079+760054782+758911152+758274309+758499716+758765105
1428+758497906+758083302+757980858+758257411+759215843+761195622+763124782
1418+762809454+760083524+756875097+754229658+752070565+750407473+749593202
1408+749878732+750958015+751871410+751974232+751975740+752896982+754500328
1398+755798454+756612650+757406327+758136938+758638596+759454527+761106228
1388+762964251+763791573+763919364+765518636+769975401+776399649+782910951
1378+788621485+793912135+799214101+804258749+808621595+812352577+815577073
1368+818181397+820255850+822025384+823102102+822756222+821131904+819175511
1358+817372180+815466934+813175146+810639092+808150866+805744564+803432031
1348+801628550+800801831+800846490+801351845+802246382+803652459+805338711
1338+806807251+807855378+808692808+809631928+810932016+812729010+814839446
1328+816805419+818415706+820046285+822233893+825067171+828237125+831466071
1318+834663183+837812769+840872358+843758743+846397241+848799017+851007521
1308+852929741+854449201+855843736+857723259+860241132+862731169+864418779
1298+865134604+865123440+864628118+863917799+863258778+862501236+860956505
1288+858026215+853866447+849119399+844172216+839162495+834500087+830726483
1278+827924361+825826297+824424595+823883935+823936817+824141328+824816945
1268+826745954+829667342+832145913+833322057+833646890+833611208+833165675
1258+832649457+832913262+834197131+835825522+837232957+838726995+841015538
1248+844165125+847238443+849221164+850318778+851789279+854263851+856770409
1238+857906798+857735781+857781647+859149931+861340708+863098399+864068674
1228+865212456+867545206+870887610+874173964+876755884+878949452+881383741
1218+884182317+886800598+888603099+889650773+890768378+892649107+895092373
1208+897366357+899173158+900946917+903247079+906216671+909669742+913347691
1198+916892796+919803547+921700797+922687216+923477574+924989490+927559189
1188+930685616+933632049+936087309+938300567+940734026+943448640+945938753
1178+947922454+949809973+951843614+953678024+955230299+956868724+958605670
1168+960061611+961183063+962370372+964122405+966660722+969520176+971884158
1158+973792422+976371249+980324846+984771277+988125298+989733321+990139929
1148+990147925+990327541+991309133+993833645+997795842+1001439694+1002674302
1138+1001557754+1000400770+1001112824+1003486461+1006066495+1007717819
1130+1008167652+1007526510+1006124959+1005141482+1005944513+1008151660
1121+1009924815+1010671268+1011805243+1014526043+1018502725+1022598899
1113+1025696584+1027313056+1027833574+1027841118+1027882458+1028972528
1104+1031718147+1034989791+1037059189+1037575332+1037377082+1037407634
1095+1038523806+1041211263+1044961481+1048473318+1050491192+1050637163
1087+1049648557+1048975353+1049975276+1052851703+1056688373+1060478423
1078+1063205635+1063068867+1058674187+1051709355+1045888456+1043515045
1070+1044275001+1046443071+1048690049+1050704831+1052596725+1054533052
1061+1056749251+1058821440+1059325287+1057543908+1054868823+1053600872
1053+1054797988+1057793531+1061624920+1065955478+1070315608+1073354075
1044+1073683359+1071311004+1067797961+1064969361+1063800760+1064494256
1035+1067043210+1070821265+1073741823+1073323900+1069519065+1065329725
1027+1063861412+1065701933+1069008655+1071284375+1071084617+1068724709
1018+1065980297+1064503686+1063985657+1062582145+1059670413+1057082609
1010+1056755512+1058402159+1060208357+1060374394+1057833211+1053315643
1001+1048814219+1045725586+1044532770+1045195035+1046803134+1047527484
993+1046792120+1046649996+1048901123+1051677596+1051037359+1046152336
984+1040193763+1035838914+1032828585+1029920474+1026784316+1023477971
975+1019940410+1016445698+1013258620+1009787142+1004847125+998063041+990992371
965+986195157+984480465+983703913+981179929+976721353+972200844+968753884
955+965713455+962174160+958286268+954533183+950986494+947891072+945776260
945+944583822+943804855+943377352+943365734+943187702+942206941+940618758
935+939189219+938749570+939754547+941527250+942576508+942354949+941773402
925+941676163+942030719+942436949+942361512+941388973+939785929+938167797
915+936812263+935988336+936145321+937317467+939056374+940723766+941552899
905+941190799+940091450+938393657+935380838+931488722+929115839+929751248
895+931865984+932909962+932208244+930741967+929234351+927622179+925807080
885+924361549+924402662+926322318+928564769+928639678+925866751+922063048
875+919338174+918217552+917861261+917313208+916388195+915655547+915745469
865+916764401+918313206+919666402+919933375+918895884+917609602+917205484
855+917378160+917034618+916363074+916789371+918566827+920007002+919895354
845+919491840+920785365+923441288+924854382+923546750+921216791+920257605
835+920589906+920516506+919839380+920081534+921909608+924088315+924947622
825+924083110+922798109+922782946+924108457+925606869+926939697+928730052
815+930926035+932686969+934040995+935816716+937813769+938764884+937974979
805+935783976+933093275+931156647+930916001+932033003+933356099+934283753
795+934725288+934521984+934076149+934359869+935421122+936331199+936974076
785+938021298+939074554+938892147+937466456+936408824+936993463+938567540
776+939522049+939570102+939785024+940280044+939680317+937536537+935264514
766+934047709+933726270+933608890+932957639+931613722+930670377+931498755
756+934322527+938431073+942548446+944602228+943566247+941664471+941925786
746+944418765+946994725+948234916+947694030+945465232+942963729+942265028
736+944058325+946477300+946612107+943921557+941451435+942209506+945208971
726+946591060+944238319+940094543+937749421+938742932+941921486+945394623
716+948091283+949866551+950944702+951253467+949998264+946603356+942155115
706+938718264+937411236+937855411+938397278+936535785+931429655+925687738
696+922188123+920487010+918026393+913615796+908179250+903241647+899626461
686+896808045+893444217+888583636+882836062+878531378+877697267+879562909
676+881590741+882352508+880261987+871694111+855751326+841861116+842942134
666+855024939+866209587+873352602+877656455+878283868+874381719+868554030
656+863923608+860361153+856705759+853555042+852194906+853326165+855822614
646+856611010+853632139+848461811+845011532+845449446+848234594+849879808
636+848650707+846600771+846514471+848213321+849011222+847317804+844542764
626+842410149+839918226+834833596+828020695+823168713+822369681+824805252
616+828848168+833196378+836551682+838011169+837478657+835297234+831729197
606+826900902+821401140+816988883+815937588+818736616
##END=
