##TITLE=<SNM>
##JCAMP-DX=4.24
##DATA TYPE=INFRARED SPECTRUM
##DATE=2/5/2025
##SAMPLING PROCEDURE=Instrument type and / or accessory
##ORIGIN=Admin
##XUNITS=1/CM
##YUNITS=ABSORBANCE
##RESOLUTION=4
##FIRSTX=4497.3318
##LASTX=599.83466
##DELTAX=-1.4281778
##MAXY=1.8118943
##MINY=0.3104037
##XFACTOR=1
##YFACTOR=1.6874581e-09
##NPOINTS=2730
##FIRSTY=0.32929388
##XYDATA=(X++(Y..Y))
4497+195141962+195242930+195648199+195690020+194717248+193031075+191468635
4487+190506513+190260388+190842020+192225341+193972746+195337682+195665454
4477+194831957+193461369+192606114+192950134+194165234+195060703+194640440
4467+193180276+192052528+192310662+193604601+194677882+194748332+194110926
4457+193629609+193956497+194934426+195601697+195223750+194183107+193301837
4447+192759730+192391620+192388459+192871595+193364640+193418523+193324743
4437+193621679+194243737+194698139+194833387+194909189+195015756+194907811
4427+194434830+193733191+192961402+192185268+191556322+191304970+191459893
4417+191837522+192376856+193112227+193839087+194335557+194753383+195185991
4407+195239486+194652697+193771568+192918397+192020243+191189802+190930096
4397+191536860+192705652+193745907+194133514+193927056+193509602+193047588
4387+192558111+192184262+191947992+191589507+190950035+190163040+189396302
4377+188788779+188509928+188496806+188419168+188196055+188166473+188493450
4367+188801989+188687563+188177918+187527955+186912890+186438637+186264587
4357+186606100+187527884+188652153+189251623+188859246+187761734+186853496
4347+186917535+187784287+188277685+187415719+185595586+184153683+183947507
4337+184775282+185889537+186587485+186523216+185952622+185594685+185941107
4327+186744668+187346628+187353922+186879952+186426557+186540824+187188244
4317+187619421+187216484+186197829+185257747+184839180+184936404+185322510
4307+185779420+186153075+186330622+186353723+186473306+186869250+187415030
4297+187835204+187955035+187729185+187214223+186681495+186612811+187204669
4287+187932217+188150278+188011744+188091202+188327489+188199305+187689289
4277+187254738+187125971+187209932+187354311+187400883+187300621+187300180
4267+187739216+188593959+189373413+189532027+188993647+188287840+188140123
4257+188826768+189908509+190708802+191029598+191215304+191565629+191873427
4247+191610365+190640189+189702474+189809501+191034791+192356174+192850013
4237+192477241+191672020+190825454+190203025+189932793+189996319+190273581
4227+190673939+191316591+192282916+193131549+193315241+193098787+193205637
4217+193661363+193935375+193870029+193566788+192906211+191975402+191380435
4207+191579458+192342893+193100041+193428820+193166147+192479202+191849673
4197+191709355+192127852+192873520+193528004+193652427+193238875+192800721
4187+192681491+192635290+192357305+191916855+191463884+191095651+191044575
4177+191420773+191905905+192131949+192163157+192385616+193161290+194533697
4167+195976447+196674978+196330605+195409191+194572109+194222420+194390412
4157+194644396+194399702+193650360+193095909+193368878+194378332+195435259
4147+195872247+195547866+194819312+194122494+193637998+193260686+192831081
4137+192461911+192523690+193175737+194101742+194812936+195057401+194965934
4127+194927185+195150898+195329416+195004152+194230244+193553666+193363156
4117+193538071+193711521+193687572+193619277+193816763+194360106+194948220
4107+195181240+194924006+194362278+193821196+193547167+193584696+193848058
4097+194248559+194720145+195142580+195290933+194974305+194300200+193754402
4087+193868545+194767335+196048081+197000225+197024932+196153853+195134668
4077+194711985+194903414+195219900+195357056+195265342+194781287+193814573
4067+192870023+192755226+193618941+194842147+195951704+196962854+197749478
4057+197844654+197135544+196153182+195476869+195301918+195601008+196245885
4047+196940053+197397934+197619404+197776429+197939811+198082230+198132723
4037+197932288+197471440+197194532+197639520+198761634+199965201+200706313
4027+200822894+200502999+200107973+199833255+199549406+199109222+198645901
4017+198458447+198674230+199024307+199017455+198475401+197784341+197494399
4007+197836724+198671580+199691790+200612797+201248808+201500973+201466445
3997+201570893+202200104+203056966+203348233+202792721+201989690+201636398
3987+201764264+201895733+201711793+201430699+201589349+202463095+203697057
3977+204597365+204821838+204654587+204570909+204716719+204909348+205028207
3967+205213613+205628136+206182888+206655834+206992013+207297426+207653226
3957+208072623+208455445+208592654+208546664+208851954+209775363+210631307
3947+210584611+209857081+209297613+209156254+209018356+208714762+208652030
3937+209270733+210596426+212261671+213688827+214292165+213932797+213225030
3927+212944060+213197549+213512923+213728441+214340150+215620896+216892405
3917+217127191+216057107+214381053+213027950+212583668+213115708+214321553
3907+216101383+218685551+221848791+224461535+225428691+224541452+222259464
3897+219637801+218076827+218363343+220026910+221534707+221751691+221491349
3887+222179848+223642521+224547880+224822422+225331643+225360996+223753962
3878+221783198+221593659+223369127+225815204+228080095+229636848+229679146
3868+228643536+228142085+228674637+229062669+228242754+226767524+226029415
3858+227191090+231013547+237109001+241671881+240274873+235134387+230447968
3848+227868268+227474938+228757397+231051394+233946786+237243932+240106262
3838+240964644+239532648+237508848+236197549+235354992+234419538+233742960
3828+233947139+234952779+236646281+239553400+243423825+246189655+246846735
3818+246742694+246326599+244705577+242245743+240445408+240271658+241989816
3808+244987730+247803948+249933449+252247880+254601042+255614187+255551932
3798+255797032+256334582+256427179+256342477+256904999+258465956+261130306
3788+265022471+269942157+275301852+280790366+286719366+293219842+299615924
3778+305491692+311740463+319558314+329342655+340710559+352506426+363252201
3768+372766575+381968383+390784368+398461919+405164226+411095345+415075551
3758+416196888+416361983+418989033+425949227+435541486+442922791+446091011
3748+448975418+455764547+466842350+477646618+484466760+489880515+497763359
3738+509350860+522594794+533458085+539520461+541812198+543023253+545647547
3728+551118736+558846728+566251522+571180586+573375822+573261202+571469168
3718+569284741+568240724+569343623+572077981+573584824+571060314+565746026
3708+561183570+559612582+561422313+565348546+568937382+570346842+569713905
3698+568506700+568521817+570601232+573711665+576334794+578460234+580975241
3688+583691621+585897842+587725021+589445599+590662729+590894301+590577885
3678+590498234+590321729+589556899+589925980+592508700+594563248+592523076
3668+587579565+583619316+581652614+579973788+577041661+573757302+572612193
3658+574299285+576108980+575549547+574551732+576866145+583202162+588998102
3648+588895562+584125412+579058238+575432313+572738611+570545777+569296397
3638+569373611+570433805+571973533+574090778+577316573+581433935+584264369
3628+583443341+580661334+579199244+580279466+583517518+587547528+590553972
3618+592067173+593830384+597299090+601832334+605837230+608719376+610657432
3608+611221032+610249814+609169169+609519847+611263278+613490198+615978361
3598+618724022+620656850+620582320+619084732+618379843+620523050+626122317
3588+633300837+638276244+639459253+638915222+638518059+637720485+635859361
3578+634619837+635833788+638634340+641244647+643851209+647478512+651387755
3568+653442374+652765743+650593784+648204382+645866197+643725180+641907361
3558+639840097+637054522+634653039+634403312+636416109+639073889+640901174
3548+641426273+640767091+639230578+637418057+636291916+636454610+637171014
3538+636948767+635610905+634617293+634867869+635691440+635932973+634869352
3528+632585846+630174685+629080405+629731251+630765413+630067871+626966940
3518+623029085+620580483+620922260+623703880+627240757+629457434+629376122
3508+627829577+626389988+626025393+626669810+627160081+626050895+623361679
3498+620826114+619834126+619818655+619560521+618872092+618080876+617435611
3488+617383546+618044918+618455220+617669302+616201738+615111767+614625805
3478+614752117+615888360+617697207+618813104+618433815+616907828+614777125
3468+612496303+610849867+610483011+611071337+611520140+610968196+609559832
3458+608327301+608239560+609143172+609798751+609350583+608441886+608217943
3448+608800476+609409077+609471102+608978429+607759391+605425869+602670035
3438+601403524+602511297+604239256+604064694+601849572+599537878+598106201
3428+596598157+594130481+591521128+590443061+591449142+593208503+593933808
3418+593429690+592767258+592177979+590828779+588611961+586536608+585094652
3408+583850182+582765368+582336592+582478729+582587274+582552835+582687977
3398+582908493+582771797+581989835+580295537+577433843+574107697+572191012
3388+573002891+575476537+577123820+576947351+576084007+575558484+575196185
3378+574756954+574306243+573603615+572584960+571868909+571721156+571462845
3368+570601974+569328151+567773765+566303551+566084554+567655718+569644143
3358+570243596+569367995+568466114+568591543+569329953+569525284+568634990
3348+567053723+565421734+564403961+564690247+566115920+567256013+566992898
3338+565940616+565281611+565124039+564928742+564544261+564015064+563140347
3328+561818663+560432410+559722328+560282962+561896689+563419462+563811644
3318+563248009+562726548+562812663+563322150+563808854+563708362+562644071
3308+561117200+560260567+560536115+561320797+561935190+562407907+563148436
3298+564297571+565384469+565648290+565038665+564584034+565166143+566205744
3288+566196914+564637441+562971048+563196792+565591739+568125503+568702737
3278+567684117+566850197+566395353+564975474+562608819+561144151+561442906
3268+562204169+562139140+561750173+562276155+563966956+565877531+566829357
3258+566375220+564889676+562850175+560563419+558693147+558195211+559163744
3248+560354877+560547842+559981452+559695801+559802015+559338059+557608298
3238+554908767+552326683+551177795+551885227+553389208+554423017+554961079
3228+555628279+556388377+556661841+556198944+555132957+553600506+551741006
3218+549910189+548634247+548063582+547470029+545869900+543440478+541544350
3208+541152133+541909192+542926894+543724751+543948976+543052994+541113490
3198+539292598+538524271+538334308+537773110+536771338+535754767+534704392
3188+533421916+532209306+531595372+531647225+531895646+531715609+530756895
3178+529289330+528012646+527238385+526540878+525573652+524715183+524384320
3168+524225618+523550399+522417230+521674723+521764370+521968603+521291619
3158+519708868+517922945+516314551+514780016+513238275+511830934+510866074
3148+510585334+510687026+510394842+509314478+507878209+506761747+506147812
3138+505693075+505030926+504212795+503626906+503408509+503167506+502599455
3128+502071990+502134439+502621108+502733185+501971816+500631976+499435121
3118+498900803+498909704+498789467+498079563+496993548+495920673+494936527
3108+494002504+493105462+492083487+490865649+489837740+489480032+489715772
3098+489915272+489494444+488465262+487474299+487174768+487526435+487869589
3088+487598633+486598522+485231308+484089237+483556367+483518996+483616803
3078+483680983+483709029+483534361+482843106+481598636+480247388+479308949
3068+478858344+478676612+478792362+479313717+479762980+479345896+477994753
3058+476472686+475422841+474897954+474687823+474529862+474078728+473070492
3048+471615538+470285517+469755367+470146595+470745624+470678688+469863170
3038+468901949+468102326+467171093+465936125+464657569+463404516+461886758
3028+460225381+459217569+459461433+460536922+461317506+461085934+460191860
3018+459459420+459188464+459079177+458804088+458162638+456992910+455442126
3008+454085155+453398634+453237706+453038948+452518724+451932835+451494558
2998+450926013+449939783+448731624+447632611+446724584+446003130+445480115
2988+445047206+444538143+443892455+443181455+442576281+442172690+441811874
2978+441311147+440769447+440416967+440289560+440171337+439820871+439293016
2968+438902601+438719914+438448570+437989346+437581340+437205477+436466927
2958+435257143+434046865+433305771+432887380+432288281+431441432+430773844
2948+430441604+430118053+429570842+428830843+427925960+427031462+426580893
2938+426733485+427029449+426843230+425958340+424626271+423239559+422061177
2928+421267311+421004373+421122420+421078656+420456633+419415972+418414059
2918+417724182+417320732+416947625+416256158+415138071+413968131+413343741
2908+413544477+414290551+414986327+415158381+414703750+413818259+412740545
2898+411597908+410488864+409569781+408970470+408704353+408670444+408666276
2888+408462715+407917129+406974769+405672512+404235219+402976125+402000669
2878+401239724+400778487+400789366+401116343+401322801+401232165+401040754
2868+400804343+400281964+399456308+398723480+398352597+398170229+397888853
2858+397402361+396734913+395953376+395119102+394270628+393513675+392999208
2848+392739166+392631575+392576084+392369096+391789459+390975531+390332633
2838+389987253+389741022+389475929+389172901+388743489+388237923+387888693
2828+387598522+386867707+385625956+384580562+384249240+384170578+383611075
2818+382628095+381857507+381547449+381328593+380806037+380000728+379214209
2808+378666751+378291100+377811637+377042321+376119318+375402420+375131322
2798+375158626+375015254+374326330+373207254+372145435+371494412+371235466
2788+371152847+371003505+370603093+369986863+369383314+368893572+368374937
2778+367694102+366884978+366073134+365403178+364936961+364519736+363918765
2768+363169441+362592313+362367734+362279464+362013559+361520674+360904973
2758+360187263+359420701+358791437+358362591+357972847+357536865+357144613
2748+356832153+356525204+356139027+355585952+354849344+354062367+353296477
2738+352423596+351432739+350622873+350215255+350035748+349776413+349310831
2728+348625052+347727587+346796212+346204142+346204390+346597596+346802182
2718+346358076+345376085+344375515+343694751+343240720+342787078+342263427
2708+341705019+341118389+340498944+339915069+339511584+339381952+339430061
2698+339417027+339141549+338555025+337789947+337098940+336648512+336363604
2688+336049802+335629221+335204684+334953826+334958912+335068976+334965094
2678+334442043+333626243+332892425+332525746+332456056+332386012+332157513
2668+331847667+331548064+331247579+330922191+330599559+330321856+330057470
2658+329665147+329042594+328294365+327620065+327100935+326720057+326478347
2648+326373794+326343028+326273903+326064266+325684517+325173724+324584197
2638+323995023+323527641+323234220+323038464+322851610+322628551+322309415
2628+321867288+321394854+321005675+320682406+320321096+319897160+319507450
2618+319221765+318975040+318706980+318526590+318555801+318652902+318511860
2608+318077504+317649576+317463181+317366610+317098621+316664830+316217086
2598+315818970+315531060+315399485+315217611+314695373+313955374+313464255
2588+313436174+313622392+313686502+313541469+313283582+312962680+312534788
2578+311998138+311465480+311098095+310982591+310997638+310868607+310497689
2568+310121967+309991805+310060789+310111406+310031860+309879904+309725617
2558+309500580+309128743+308774816+308665211+308683967+308526148+308182887
2548+307901723+307799924+307819669+307897978+307971131+307931570+307700952
2538+307317848+306912067+306582193+306354189+306277681+306401591+306591059
2528+306589010+306330099+305985249+305698292+305479153+305328222+305287460
2518+305346554+305387633+305291345+305089197+304929964+304888319+304904603
2508+304917460+304945824+304993897+304950769+304702384+304354566+304170467
2498+304217340+304277070+304184349+304019359+303891105+303756386+303530042
2488+303221467+302908513+302651650+302478960+302433536+302554620+302755462
2478+302804383+302539785+302064596+301638329+301411808+301341128+301326222
2468+301332686+301359778+301380194+301360308+301293231+301195459+301098853
2458+301044033+301051169+301071196+300975650+300670784+300258257+299968085
2448+299878014+299847036+299772189+299721537+299766890+299868088+299956959
2438+299999310+299986559+299974055+300062184+300240561+300341864+300239889
2428+300009518+299826868+299787837+299854101+299926158+299986983+300158013
2418+300512294+300875264+300978935+300790138+300537973+300448997+300564994
2408+300766331+300901438+300916415+300869648+300834255+300844075+300917509
2398+301060529+301249856+301459245+301679373+301871596+301945702+301820132
2388+301449390+300748140+299533199+297548730+294501753+290144766+284469345
2378+277819597+270727863+263628729+256720247+250037632+243651087+237798719
2368+232772537+228703655+225518621+223091760+221542424+221434727+223481187
2358+227965333+234625024+243214700+253888099+266229287+277916592+285557938
2348+287031843+283034135+277029564+272733278+270867598+269795429+268520653
2338+267331144+266454996+265425355+263824008+262043895+260897903+260722635
2328+261249271+262112438+263122175+264261437+265686280+267613297+270069335
2318+272756979+275213635+277175710+278784210+280380347+282177096+284193549
2308+286347918+288466452+290272368+291517244+292203924+292645274+293181906
2298+293843031+294425987+294881113+295386114+296013665+296561865+296808237
2288+296790682+296737133+296785525+296869591+296868461+296765108+296605170
2278+296382499+296064494+295683844+295299840+294916029+294548749+294309883
2268+294274597+294319385+294252061+294071865+293950657+293974129+294044614
2258+294050725+294020242+294059308+294210805+294414614+294557368+294548043
2248+294405589+294259178+294206548+294238126+294346919+294566870+294836007
2238+295008697+295071093+295151822+295280359+295341520+295302771+295278611
2228+295309836+295252614+295001438+294713863+294647369+294802151+294910431
2218+294813683+294664889+294678894+294854675+295042871+295145111+295144140
2208+295058201+294959882+294946495+295028919+295130364+295205477+295266549
2198+295312573+295346571+295436254+295633599+295844701+295889843+295719272
2188+295497485+295426840+295525089+295635753+295640169+295585190+295589269
2178+295684816+295792460+295830325+295795180+295725224+295650695+295618128
2168+295683632+295841964+296038779+296244654+296420753+296465188+296340748
2158+296206400+296266271+296505632+296696195+296677827+296549007+296521633
2148+296638372+296753911+296791953+296842817+296951786+297008549+296961570
2138+296965208+297174563+297504542+297718488+297709658+297598817+297537427
2128+297501222+297387379+297269968+297373603+297768328+298263085+298644671
2118+298886345+299091990+299326035+299538851+299653542+299692749+299755729
2108+299898960+300123397+300415900+300715820+300930826+301051486+301148940
2098+301249467+301326434+301403401+301564859+301851003+302165370+302327746
2088+302278790+302180524+302227184+302439258+302707848+302920487+303001340
2078+302960543+302919675+302987670+303137118+303266538+303337501+303425912
2068+303651762+304024516+304377067+304540538+304547673+304561943+304679248
2058+304882951+305099299+305219606+305170543+305033988+305007885+305172981
2048+305385797+305484699+305515994+305638421+305883521+306160447+306433240
2038+306714298+306919025+306924995+306790594+306741037+306902954+307193549
2028+307496048+307792789+308067454+308228700+308254061+308312766+308586937
2018+308985018+309185541+309014370+308639850+308349042+308302276+308519931
2008+308909393+309280523+309507927+309666488+309865069+310031260+310027092
1998+309912577+309953763+310357354+311032148+311616023+311773242+311469613
1988+310950413+310550813+310513230+310824065+311235957+311541352+311743677
1978+311922584+312088951+312210919+312258816+312259981+312385693+312824429
1968+313456342+313859898+313796707+313476971+313224806+313157623+313289799
1958+313666651+314231558+314751535+315043755+315190766+315420960+315833170
1948+316361554+316988840+317768718+318508081+318728067+318269444+317623614
1938+317338565+317475367+317793655+318108552+318353758+318530087+318695500
1928+318983835+319616384+320678203+321827197+322640101+323273922+324114130
1918+324868823+324892983+324347539+324068988+324477453+325288556+326048371
1908+326601904+327083274+327637973+328274867+328988339+329884215+331080505
1898+332547611+334074305+335416511+336609481+337990577+339630796+340992925
1888+341592271+341706891+341935037+342509340+343342589+344312394+345323067
1878+346313182+347255506+348142622+349151458+350715664+353010826+355268230
1868+356147327+355328383+353939446+353119089+353074512+353349884+353460866
1858+353290578+353065399+353016019+353158685+353473123+354061943+355021858
1848+356420579+358293254+360151835+360833269+359920863+358541251+357805843
1838+357782531+358011418+358340621+359166523+360850542+362902724+364151079
1828+364244082+364006611+363853490+363331181+362325878+361452325+361140290
1818+361213089+361392384+361786791+362656881+363816154+364588685+364569187
1808+364129462+363922863+364332988+365432107+366896140+367938991+367947503
1798+367326823+367214710+368375891+370417263+371746789+371101877+369386104
1788+368406939+368736141+369677582+370515141+371258672+372070093+372767917
1778+373359422+374464157+376706231+379733092+381962590+382147078+380867356
1768+379168079+377578158+376820780+377541352+379186340+380394993+380852133
1758+381250319+381758393+382336934+383716194+386566232+390036351+392108418
1748+391996730+390848442+389977363+389948575+390813226+392178462+393320321
1738+394281048+396306385+399981266+403127516+402953660+400553520+398328508
1728+397049069+396691255+397091173+397962535+399481811+402542970+407623390
1718+413220502+416030273+414789759+411841702+409677090+409312389+410831665
1708+413828891+417331223+420242404+422855536+426639881+431612074+435228709
1698+436085094+435452828+433899324+431865122+430929685+431918140+434302986
1688+437782323+443087533+449937558+454659387+454518735+452479269+451878298
1678+453564365+456855719+460235554+462726083+465039472+467837057+469927881
1668+470050625+469618035+470770879+473635753+476520548+478131520+479228909
1658+481470594+486105778+493640522+502018053+505440981+503813407+503268881
1648+505776895+508817672+509282017+507980785+507562465+509124657+512724832
1638+518157272+524139926+527544699+526946094+525204324+525036120+526785944
1628+529508716+532455431+535628632+538760258+540997987+542563429+544969115
1618+548821843+552448050+553814876+553772206+554296140+555893655+557914823
1608+559688596+561202397+562877903+564915815+567075835+569074150+570938841
1598+572826987+574698955+576360014+577778587+579194546+580828619+582643118
1588+584474430+586197021+587695951+588942576+590205908+592070423+595162100
1578+599534134+603651637+605091085+604439321+604693782+606930027+609587807
1568+610961132+611574960+612745324+615227200+619958107+627826257+636709142
1558+640112925+637494000+634764869+634164463+635391414+638052655+641738239
1548+646229026+651903953+658975094+666771187+674569116+681533725+685088405
1538+684635929+684059188+685984740+689849407+693811775+697468041+701920610
1528+707500309+713329805+718951961+725118573+732002365+738056722+742148440
1518+744783755+746251249+746768083+747714716+750661007+756130218+763630877
1508+771209809+774489329+771560770+767637327+766884329+769339289+773332741
1498+776757788+778270565+778371374+778689556+780311549+783135696+785957866
1488+787438641+787576962+787458209+787896557+788911150+790231280+792025646
1478+794757390+798472432+802667008+806367992+808167444+807783492+807105307
1468+807823971+809633807+810851715+810723284+810951747+813522211+818280034
1458+822426359+822230180+818164883+814069139+811714282+811085548+811599202
1448+812189365+812061075+811464413+810937477+810604319+810889227+812672360
1438+815702364+817698066+817224325+816245054+816591705+817601424+818013987
1428+817899967+817988626+818349053+818642721+818784293+818810714+818532799
1418+817836599+817138280+816853089+816796503+816439184+815438367+813986485
1408+812751693+812318220+812613796+813163550+813994609+815605582+817847479
1398+819608570+820111628+819775361+819351849+819169940+819476889+820572088
1388+822129795+823099670+823238274+824027230+827061897+832321294+838335526
1378+843716643+848065435+851203314+852561309+852286644+851914419+852809483
1368+854881409+857256471+859404552+861054520+861739699+861368675+860751527
1358+860677562+860912313+860665764+859857876+859185837+858835371+858058213
1348+856326226+854277683+853176268+853678902+855275534+856827306+857569778
1338+857536363+857131854+856699299+856452115+856439611+856658961+857237114
1328+858152170+858872812+858900363+858633328+859013182+860411021+862481111
1318+864888033+867547579+870368829+873258605+876098576+878480207+879861233
1308+880236707+880306221+880851737+882228241+884352020+886851769+889143823
1298+890600014+890918478+890309101+889184373+887798332+886260970+884543254
1288+882306938+879258072+875792686+872705036+870224220+867979568+865917320
1278+864434638+863503334+862558254+861472734+860809455+860830931+861010862
1268+860869291+860750749+861475277+863388537+865792068+867451149+867874874
1258+867733514+867826482+868246109+868788516+869570054+870847444+872622877
1248+874623806+876381719+877387270+877717956+878484093+880874625+884678044
1238+888473055+891223944+892874195+893677562+894073947+894753333+895988902
1228+897582072+899613661+902150145+904381939+905439484+905913649+907173307
1218+909394647+911496244+913004641+914954282+918605179+923886830+929228174
1208+932700554+933815533+934154837+935337564+936797852+936940130+936118254
1198+936521774+939173408+942795129+945820118+948314851+951387736+955497539
1188+959715639+962580054+963835403+964596030+965662759+966865407+968168230
1178+969987108+972139287+974003307+975585386+976952565+977240935+975893607
1168+974423782+975134040+978537823+983081241+986698723+987877706+986259104
1158+983533859+982835116+985787553+990692246+994664504+996829116+998147621
1148+999394705+1000870888+1002700434+1004423378+1005700697+1007211355
1140+1009266044+1010874474+1011682362+1012883032+1015133972+1017397627
1131+1018200075+1017058887+1015153469+1014845178+1017601436+1022186109
1123+1025545881+1025827893+1023984642+1021950087+1020369774+1019409223
1114+1020113194+1022985449+1026258258+1027383057+1026268219+1025635670
1105+1027986924+1032873885+1037123987+1038169523+1036842187+1036106003
1097+1038267365+1043591402+1049906013+1053528158+1052152361+1047132024
1088+1041748434+1038105378+1036844872+1038185276+1041913671+1047537875
1080+1054442578+1060844576+1064432671+1065330842+1065976319+1066414738
1071+1064261500+1060764748+1060227569+1063120947+1065390183+1064371493
1063+1061653877+1060177906+1060909852+1062342589+1062619938+1062078379
1054+1062537214+1063950311+1063852893+1061162617+1058720655+1060304995
1045+1065992779+1071745133+1073741823+1071963353+1068715905+1065905039
1037+1064814856+1066323889+1069821418+1072542777+1071764984+1068355902
1028+1065838422+1065385521+1064938555+1063387559+1061779553+1060286204
1020+1058092062+1056105686+1056208968+1058309435+1060649174+1061959131
1011+1061845465+1060346816+1058025374+1056259761+1056668439+1059733059
1003+1063907218+1065920863+1063787547+1059876184+1058217951+1059214247
994+1059695405+1057807437+1055327468+1054034960+1052704658+1049553145
985+1045391136+1042428879+1041471084+1042003036+1043460993+1044638916
977+1043928163+1041735364+1039966643+1038421016+1034853268+1029226520
968+1024642623+1023510972+1025087612+1026551785+1025582616+1022219524
960+1018524403+1016258629+1014927973+1012392761+1007408311+1001211888+996149941
950+993067872+990786697+987930831+984696735+982649322+982746387+983903752
940+984207028+983046201+980740230+977422350+974132798+972930432+974507920
930+977150440+978549409+977755650+975558753+973760432+973615823+974678455
920+975718339+976342269+976796724+976893860+976256931+975358901+975010978
910+974638894+972610838+968583124+964134723+961091861+960348118+961749630
900+963780866+964122289+961816106+958364850+956110378+955987599+957012153
890+957924948+958746400+960066812+961740588+962801382+962296629+960315480
880+958217839+957237296+957016603+956616545+956299493+956526826+956549998
870+955538583+953907407+952733157+952634608+953400604+954063742+953415157
860+950957018+947577324+945113110+944689385+945695290+946914328+947867602
850+948098043+946668627+943992833+942722789+944912480+949390410+953267157
840+954721300+953466021+950208471+946654922+944802487+945210387+946853150
830+948687570+950109428+950568686+950279327+950596591+952252140+954243250
820+955534910+956284870+957031509+957923676+958409073+957789240+956525696
810+955716324+955309343+954427561+953028662+951337932+948899574+946134626
800+944897645+945731106+946893134+947669939+949651865+953405126+956869946
790+958284457+958097744+956848329+954279985+951680204+952070302+956535869
780+962072969+964807822+964706306+964648377+965617193+965961584+965219183
770+965227590+966451432+966218447+962750518+958781227+958216355+961188644
760+964150618+964119746+961624378+959382763+958969424+959072282+957429943
750+954437592+953171364+955512728+959840256+962916462+963155522+961526041
740+960045195+960032550+960934960+961108109+960416148+960608513+962867859
730+966531825+970071316+972483678+973881870+974971487+975786581+975440424
720+973485131+970509876+967489267+965637115+966354084+969575040+972331157
710+970944480+965430904+959460119+956030338+955744865+957776312+960760610
700+962685950+961086139+954615050+944981076+936385148+931979629+931355910
690+931762609+931731667+931926787+932629203+932152001+928836381+923560524
680+919042892+916984811+917403732+919700449+921991231+920239818+910688709
670+895016695+884328708+890310937+905986554+915985689+915292386+908252540
660+901395522+897814209+896756452+896050504+894258894+892449835+892546264
650+894152433+894625255+891464135+885444746+880809067+880568806+882655003
640+882271051+878581511+876163428+878486565+882669838+882772061+878583701
630+876358265+879628248+884393065+884961257+881577960+878359900+876352613
620+873624048+870240751+868164445+866366618+861866435+855851779+854172141
610+861637830+876230964+889362043+893388980+886670072+872569470+858782175
600+852372194
##END=
