##TITLE=<SNM>
##JCAMP-DX=4.24
##DATA TYPE=INFRARED SPECTRUM
##DATE=2/5/2025
##SAMPLING PROCEDURE=Instrument type and / or accessory
##ORIGIN=Admin
##XUNITS=1/CM
##YUNITS=ABSORBANCE
##RESOLUTION=4
##FIRSTX=4497.3318
##LASTX=599.83466
##DELTAX=-1.4281778
##MAXY=1.7734947
##MINY=0.23450314
##XFACTOR=1
##YFACTOR=1.6516957e-09
##NPOINTS=2730
##FIRSTY=0.25447571
##XYDATA=(X++(Y..Y))
4497+154069371+153359595+153094356+153474730+154160887+154534820+154358427
4487+153902541+153600150+153920133+155111941+156668749+157541981+157269922
4477+156487232+156078728+156169234+156225656+155952550+155572338+155197557
4467+154570636+153664439+152955042+152743573+152701549+152450114+152201998
4457+152522197+153602803+154862706+155295172+154400017+152740271+151405956
4447+151055606+151594312+152412277+152739964+152244869+151480133+151359602
4437+152201078+153524386+154500195+154461022+153459898+152352805+151849302
4427+151724730+151426165+150952930+150608164+150389712+150110489+149764632
4417+149454870+149166410+148850396+148662085+148844487+149275798+149439263
4407+149064888+148486117+148132257+148051558+148146331+148422865+148748604
4397+148754017+148257605+147584160+147307436+147791632+148975474+150395648
4387+151397764+151532621+150853023+149799374+148793063+147985897+147374467
4377+147046744+147159804+147613859+147923142+147683354+147141490+146960343
4367+147302501+147485119+146818160+145539167+144555355+144405216+144790543
4357+145098229+145159740+145380023+146167522+147374630+148381194+148646721
4347+148108088+147106215+145966653+144748899+143601731+143127828+143832516
4337+145264509+146311481+146389952+145837669+145216937+144791139+144619049
4327+144697430+144928116+145067619+144812556+144046881+143023961+142216010
4317+141977205+142351147+143078245+143782003+144255383+144539387+144697619
4307+144726940+144800052+145269570+146188235+147107207+147559025+147446948
4297+146844404+145842468+144807883+144337697+144611741+145113747+145260395
4287+145056378+144883305+144850619+144696807+144263114+143762210+143545237
4277+143781056+144297126+144634070+144465454+144026420+143862928+144153347
4267+144590937+144976887+145510847+146269981+146840958+146856295+146554428
4257+146403656+146511629+146763741+147145378+147623729+148034822+148210737
4247+148028687+147475006+146838242+146570820+146799620+147200600+147420532
4237+147461879+147655350+148250748+148963294+149077076+148235547+146963437
4227+146148170+146191808+146833398+147594607+148197403+148614198+148850721
4217+148767784+148272310+147704302+147737060+148609074+149645626+149932337
4207+149461456+149173735+149711340+150539833+150660689+149960836+149339212
4197+149480763+150000613+150093763+149662993+149301736+149352375+149565035
4187+149662605+149747048+150042682+150470970+150603076+150108937+149257556
4177+148759647+149076048+150066138+151187396+151865866+151907150+151645555
4167+151526342+151700119+152115173+152551410+152540981+151882177+151179204
4157+151190400+151766140+152074431+151779059+151444010+151711576+152444502
4147+152867405+152491541+151664537+151014909+150576841+149887905+148914117
4137+148327686+148665748+149683734+150783519+151705911+152546863+153348895
4127+153896045+153838649+153039341+151860976+150953435+150657134+150780263
4117+150982043+151133644+151273472+151489173+151854228+152238103+152292576
4107+151889665+151375102+151182993+151487693+152293605+153408294+154297007
4097+154412107+153724759+152714992+151926131+151619194+151671556+151741366
4087+151615242+151395798+151368245+151734636+152420631+153106734+153478303
4077+153387887+152783647+151720544+150537055+149739813+149571242+149869618
4067+150364776+150878563+151258036+151392802+151325374+151165446+150901316
4057+150453856+149932977+149710952+150088575+150894920+151661217+152183720
4047+152569868+152797811+152672499+152204722+151692288+151424703+151444840
4037+151554201+151596188+151748565+152293045+153095817+153644736+153674706
4027+153461504+153374372+153407771+153362554+153242908+153181560+153224918
4017+153442902+153831468+153951186+153309560+152210027+151540037+151726029
4007+152464945+153285310+153923995+154360989+154734832+155116036+155373769
3997+155356736+155065803+154604179+154148888+153989763+154384843+155269514
3987+156184787+156620862+156445804+155937141+155453161+155250280+155549116
3977+156419280+157509737+158198294+158176624+157711409+157254476+157049015
3967+157203828+157811587+158744398+159566170+159940067+159968774+159923593
3957+159900064+159929024+160145131+160722432+161749376+162961608+163636795
3947+163425488+163145994+163735402+164671696+164518742+162975087+161229742
3937+160542628+161485959+163919915+166814611+168503299+168154266+166850265
3927+166323450+167028661+167968780+168330046+168685232+169980572+171923980
3917+172881277+171479389+168209822+164954095+163202507+163260246+165074282
3907+169154452+175795766+183385572+188708955+189906591+187444306+182326510
3897+176205119+171949692+171762149+174938214+177697332+177209472+175925048
3887+177585192+181466631+183807500+183979022+183964605+182855780+179202193
3878+176045145+177080335+181796159+187180258+191373344+193255765+191896569
3868+189477914+189378873+191062004+190768978+187135889+183098717+181986644
3858+185575833+194758299+207742110+215042480+208110414+194852973+184889315
3848+180865837+182183390+186833499+192393269+197707378+202927607+207069774
3838+207542279+204070697+199629712+196054001+193037728+190588688+189618472
3828+190101352+191174126+193669123+199488449+206985169+210521184+208974660
3818+206685791+204338426+199384140+192930009+188927967+189702230+194949560
3808+201452824+205393987+207663765+211517815+215596162+215610363+212505514
3798+210072497+208190978+205350051+202621951+202012568+203838441+207303708
3788+211963488+217555629+223257817+228672536+234864604+242540477+250119132
3778+255954444+261502523+269587333+281608398+297095849+313511835+327019177
3768+335811219+340786345+343167145+344893544+348463156+353891606+358172853
3758+359862299+362233283+369697542+383875885+401966954+417241871+426718735
3748+435724881+448758293+462896940+470767249+473069704+477456722+487922440
3738+504284873+523115111+537852729+543935977+544355091+545519905+550725410
3728+559336548+568467771+575159950+578663523+579509870+577546885+572905166
3718+567253229+563393406+564228927+570422709+577173782+576938459+569427251
3708+560859850+556000058+556365763+560160196+562903309+562075078+560187514
3698+560391009+562965631+566772443+571545374+577925473+584888520+588082720
3688+584838323+579078090+575830373+576500688+579791817+584067146+589549149
3678+597372942+605048959+606969723+604089768+601598001+598433826+590459370
3668+579528094+570760302+565961244+563964518+562879311+562301559+563601050
3658+567030861+570329894+572485042+576279223+584118064+593908018+598396873
3648+592613111+581264417+571293415+565705208+564212616+565051962+566749852
3638+569128126+572582332+576895191+581707312+587630226+594862698+600054130
3628+598733781+592831184+587911740+588016103+594781070+605420835+612695854
3618+612637899+609392744+607977631+609587686+613217599+617081139+618957372
3608+617757192+614981385+613196885+613809570+616700711+620650066+624608226
3598+628621960+632352700+634080182+633745584+634942010+640373817+647016196
3588+647942042+641310561+633317954+629052549+628283825+628990841+630400180
3578+632576656+634820686+635697743+634939412+634535888+636994275+642424421
3568+647339535+647565294+643363908+638574450+635845122+635172461+634995058
3558+633883075+631861773+630384807+631002471+634032114+638342483+642130962
3548+643789013+642595545+639142602+634638014+629923038+625797651+623372465
3538+623098709+623733118+623238582+621234313+619593368+619916274+621232509
3528+621225653+619540825+618254687+618988334+621138106+622995212+623602772
3518+623166841+622189679+620929812+619661428+618671852+617585418+615499160
3508+612432131+609764512+608573499+608290721+607686770+606722094+606253614
3498+606338346+606129619+605026188+603134294+601071204+599712855+599559197
3488+600366210+601970058+604469656+606720073+606298867+602445106+597541071
3478+594418576+593632422+593799758+593740322+593618060+593722387+593290607
3468+591839804+590457313+590110048+589777471+587784028+584270423+581268351
3458+580618569+582175829+583992987+584465618+583902697+583352552+582766933
3448+581448785+579768722+579110315+579818919+580148645+578277465+575139705
3438+573506807+574198522+575178571+574700672+573324821+572038971+570581492
3428+568636225+566805607+565599798+565015189+565235753+566178344+566759018
3418+566297611+565771896+566134101+566658228+566206744+564830677+563149855
3408+561391880+559749094+558739237+558545955+558559127+558056220+556931534
3398+555504007+554120542+553157056+552877888+552976441+552666094+551695607
3388+550666733+549939725+549062055+547882156+547386249+548376294+550008796
3378+550756084+550287278+549401958+548696241+548216538+547905901+547720559
3368+547731240+548278463+549361035+549902556+548599853+545857173+543941534
3358+544517229+546794929+548801796+549744459+549946726+549256455+547237607
3348+544618778+543112978+543514517+544734942+545129444+544304424+543044449
3338+542176450+542288644+543673156+545565988+546168965+544457541+541450453
3328+539065936+538281947+538669557+539192384+539314106+539527704+540585413
3318+542241623+543312431+543088944+541994138+540676749+539316848+538090434
3308+537480456+537675831+538132475+538007578+536842078+534970176+533394945
3298+533000190+533827447+535243210+536618375+537549923+537643713+536778926
3288+535694730+535604657+536876830+538532751+539332835+539021405+538208438
3278+537399116+536687734+536335381+537016847+538910906+540739432+540699375
3268+538628418+536251587+534957726+534469289+533957577+533300397+532833541
3258+532755051+533176655+534076267+534849141+534671557+533726440+533198452
3248+533609843+534112426+533880062+533155400+532342000+531343042+530228749
3238+529463778+529243648+529117921+528329890+526552248+524442713+523165236
3228+522985775+522873148+522037807+521015861+520499457+520029497+518782007
3218+517145753+516428886+517000179+517667101+517321388+516337370+515530177
3208+514768526+513673612+512611176+511856310+510827616+509212833+507863687
3198+507615914+508090096+508235021+507335374+505315696+502715993+500416172
3188+499063706+498851731+499592163+500445511+500134874+498376863+496481324
3178+495652479+495485902+494927890+493920595+493232164+493146241+493000378
3168+491965188+490008518+487898803+486275757+485100838+484111478+483238896
3158+482384718+481453459+480694298+480244005+479557776+478278854+477175207
3148+477062075+477373036+476884672+475354874+473521008+471937838+470587825
3138+469373860+468392151+467626025+466787581+465775812+464913839+464398121
3128+464048583+463805609+463756784+463596377+462897193+461953880+461552088
3118+461881778+462255170+462005990+461285766+460614044+459954663+458790715
3108+457024512+455223268+453955534+453344294+453268367+453647857+454334483
3098+454815955+454443321+453206153+451900130+451220361+451025130+450672922
3088+449814161+448690233+447796829+447454869+447640139+447980655+447896717
3078+447082668+445946471+445189727+444977753+444900166+444597108+444081028
3068+443604356+443372028+443244750+442779300+441727077+440359382+439162775
3058+438315995+437580868+436721963+435899361+435405475+435092024+434476525
3048+433443572+432478824+432097024+432225963+432242563+431610608+430459543
3038+429444057+429005709+428895246+428532681+427712750+426666986+425498996
3028+424030149+422301296+420804663+419985453+419758538+419699897+419509683
3018+419081331+418334331+417323139+416408696+416002718+416117113+416329160
3008+416235334+415864793+415501686+415078134+414099456+412436931+410807245
2998+410008713+409957974+409866891+409200185+408170949+407362890+407090434
2988+407141677+407014110+406376923+405368473+404384671+403535437+402531318
2978+401276539+400199524+399626969+399205726+398394888+397239818+396225847
2968+395577328+395096795+394603594+394203498+394021945+393892321+393538019
2958+392951895+392351517+391832262+391278580+390564960+389729692+389003912
2948+388629510+388523306+388264743+387575771+386624988+385750060+385119730
2938+384706318+384348191+383855496+383226356+382664049+382266913+381904564
2928+381488120+381114151+380798282+380250916+379141314+377600294+376270237
2918+375668379+375571125+375293472+374588369+373888355+373560361+373401722
2908+373114687+372832920+372798349+372845442+372579048+371860918+370907718
2898+370058015+369487264+369056133+368502090+367774830+367036924+366443908
2888+366072537+365883838+365648768+365091405+364162491+363082192+362172513
2878+361656794+361493681+361407361+361139524+360616263+359905495+359162140
2868+358569557+358179962+357829774+357306297+356606860+355981401+355658387
2858+355549116+355366371+355057972+354892369+354976777+354938488+354347781
2848+353303678+352335537+351784923+351474575+350996676+350210414+349362948
2838+348732437+348307116+347889554+347335728+346593059+345744835+345091589
2828+344898741+344997330+344882068+344238602+343228204+342310332+341845027
2818+341741097+341539371+340985400+340318117+339817916+339390574+338841295
2808+338234349+337704701+337159679+336416252+335507655+334697251+334240246
2798+334183373+334333062+334367272+334018167+333230858+332217862+331341851
2788+330832051+330578757+330288401+329816384+329212866+328517507+327726336
2778+326897564+326076405+325215984+324344124+323629603+323121751+322649048
2768+322103161+321609672+321317548+321171685+320961190+320519053+319851697
2758+319091164+318350408+317646135+316917468+316085267+315158229+314299576
2748+313722763+313511474+313542364+313546695+313305093+312815681+312172071
2738+311355135+310376601+309496874+308969247+308670158+308277027+307697579
2728+307093014+306600644+306229526+305949419+305707601+305358495+304737006
2718+303899392+303139149+302610096+302087485+301280346+300247935+299344047
2708+298849386+298743597+298761514+298664602+298488895+298405029+298333451
2698+297966555+297228631+296418208+295812976+295389514+294983103+294511771
2688+294028098+293688213+293602976+293633541+293462652+292928601+292155402
2678+291353316+290646896+290069541+289582800+289130649+288741812+288503566
2668+288406222+288331919+288217776+288112889+288050350+287947972+287663101
2658+287142926+286528961+286054544+285797136+285603529+285280876+284764526
2648+284091613+283323755+282547904+281906260+281559771+281550226+281703199
2638+281755940+281584437+281240239+280827675+280451397+280211635+280125730
2628+280067360+279867239+279491430+279058874+278665797+278286469+277886554
2618+277512242+277217249+277010471+276890265+276807157+276616329+276216955
2608+275733913+275415157+275319310+275240875+275005101+274662691+274304708
2598+273929927+273618767+273538564+273637803+273625570+273351616+272952368
2588+272590470+272264713+271904566+271559647+271441191+271685843+272084802
2578+272233336+271977912+271510604+271019497+270499466+269957513+269564093
2568+269470411+269610844+269799795+269923429+269962258+269940570+269924313
2558+269978732+270092694+270197870+270228959+270113986+269783898+269272131
2548+268769242+268483866+268423619+268400506+268288889+268138821+267991893
2538+267784267+267491692+267183455+266909916+266682623+266539159+266496252
2528+266463431+266302068+265984485+265655913+265486629+265462866+265394319
2518+265143912+264788618+264542342+264553421+264776529+265001513+265013530
2508+264783331+264521286+264453965+264524028+264455463+264143510+263778725
2498+263569673+263555004+263658068+263737586+263657292+263425704+263173655
2488+262974870+262800787+262604185+262345568+262010266+261649812+261328331
2478+261045410+260790076+260609191+260537666+260511990+260424462+260247942
2468+260082014+260057421+260167937+260224883+260042084+259627536+259119179
2458+258616001+258174044+257847854+257614714+257387186+257183042+257115469
2448+257173136+257218047+257225246+257290473+257376937+257298917+257008111
2438+256691141+256524401+256485157+256442141+256326645+256197021+256180565
2428+256320131+256478535+256493114+256409970+256422275+256591992+256776180
2418+256827965+256754329+256661532+256625950+256648865+256688579+256695129
2408+256631092+256493078+256318670+256178382+256159400+256309630+256578532
2398+256877241+257212670+257701828+258467232+259626128+261446949+264485235
2388+269506444+277227642+288116209+302414234+320278569+341797357+366789729
2378+394545458+423871114+453601233+482981885+511205662+536793649+558343327
2368+575891974+590305603+601439580+608224321+610124299+607331386+599809713
2358+586840066+567683061+542440931+512766603+483423770+461262057+451069445
2348+454130448+468968496+490592910+510760855+523665328+529749984+532023280
2338+532623875+532473321+531755046+530357688+528140759+524901992+520244936
2328+513950760+506461601+498407753+489826820+480417980+470270765+459759938
2318+449072827+438265798+427497816+416971002+406688606+396345042+385605857
2308+374543333+363642767+353381012+343950917+335322962+327399317+320127581
2298+313525620+307561820+302061989+296830862+291820894+287111873+282787323
2288+278890041+275450053+272519018+270160592+268347855+266896510+265606564
2278+264430527+263400425+262494968+261697699+261049235+260538424+260075194
2268+259622086+259226014+258911877+258640792+258343905+257943196+257396569
2258+256754185+256118820+255564669+255139745+254874615+254700982+254442871
2248+254011505+253546633+253249782+253145365+253101230+252997931+252790684
2238+252499914+252226645+252103950+252173688+252361069+252583220+252803675
2228+252970614+253014098+252956107+252927219+253020017+253221382+253514534
2218+253917012+254376849+254774672+255086499+255415305+255816376+256224248
2208+256599895+257010709+257509575+258063636+258636769+259229695+259830236
2198+260416595+260999597+261600318+262203656+262773144+263307303+263852089
2188+264426179+264962990+265400273+265793928+266253784+266781032+267229593
2178+267441567+267446222+267482616+267715738+267981789+267974391+267634145
2168+267185332+266827476+266555922+266273144+265926692+265505864+265039602
2158+264642195+264426395+264346553+264266945+264168283+264172469+264430292
2148+265029011+265938925+267139754+268847821+271384048+274791539+278853341
2138+283415885+288430364+293820327+299545972+305661842+312198992+319101197
2128+326287731+333749103+341597579+349920238+358531737+367044250+375205889
2118+382973134+390275074+396940476+402924485+408471986+413963336+419690623
2108+425883286+432812159+440645046+449177804+457795473+465792701+472798764
2098+478826221+483946633+488186235+491672667+494496975+496422683+496857025
2088+494971086+489951645+481393049+469403055+454449167+437312814+418951490
2078+400317781+382427175+366223092+352108334+339926934+329466485+320691873
2068+313591442+308027233+303659125+300048609+296947008+294306256+292029730
2058+290002925+288252419+286831604+285749140+285081207+284901693+285178082
2048+285930874+287343118+289665530+293163202+298067598+304527088+312762237
2038+323139542+335837201+350563488+366664904+383257644+399322395+414050270
2028+427144128+438746260+449196894+458725723+467227048+474380346+479771013
2018+482830969+483180399+481093925+477122665+471424898+463870277+454477387
2008+443442759+431044296+417753836+404219682+390974836+378255596+366126415
1998+354757368+344614484+336202401+329404018+323322070+317164122+311045761
1988+305531749+300851778+296920575+293649907+290946598+288674925+286742145
1978+285091564+283643828+282328243+281150852+280270746+279950257+280181503
1968+280371843+279772259+278342368+276810964+275810634+275357671+275191617
1958+275200350+275334774+275416691+275282069+274999165+274814851+274921705
1948+275391809+276372039+278009538+279795120+280450332+279332106+277424442
1938+276070478+275590883+275606563+275840514+276192687+276538454+276787075
1928+277103683+277991711+279759899+281831885+283348366+284459501+285730736
1918+286541014+285814963+284123838+283211615+283925234+285674061+287267877
1908+287936027+287835850+287660106+287808153+288161642+288568054+289227849
1898+290447949+292009755+293146440+293658604+294445804+295996316+297170675
1888+296711523+295140261+293760567+292989606+292560821+292295005+292158452
1878+292102228+292048513+292027655+292620545+294947359+299329631+303715204
1868+304673529+301431785+296835842+293588613+292158596+291742604+291613882
1858+291497140+291372243+291270081+291230963+291493802+292495215+294540677
1848+297778271+302095911+306014412+306612156+303201399+298953767+296704161
1838+296490563+296847607+297110302+298370025+301860841+306541137+309386664
1828+309301282+308193125+307145268+305401475+303030094+301425650+301253335
1818+301849816+302455824+303216519+304770639+307051334+308877477+309168410
1808+308290199+307622626+308371647+310951430+314594226+317467721+318207720
1798+317591824+317913611+320878406+325895429+329386697+327898219+323181691
1788+319764475+319544958+321361935+323564321+325664076+327442982+328387702
1778+328996561+331151925+336394456+343888017+349629053+349944705+346115628
1768+341478962+337974595+337032798+339350012+343123119+345319839+345780489
1758+346427708+347479859+348580330+351305255+357198614+364461399+368734851
1748+368401444+366105159+364753667+365428854+367797817+370488099+372015010
1738+373297648+377453600+385154987+390913308+389064393+382868987+377180530
1728+373249508+371532347+372237377+374508148+378072239+384626205+395476032
1718+407502980+413049001+409257310+401768260+395950034+393781317+395731564
1708+401357157+408518106+414366427+419201356+426265483+435997012+443302056
1698+444746399+442142871+436337637+429202888+425243465+426417301+431227942
1688+438425844+449130782+462464763+469790268+465149703+456386206+451384737
1678+452090994+457236848+463493565+468279416+472906195+478793743+482748691
1668+481340723+478347997+479526019+485355179+491383863+493936834+495019442
1658+499144143+509363352+526519805+545231281+551524844+546666026+545407277
1648+550394781+553839388+549215172+541377593+537220017+538555053+545243659
1638+556602024+568727814+573313887+568270015+562366733+561953573+566953924
1628+574416162+582252838+590564275+598678315+604214665+607733828+613449783
1618+623322015+633050982+636657583+636067923+636706806+639938175+643915533
1608+646757597+648257081+649258494+650361094+651660152+653310263+655714375
1598+659041880+662905998+666616818+669679156+672116973+674348878+676802357
1588+679641389+682652988+685348683+687408165+689205655+692022458+697537192
1578+706127327+714405311+717220742+716519572+719047535+726908642+736322715
1568+742812518+747387981+753656572+763486077+778498245+801633438+831434251
1558+851620925+853127483+849773274+849450440+851333890+853411415+854756086
1548+856250014+860317661+868320446+879091460+889829201+894216002+883993726
1538+865551134+852672138+847608923+844832899+839525160+833409145+830829506
1528+832539883+836229412+840438015+845871987+851297225+852260025+848178592
1518+843480289+839850520+836025737+832572505+832315855+837722761+849424169
1508+863707308+868345346+855640144+838767911+829063628+827273932+830683065
1498+835166940+835952264+832253280+829081599+830887895+836925240+841653640
1488+840187283+834056256+827897370+824219172+822878326+822807235+823963099
1478+827570206+834422322+843333559+850358460+850181273+842738197+834952295
1468+832084466+833796719+836092209+835838807+835164630+838597004+847698852
1458+858058763+859952317+851578198+842179860+837034800+835883771+836859850
1448+837559071+836258714+833605314+831467162+830769169+831933694+835688035
1438+841172457+844042379+841091044+835980267+833508745+833971524+834870594
1428+834668074+833831146+832760230+831458213+831286655+834026232+837845241
1418+836994816+829928271+821837290+816908680+815255465+814993618+814945911
1408+815532685+817001928+817828392+816619190+814891275+815261527+818021745
1398+821298223+823457882+823595879+821157917+817457923+815238865+815428754
1388+816158432+815508939+814493597+815476100+819023808+824048553+829446871
1378+834695644+839575609+843709657+846475866+847931541+849097510+850455389
1368+851542905+852628978+854954348+858483074+861063434+860899166+858649579
1358+855969041+853738940+852295246+852043359+853056175+854323548+854375369
1348+852871410+850879122+849815423+850753034+854095912+858972124+863250014
1338+865149414+864905250+864197585+864419015+865944987+868316332+870685440
1328+872594150+874517945+877172500+880429563+883673563+886878300+890255244
1318+893304951+895480272+897263689+899475313+902120991+904697165+907001244
1308+908990284+910395005+911084698+911539394+912534527+914435227+916759081
1298+918414606+918851546+918733903+918736429+918299561+916720035+914676071
1288+913252441+912233057+910543683+907747883+904396922+901502966+899878693
1278+899439370+899271061+898749893+898277948+898667110+900037908+901519133
1268+902168193+902082739+902214889+903301611+905426699+908158986+910545993
1258+911546972+911055324+910043734+909640282+910438020+912336338+914557056
1248+915993605+916001616+914856217+913177308+911147778+908720354+906337533
1238+904802106+904401541+904670894+905004771+905026711+904640509+904180040
1228+904200176+904855731+905679235+906177596+906467013+906933184+907312097
1218+906805870+905480685+904682875+905453836+907375971+909505029+911627735
1208+914017484+916624621+919036023+920936866+922429855+923994657+926186578
1198+929389005+933570905+937845475+940696416+941477048+941123541+940671516
1188+940224687+940173083+941838928+945626325+949851600+952899359+955350889
1178+958376635+961540449+963695995+964565257+964364252+963527902+963413434
1168+965577784+969998434+974974535+978609212+980117213+980253188+980482413
1158+981621172+983376008+985055422+986374616+987683851+989711576+992575724
1148+995229269+996828281+998068157+999626824+1000125617+997686501+993429108
1138+991536492+995099789+1002437636+1008420634+1009935203+1008467980+1007034318
1128+1007269244+1009442905+1012816601+1015998747+1018381785+1020675615
1120+1023436555+1026094430+1027922522+1029000944+1029704495+1030031082
1111+1029901458+1029598400+1029359649+1029513523+1031371784+1035909356
1103+1041274113+1044293002+1045024918+1046140654+1047474211+1045733232
1094+1040150943+1034307385+1031655861+1032630352+1036132301+1041137055
1085+1046144407+1049177947+1049991130+1050870930+1053727356+1057129993
1077+1057548746+1053903388+1049231500+1047077182+1048330915+1052080709
1068+1057327245+1062909317+1067177969+1068567389+1066354970+1061506473
1060+1056856887+1055625385+1059123580+1065605806+1071379933+1073741823
1051+1073281714+1072672134+1073120262+1073393801+1072329958+1070369210
1043+1068598856+1067570162+1067105795+1066934671+1067434620+1069024610
1034+1070521857+1069777167+1066869209+1064502483+1064355032+1065146563
1025+1064819543+1062988564+1060635695+1058802479+1058097412+1058528290
1017+1059757195+1061526538+1063415545+1064625107+1064607136+1063636397
1008+1062336906+1061208612+1060961994+1062138356+1063691682+1063216128
1000+1059774661+1055175164+1051672204+1050005565+1050001956+1051245079
991+1052314769+1051305922+1048523908+1046919482+1048587998+1051918750
983+1053531187+1052772423+1051722221+1050968870+1048698857+1044343452
974+1039789569+1036251461+1032953836+1029732788+1028032587+1028050775
965+1027559704+1024964404+1021371949+1018436276+1016214836+1013811373
957+1010590397+1006454978+1001902683+997875308+995042339+993385948+992008654
947+989275790+984540101+979624843+976750446+975639329+974668085+973782728
937+973872368+974404000+974188994+973519510+973451522+973830579+973384328
927+971589291+969672281+969273881+970657166+972990258+975790100+978782501
917+980811237+980676560+979054885+978003601+978298720+978038822+974669456
907+968652319+963489649+961670435+962540996+964116696+965146257+965353684
897+965298255+965671755+965744001+964020055+961080269+959517055+960312555
887+961439622+960653360+958036263+955595270+955466945+958165671+961737123
877+963324443+962175580+960008270+958518601+958112406+958767457+960575196
867+962889307+963888338+962414186+959889688+958737360+959179786+959199489
857+957631295+955591878+954561163+954690859+954956387+954112891+952175599
847+950867303+951350941+952530623+953108663+953610200+954673465+955288387
837+954512445+953064349+951972935+951079567+949804615+948685415+949114128
827+951560822+954557049+956207521+956579361+957060472+958429611+961096869
817+965202047+969088250+969936654+967493784+965223771+966334527+969921858
807+972123522+970747816+967426663+964959398+964328382+964873800+965728988
797+966317566+966394359+966247774+966282851+966144205+964964739+962701005
787+960534851+959882182+961374738+964239825+966612036+967213028+966603231
777+966009384+965668146+965152824+964392472+963543058+962496465+961341033
767+960839208+961712656+963609891+965476524+966885575+968206646+969664991
757+970790254+971194933+971409506+972174838+973505796+974903877+975903846
747+976393546+976598736+976276985+974686706+972321928+971373130+973007941
737+975394370+975809370+973600416+970374100+968572856+969687798+972583414
727+974509735+974605293+974180406+973653897+972382915+971048564+971201573
717+973029882+975577909+977614439+977693469+975346014+971694521+967770643
707+963547316+959125728+955514219+953608107+953024942+952487751+951442818
697+950844280+951414454+951898885+951044995+949870510+949320328+947936539
687+944398791+939538891+934097846+928042096+923388397+924276208+932217933
677+942850445+949099188+947991968+942714686+937324091+932811347+928972707
667+926540014+924694744+921878014+919695764+921241007+926636943+931998741
657+932971428+927765526+918255246+908387777+901446742+898540733+898717271
647+901862175+908355948+915218458+916803468+910731840+901446887+895888054
637+896320520+899085285+899775123+897461301+892790279+885688080+877363761
627+871644053+871584726+876106637+882482983+889951103+897262534+898671657
617+888316870+870400209+856469278+853601232+860614801+871300000+879085541
607+880908365+878920696+877392703+878663974+882032185+883192957
##END=
