##TITLE=<SNM>
##JCAMP-DX=4.24
##DATA TYPE=INFRARED SPECTRUM
##DATE=3/5/2025
##SAMPLING PROCEDURE=Instrument type and / or accessory
##ORIGIN=Admin
##XUNITS=1/CM
##YUNITS=ABSORBANCE
##RESOLUTION=4
##FIRSTX=4497.3318
##LASTX=599.83466
##DELTAX=-1.4281778
##MAXY=1.8135004
##MINY=0.28775328
##XFACTOR=1
##YFACTOR=1.6889539e-09
##NPOINTS=2730
##FIRSTY=0.30934703
##XYDATA=(X++(Y..Y))
4497+183158960+183222995+183394244+183434193+183638704+184206146+184608003
4487+184271010+183460873+182981164+183223895+183752605+183748900+182934369
4477+182044827+182087106+183122751+184167732+184375224+183886022+183231730
4467+182456672+181439501+180664548+180826816+181819477+182878450+183499764
4457+183615288+183280502+182687862+182088870+181449311+180545230+179502985
4447+178902723+179172786+179999333+180549394+180370099+179801863+179416381
4437+179448302+179822473+180288295+180474578+180139614+179397024+178571147
4427+177840785+177106841+176275476+175561648+175278315+175337833+175296137
4417+174967985+174680188+174821299+175441536+176371997+177341772+177895239
4407+177680176+176967654+176419022+176285728+176302986+176209694+175865979
4397+175164555+174346460+174044952+174550706+175301219+175426925+174708491
4387+173774695+173291563+173201218+173023635+172621460+172176689+171647026
4377+170916982+170373679+170670210+171905479+173509537+174863383+175609167
4367+175589704+174997594+174375240+174028031+173777624+173567202+173658976
4357+174027872+174304411+174414218+174513174+174381345+173684686+172694406
4347+172076622+172077451+172383917+172715651+173176038+173915541+174675936
4337+174933665+174511709+173866363+173658729+174033218+174393573+174070221
4327+173173268+172473115+172479520+173002513+173596564+174004209+174064645
4317+173665329+173054126+172823536+173309597+174224442+175036732+175506930
4307+175688148+175605885+175196423+174569781+174133144+174219466+174599178
4297+174628716+174072903+173555203+173930734+175365925+177244440+178799709
4287+179548087+179320584+178348356+177270185+176654888+176529465+176637614
4277+176953379+177570492+178355273+179081012+179601305+179685739+179145065
4267+178247371+177553094+177340555+177517750+177889945+178178801+178031779
4257+177432964+177004603+177469860+178730785+179862758+180232535+180123451
4247+180031430+180055305+180248116+180745894+181357555+181772964+182041051
4237+182190296+181839858+180825881+179685933+179031693+178926173+179161105
4227+179746227+180851114+182325266+183473719+183622629+182900119+182004948
4217+181253412+180562734+180218701+180706386+181774587+182545781+182656700
4207+182624903+182982647+183583862+183921295+183819128+183608601+183634434
4197+183835980+183958739+183938641+183927965+184134364+184651375+185220476
4187+185311156+184734821+183961104+183553388+183590055+183881417+184380924
4177+185075536+185769443+186252875+186515633+186674971+186809994+186859454
4167+186666607+186243117+185864516+185637561+185251743+184589140+184192735
4157+184592422+185544164+186399208+186889381+187196817+187528481+187890477
4147+188123202+188026153+187594475+187184801+187222738+187636400+187889400
4137+187767294+187661421+187839023+188056062+188159852+188410100+188918253
4127+189325403+189247640+188687098+187973375+187548967+187732162+188486310
4117+189428612+190191053+190776387+191414764+192025172+192115852+191457642
4107+190575159+190256976+190777040+191767478+192618412+192903297+192653032
4097+192267956+192050494+191948362+191843813+191823203+192036695+192518980
4087+193142516+193605409+193659228+193455758+193356626+193386800+193329805
4077+193301396+193600627+194071566+194277824+194198119+194122561+194071990
4067+193939455+193877713+193953183+193836600+193376830+193014464+193158662
4057+193602709+193884383+193892589+193927050+194320243+195021684+195538290
4047+195447910+194908930+194421157+194246132+194338665+194576402+194765490
4037+194704137+194501268+194569573+195098195+195796584+196282239+196459487
4027+196474627+196572453+197000620+197803187+198702857+199295055+199335075
4017+198939253+198582974+198638275+198842909+198633122+197988499+197428451
4007+197291152+197570850+198282790+199441548+200745087+201611424+201578833
3997+200699191+199588464+198891804+198651227+198491306+198364224+198650997
3987+199488608+200433874+200929199+200847871+200465918+200088676+199890377
3977+199999549+200457590+201056758+201464808+201533943+201322675+200958014
3967+200649201+200586595+200722730+200917959+201234606+201740765+202153969
3957+202043967+201328215+200403030+199862762+200077595+200901355+201800972
3947+202327158+202398234+202212569+202076487+202210875+202560078+202882690
3937+203052368+203174457+203387649+203642326+203776678+203780948+203798523
3927+203901660+204052705+204175447+204183476+204072892+204021049+204243188
3917+204693288+205030580+204997565+204739148+204625900+204767257+204861696
3907+204694064+204525038+204758011+205444859+206318732+207042724+207242329
3897+206759974+205994356+205558337+205653111+205965717+206233875+206682351
3887+207460197+208146163+208344181+208340863+208463270+208417039+207895810
3878+207232483+206936551+207268144+208257030+209566744+210566182+211020093
3868+211326629+211670062+211824036+211873144+212145889+212468201+212431763
3858+212157659+212185362+212796106+213546072+213832157+213635799+213143174
3848+212599183+212345759+212649719+213414896+214276010+214974117+215408441
3838+215555287+215646955+216045724+216744377+217332288+217513030+217463870
3828+217536551+217911005+218651319+219673096+220436772+220351210+219909474
3818+219966221+220402470+220702195+221016213+221681728+222600649+223622567
3808+224716937+225694952+226401229+226809067+226687967+226108544+226000095
3798+226930768+228284526+229193513+229688467+230393984+231542773+232821519
3788+234023544+235437596+237372047+239655349+241947014+244194001+246551060
3778+249178342+252158585+255419161+258955129+263128062+268194419+273586652
3768+278460761+282706288+286691897+290744736+295381638+301306921+308627835
3758+316391790+323730173+330993457+339155105+348637513+358646532+367937170
3748+376570940+385664902+395592646+404964065+412817165+420474718+429417141
3738+439765447+450733636+461771807+472755207+483080785+491576214+497503174
3728+501110571+503251068+505066677+507677848+511257366+515041464+518839043
3718+523479545+529566337+536958468+545229730+553688280+561605962+568822979
3708+575499094+582096086+589137637+596084468+601473806+605040019+608095290
3698+611620989+615650218+619424011+621971800+623827394+627102669+632147004
3688+635910986+636364051+634927924+633738904+633722600+634813652+636830949
3678+639276253+640457015+639065072+636748439+635754930+636776177+639643560
3668+643281696+646150419+647828782+649536507+652789478+657840589+663258443
3658+666506826+666367004+665148128+666056868+669906819+675192685+678854324
3648+679169471+678471136+679533744+682556547+686626149+691526568+697153979
3638+702207349+704756126+703592868+698774818+692007018+686927392+687815310
3628+695429950+705406113+713608769+718406350+719005095+716613363+715350020
3618+718028667+722810227+726720667+728919852+729398043+728245938+726734501
3608+726126792+726134344+725824702+724981462+724058959+723595308+724276845
3598+726905803+731280458+735783855+739399969+742825300+746076154+746866105
3588+743571491+738775744+735928195+735441251+736395375+738055740+739671144
3578+740941545+741992224+742093156+740466530+738420859+738595408+741563229
3568+744420518+744416636+742875413+742590899+744020814+746247315+748414738
3558+749568114+749189867+747546936+744755640+741132398+738510357+738916696
3548+741831792+744257616+744419530+743967101+744666566+745662263+745579682
3538+745266440+746704190+749927799+753173923+755225170+755836619+755163340
3528+753501846+750665519+746307380+741814358+740238974+742786057+746902242
3518+749062326+748405422+746581590+744853961+743236651+742152021+742734250
3508+744721761+745647723+743656471+740815556+741314004+745785781+750088655
3498+750674342+748805479+747828628+748605097+749724453+750562117+751489067
3488+752206954+752596283+753985402+756935718+759245011+758913842+757360055
3478+757183742+758834225+760824277+761258849+759308394+756231101+753761869
3468+752208718+751438813+752237939+755243874+758894996+760464522+759274161
3458+757000371+755907272+757135817+759212755+759589027+757947789+755702937
3448+753107718+749936057+748329899+751363502+758424781+764393172+764734576
3438+759793290+752445026+744998653+739958765+739950436+744730725+750613359
3428+754414115+756054011+756380169+755371839+753698275+752735540+752295746
3418+751233985+750304988+751442271+753960204+754734203+752723118+750167000
3408+748855168+748428361+748338722+748629166+749598465+752710766+759837545
3398+769552414+776120397+775129430+768466585+760660881+754047514+749749510
3388+749096981+751862162+755562268+757703506+757475033+755607088+753975450
3378+754254600+755642308+755411858+752834355+750384604+750290730+752136443
3368+753887858+753852284+752166510+751210763+753505940+758862246+764640914
3358+768390357+769188001+767485781+765064757+764049016+764599059+764431004
3348+761476735+756569469+752650348+751345786+752211330+754537068+757699201
3338+760177537+760079287+757365137+754636800+754825112+758078577+761503485
3328+762813271+762643169+762371570+762198927+762094678+762438482+763112608
3318+763487114+763199988+762105759+760119448+757918427+756971997+758145912
3308+760365214+761052609+758608364+754672656+753183523+756794272+764092917
3298+770464330+772280963+769901370+766273187+763973917+763786381+764943074
3288+766627013+768885841+771047335+770964190+767566174+762388510+757654805
3278+754328782+752779230+753398797+755568620+757558178+758583096+759890975
3268+762713327+765909479+766958042+765084238+761833949+758778536+756359065
3258+754905435+755151200+757307401+760342839+762841433+764543582+765909127
3248+766705924+766879272+767633862+769708471+771699228+771585168+769161886
3238+766101109+764118539+763498337+763107314+761475182+758226305+754789680
3228+753012221+753054499+753923078+755584007+758326178+760527622+759725673
3218+755754250+750719514+746860882+745553849+746566556+747775621+747381281
3208+746311826+746948544+750074468+753795819+755449902+754594522+753161572
3198+752521536+751947636+750456456+748825030+748570512+749755932+751085975
3188+751695589+751612726+750939023+749933516+749305692+749205748+748805973
3178+747725931+746825520+746931110+747685488+748132411+748025621+747904574
3168+747741953+746659582+744476348+742393905+741353036+741284572+742352403
3158+744687952+746829402+746475858+743371462+739694012+737249414+735965815
3148+735216872+734879844+734766490+734425227+733890500+733448306+732713762
3138+731453242+730686584+731164210+731710089+730915974+729463049+729137809
3128+730461851+732212631+732642756+730820830+727254829+723464520+720549776
3118+718462816+716980599+716395265+716793064+717627622+718516811+719531423
3108+720229547+719723970+718262152+717160300+716786641+716047862+714229747
3098+712278938+711615258+712200240+712855238+713254166+714132274+715423637
3088+715931472+715142157+713697984+711912337+709482137+706786621+705065768
3078+705029348+706015868+706545937+705696063+704028710+702761909+702223018
3068+701994192+702320209+704111009+707352757+710308932+710566484+707331582
3058+702712714+699747011+699543524+700979297+702308351+702485794+701573666
3048+700358672+699281383+697817094+695454230+692842847+691135263+690657425
3038+690836279+690992688+690573079+689059737+686643300+684670400+684349112
3028+685270980+686019570+685899228+685340573+685008557+684975383+684575114
3018+683216910+681324190+679951235+679610889+680132206+681080119+681570309
3008+680762360+679211326+678291787+678080960+677262847+675065708+672280765
2998+670363836+669829391+669568662+668259159+666203254+664849214+664782232
2988+665022492+664295077+662455788+660546058+659541962+659446677+659761683
2978+659951266+659358308+657648748+655469749+653923162+653455629+653874814
2968+654823009+655646839+655531720+654366133+652966427+651978847+651112386
2958+649911508+648655506+647865979+647529304+647482085+647878119+648472064
2948+648145271+646184793+643356230+640838085+638967669+637546647+636674257
2938+636641366+637289589+638002182+638222679+637604524+635890518+633274123
2928+630704737+629232049+629137822+629771576+629885142+628383374+625379839
2918+622292735+620531439+620443776+621518807+623006740+624236133+624688420
2908+624018388+622340237+620582116+619785743+619765133+619230970+617392457
2898+614671179+611918985+609809015+608733349+608531697+608464221+607908319
2888+606996615+606312255+606152669+606245414+606003530+605005434+603322695
2878+601394472+599665291+598451426+597893266+597743562+597488550+596873571
2868+595906602+594421633+592407300+590681930+590310211+591272946+592380550
2858+592453320+591166615+589047151+587078344+586084871+586146313+586528160
2848+586295099+585167979+583612676+582081052+580670582+579530369+578841527
2838+578263921+577261661+576150634+575872753+576572395+577188961+576625190
2828+574875116+572903062+571664176+571261472+570934044+569882376+568054062
2818+566105547+564666527+563817429+563280514+562760432+562071766+561284074
2808+560732266+560517239+560123781+558957206+557042500+554885205+552994320
2798+551669077+550940956+550662158+550628491+550506561+549967105+549120689
2788+548377851+547757367+546865532+545555711+544139171+543038978+542472419
2778+542289083+542048187+541397106+540329381+539013914+537551072+535983805
2768+534462063+533255151+532414663+531582858+530482700+529331688+528377706
2758+527456226+526469140+525769852+525525604+525203610+524153848+522350873
2748+520355245+518877758+518373804+518601112+518598572+517541081+515616211
2738+513720492+512400048+511464594+510543925+509568874+508593823+507519428
2728+506253862+504961828+503855071+502794192+501407120+499700948+498260587
2718+497598071+497482317+497148854+496114937+494583737+493099968+492046959
2708+491460707+491097035+490604445+489759970+488648907+487574018+486740730
2698+486098295+485498386+484847940+484072211+483124581+482115086+481296902
2688+480807453+480451016+479878033+479040581+478257265+477709551+477169353
2678+476375979+475348274+474191969+472948636+471754005+470837078+470255026
2668+469804785+469244295+468507634+467688568+466897135+466166579+465441104
2658+464666682+463951159+463495378+463273540+463009917+462553535+461958708
2648+461146665+459923342+458410670+457047419+456086166+455393901+454784992
2638+454288485+454002241+453875935+453749558+453467408+452866687+451879001
2628+450758551+449926110+449450319+448927379+447993794+446793905+445845075
2618+445510941+445644799+445756106+445495342+444883399+444133750+443431956
2608+442826823+442168190+441261744+440185867+439266504+438676053+438308040
2598+438036582+437791276+437427391+436839622+436136946+435504604+435040917
2588+434807645+434808986+434869051+434720617+434226722+433461263+432667007
2578+432130585+431968918+432015537+431954590+431577577+430952259+430336045
2568+429913543+429713161+429698304+429724948+429576197+429259956+429021742
2558+428941985+428867698+428746579+428653059+428538963+428245414+427708110
2548+427082721+426692086+426698898+426840626+426742482+426374151+425928816
2538+425524665+425264959+425243114+425327989+425281228+425145747+425183049
2528+425409863+425520500+425348175+425140735+425178179+425304802+425129230
2518+424569764+423896944+423371287+423148354+423343795+423853819+424283661
2508+424324740+424042519+423634098+423145072+422579289+422044032+421613696
2498+421235660+420918042+420833520+421055712+421333239+421330028+421014492
2488+420648420+420463354+420452555+420393549+420048687+419443978+418876077
2478+418546778+418362701+418186741+418037213+417943304+417858183+417772426
2468+417718184+417664753+417532554+417276907+416945667+416699689+416689314
2458+416855569+416960136+416822925+416454841+416009894+415640716+415339897
2448+414991894+414616717+414377833+414326696+414352741+414354682+414287523
2438+414126597+413901794+413687367+413517653+413346987+413069389+412646181
2428+412276262+412242947+412519310+412774922+412779545+412535191+412126875
2418+411729077+411593842+411795106+412116288+412284273+412204621+411979501
2408+411780566+411668941+411529225+411232499+410828136+410550609+410632484
2398+411036599+411405918+411432457+411201972+410969653+410737792+410304843
2388+409590415+408662265+407514112+405937810+403507717+399675764+394117699
2378+387119168+379496270+372056779+365193341+358905144+352992618+347258240
2368+341769628+336953872+333268482+330877526+329811742+330253054+332470979
2358+336605516+342633372+350622130+360853941+372866775+384283264+391786985
2348+393408177+389867162+384378197+380205546+377752125+375489345+372734928
2338+369760755+366590189+363059373+359496160+356678220+355181252+354927369
2328+355354283+355890280+356265916+356676631+357741957+359997643+363286152
2318+366784677+369683292+371836882+373756952+375898896+378097376+379972238
2308+381620286+383396052+385263433+386917481+388332044+389699848+390990858
2298+391936512+392393599+392566595+392846487+393409659+394040412+394473996
2288+394802625+395301567+395925015+396271536+396093035+395594093+395136970
2278+394866607+394726467+394621124+394473643+394326551+394383228+394712033
2268+394985255+394806577+394225654+393667988+393441703+393531730+393789177
2258+394109865+394428894+394671731+394774145+394738572+394621124+394440505
2248+394187187+393983665+394096807+394641239+395365267+395881925+396049451
2238+396020795+396003573+396079378+396225623+396408712+396587919+396688357
2228+396683098+396648019+396641138+396652431+396753151+397080297+397577192
2218+397981626+398139623+398129318+398084922+398096498+398260635+398648200
2208+399183209+399653072+399932293+400156602+400548789+401097527+401569366
2198+401841317+402069226+402476941+403068910+403650821+404125942+404596193
2188+405089065+405428104+405545976+405673129+406016580+406477196+406828834
2178+406993431+407092422+407358691+407950237+408776467+409651186+410610215
2168+411809681+413156663+414417535+415659456+417185856+419070212+421134657
2158+423341783+425843447+428642613+431476681+434085382+436457598+438747799
2148+441005674+443127537+445108625+447129239+449279688+451437548+453507569
2138+455521407+457502283+459531190+461840130+464518707+467305627+469946654
2128+472504960+475106602+477667202+480010233+481978193+483350443+483886440
2118+483516098+482379167+480673983+478522617+475966605+473049568+469900988
2108+466747784+463796338+461060061+458357381+455521583+452535023+449444743
2098+446289740+443134030+440040751+437038592+434222804+431803686+429910684
2088+428406270+427026785+425675604+424457610+423432481+422486580+421503835
2078+420522784+419658370+418979197+418481349+418083233+417675764+417249698
2068+416896824+416633096+416346675+415984273+415646786+415415949+415231836
2058+415031420+414859341+414731624+414579132+414444815+414503645+414754422
2048+414910972+414712990+414215883+413753643+413675686+414048957+414582167
2038+414916724+414973119+415000964+415362907+416203923+417235687+417972984
2028+418241230+418270098+418276979+418198987+417868805+417257497+416488403
2018+415705934+414990729+414373210+413843458+413321083+412703034+411971278
2008+411187362+410397447+409629553+408928923+408296264+407649770+406950305
1998+406318317+405907107+405685587+405486087+405265943+405140343+405115639
1988+405012060+404709618+404275469+403824099+403410032+403051441+402733894
1978+402437627+402220200+402153641+402155088+402046216+401801262+401568201
1968+401425061+401280157+401060189+400841915+400721503+400671743+400594950
1958+400443023+400220902+399934269+399598618+399264766+398992850+398806762
1948+398675232+398556690+398488579+398557220+398704524+398690902+398406316
1938+398073664+397997789+398206040+398431655+398423997+398193653+397940018
1928+397814629+397810924+397839439+397853414+397904233+398043208+398161927
1918+398073770+397823593+397695382+397804748+397944641+397879635+397627235
1908+397407655+397385775+397513598+397621765+397628223+397608637+397685147
1898+397896116+398140788+398257883+398217616+398138176+398065865+397933630
1888+397758199+397627270+397507952+397323628+397146326+397125646+397295042
1878+397546772+397736954+397804042+397822570+397906456+398055842+398147705
1868+398073770+397844909+397544725+397274856+397159102+397271574+397533079
1858+397783291+397952546+398086546+398261835+398525952+398834677+399082913
1848+399274718+399511520+399743205+399789224+399704420+399743452+399968996
1838+400226407+400384228+400480360+400643722+400921778+401273170+401720799
1828+402318379+402919241+403256552+403297383+403290501+403456898+403849509
1818+404410633+404995932+405480900+405921330+406466079+407094398+407602234
1808+407894548+408114233+408447414+408975331+409705004+410574113+411455820
1798+412318964+413297650+414459143+415613260+416499237+417203572+418105536
1788+419359527+420816404+422316937+423847113+425430897+427005999+428475652
1778+429837526+431220081+432735083+434284316+435633310+436779698+437961060
1768+439275680+440700337+442267922+443973635+445684995+447283425+448811448
1758+450397491+452104227+453846855+455464483+456916808+458345347+459890451
1748+461486798+462970179+464312926+465668872+467213200+468947534+470720689
1738+472472704+474328192+476398813+478577318+480640386+482611028+484645900
1728+486741930+488820950+490923157+493166068+495624747+498337062+501287625
1718+504285408+507022073+509452026+511830524+514339952+516959840+519581281
1708+522192064+524902826+527775502+530825304+534193958+537982574+541901236
1698+545647397+549412015+553323302+557220331+561151345+565333877+569711039
1688+574020830+578208056+582393905+586640279+591085375+595904978+601073396
1678+606486097+612049702+617453087+622225965+626413297+630625544+635357837
1668+640566134+645927663+651236610+656276075+660870169+665343780+670225989
1658+675435839+680521817+685501641+690860700+696309257+700884576+704825790
1648+708803423+712960476+717147313+721324834+725315667+728764855+731628285
1638+734140712+736147492+737188502+737643472+738367147+739513747+740732623
1628+741626399+741989966+741789584+741036124+739994902+739155403+738379992
1618+736576064+732929177+728526147+724920691+722035592+719157622+716067625
1608+712981791+710142500+707671857+705671994+704266571+703408932+702771650
1598+702022283+701080864+699985506+698716094+697342291+696156165+695376096
1588+694828805+694167384+693258009+692188484+691218267+690783272+691099125
1578+691782992+692213258+692467705+693403054+695443290+698215881+700986849
1568+703474644+706283585+710014747+714638486+719792364+725158622+730490225
1558+735952969+742403786+750193186+758776984+767299022+775454529+783572205
1548+791606312+798798379+804294296+807729932+809638462+811276664+813687877
1538+816837446+820014330+822432954+823560991+824173782+825818407+828524722
1528+831200758+833566799+836181570+838957761+841424875+844162105+848068592
1518+852772159+857370347+861432184+864908405+868018095+871149454+874396355
1508+877253080+879000119+879707700+880156318+880784989+881903004+883781043
1498+886143484+888213082+889655490+890750777+891561197+891825455+891652953
1488+891782682+892609900+893730950+894881855+896443123+898721784+901209014
1478+903103921+904341501+905470244+906540616+906975541+907035677+907756881
1468+909123202+910170847+910781237+912143253+914409350+915986358+915809339
1458+914611990+914248636+915523977+917564283+919402373+920458134+920449947
1448+919447404+918038098+917232761+917446623+917813578+917303413+916112770
1438+915144953+914877519+915371168+916519956+917873572+918981141+920039373
1428+921539446+923231926+924384172+924771525+924702637+924377326+923742090
1418+922922213+922237147+921686892+920964487+919933288+918809133+917896088
1408+917336445+917114042+917101055+916973373+916135850+914112978+911436589
1398+909661176+909740863+911020933+912280746+912799875+912095046+909683621
1388+905820753+901859212+899096855+897904800+898517450+901349542+905977374
1378+910735501+913990659+915654836+917096397+919523844+922864759+926291714
1368+928985396+930289746+930047015+929077646+928794048+929960976+932168561
1358+934630381+936750374+938147398+938898035+939427186+939894085+940236335
1348+940720173+941611409+942507232+942886962+943018244+943579298+944850404
1338+946725620+948963343+951108604+952687871+953625619+954065273+954103599
1328+954220129+955084191+956324594+956585464+955386140+953916063+953636771
1318+954841178+956634448+957925317+958422848+958761146+959571001+960703838
1308+961447769+961184923+960011855+958923414+958852691+959403511+959202847
1298+957570997+955156819+952925943+951278142+950128859+949306935+948703038
1288+948152147+947358032+945987053+943746436+940586280+937006374+933774084
1278+931242670+929347903+927995557+926742943+924592106+921118426+917432860
1268+915225628+915107333+916107264+916447257+914841310+911348291+907078096
1258+903285810+900794275+899656357+899126500+898346783+897262365+896628400
1248+896871131+897319819+896986109+895885175+895110187+895714790+897830266
1238+900664193+903133777+904694622+905586775+906186084+906484786+906494597
1228+906519230+906604634+906565955+906757867+907742553+909160469+910170847
1218+911046907+912893537+915674387+918084470+919708556+921722818+924808439
1208+927748804+928939800+928436058+927649142+927871263+929871479+933806128
1198+938419138+941425638+942039205+941869879+942449002+943599555+944900870
1188+946874406+949706992+952430247+954337507+956001048+958285919+961291148
1178+964399850+966779866+968204841+969601512+971908829+974477086+975920906
1168+976291249+976776357+977732175+978806288+980269941+982357396+984121445
1158+984566322+984342225+985270939+988287391+992409575+995731434+997251835
1148+997470850+997098885+996005856+994171719+992809492+993551729+996682099
1138+1000964858+1005190939+1008655726+1010323431+1009687701+1008502563
1130+1009246565+1011821246+1014088331+1015060453+1015355344+1015537656
1121+1016081559+1017594055+1019637749+1021105284+1022002590+1023053905
1113+1024415497+1026265515+1028796293+1030800250+1030991315+1030829965
1104+1032610107+1035426106+1036707306+1036615055+1037074825+1037609199
1095+1035921731+1032134457+1029398638+1030644406+1035982996+1042877843
1087+1048220386+1050446816+1050440182+1050325557+1051228368+1051886825
1078+1050153126+1046651566+1045463252+1050015138+1057991439+1062059417
1070+1058942245+1054408992+1055351400+1061576850+1067209201+1067820580
1061+1064366734+1060638960+1059343432+1060773912+1063929057+1067950874
1053+1071836681+1073741823+1072620138+1069767577+1067311968+1066616597
1044+1067944381+1070103899+1071426248+1071561130+1070954409+1069441278
1035+1067269690+1066386642+1067501551+1068134246+1066684779+1065214632
1027+1066078764+1068088015+1068219861+1065816977+1063143552+1062562735
1018+1064283871+1066150405+1065612925+1062473026+1058842655+1056270727
1010+1054186660+1051723499+1049645220+1049614446+1051985286+1055035335
1001+1057038021+1058163588+1058919659+1058158012+1054967294+1050978861
993+1048253277+1046742122+1045651070+1045135400+1045582747+1046926058
984+1048555226+1049006596+1046887309+1042813896+1038982579+1036573765
975+1034620769+1031307239+1026303064+1021724992+1019901937+1019987129
967+1018401510+1013631032+1007857164+1003028950+998319172+992551656+987067879
957+984105988+983407158+982191246+978604142+973988026+970968680+970601585
947+972108999+974059454+975263438+975162435+973877353+972089942+970512158
937+969306128+968326100+967436559+966371551+964997042+963733629+963154859
927+963403942+964454410+966134255+967624447+968063748+967658821+967496835
917+968408328+970219032+971583800+970940095+968401340+965844870+964463374
907+963290235+960880292+957635438+955257681+954152230+952888111+950838841
897+949665208+950867144+953527228+955866025+957366381+958049753+957688869
887+956352192+954313438+951944080+949911820+948567732+947543027+946727596
877+946792884+947795286+948578814+948391349+947167744+944509565+940759064
867+938025504+938200476+940627005+942615928+942239586+940381875+939592842
857+941205775+944288503+947256324+949339826+950285057+950421632+950843429
847+951967866+952868348+952775180+952092231+951341947+950253295+948604576
837+946855702+945716654+945700985+946777709+948268889+949452051+950026092
827+949856484+949303900+949407726+950532304+951595689+951483534+950408363
817+949432570+949668596+951751463+955076992+957980653+959605163+960905631
807+962424479+962877614+961441770+959384312+957989264+957091324+956485379
797+956868427+958733831+961760870+965417145+968900988+970856102+970125440
787+966954133+963330608+961690641+962721205+964522804+964648157+962730875
777+960553428+960429840+963560422+968435643+971318554+970101090+966751281
767+964693753+965361950+967777821+970206821+971802674+972669700+972540183
757+970890829+968512789+967170607+967695382+969306622+970555565+970663838
747+970222137+970397956+971515124+972828085+973389704+973431418+974530517
737+977417451+980449289+981504345+980479216+978334096+975381450+972038841
727+969296176+967481872+965753467+963670953+962171656+962261224+963846489
717+965826307+966788901+966555558+966709708+968234626+969620569+969310574
707+969003473+970910168+973212968+972856953+970271686+967316852+964275132
697+961843450+962245202+965174696+966122468+961466756+952990313+945388096
687+941096021+939135049+937670760+935790674+933300551+930808522+929718457
677+930714436+933272742+935948848+935078858+926070864+909746721+897237450
667+900762019+914680525+925488212+928280072+926028939+924440214+926486661
657+930741751+933466065+932279163+928254663+924784583+924432309+926659445
647+929012287+930269489+930515678+929120560+927012495+927786777+931381575
637+932257141+928293130+924941909+926502048+929288121+927141801+922227265
627+921896943+926411350+928562329+923221550+912205647+901256586+895854119
617+898189739+904902344+911507100+919028572+928072562+933098617+931433593
607+926621543+922688093+922592949+926217321+930504173+932322500
##END=
