##TITLE=<SNM>
##JCAMP-DX=4.24
##DATA TYPE=INFRARED SPECTRUM
##DATE=2/5/2025
##SAMPLING PROCEDURE=Instrument type and / or accessory
##ORIGIN=Admin
##XUNITS=1/CM
##YUNITS=ABSORBANCE
##RESOLUTION=4
##FIRSTX=4497.3318
##LASTX=599.83466
##DELTAX=-1.4281778
##MAXY=1.8464155
##MINY=0.31880003
##XFACTOR=1
##YFACTOR=1.7196085e-09
##NPOINTS=2730
##FIRSTY=0.33242604
##XYDATA=(X++(Y..Y))
4497+193314961+193879133+194285923+194407828+194015804+193007650+191688441
4487+190705641+190624498+191665131+193615391+195675322+196728468+196278437
4477+194834688+193182934+191861871+191367247+192028264+193452949+194784411
4467+195661475+196285594+196624482+196346582+195570886+194939418+194748242
4457+194654152+194455436+194499665+194944912+195253419+194890043+194104937
4447+193677211+194139321+195302535+196305871+196370290+195753762+195510038
4437+196085353+196793788+196958864+196826508+196950389+197322674+197504423
4427+197282328+196786786+196055180+195034444+194074209+193706015+193797244
4417+193759428+193714576+194407309+195751353+196570202+196160223+195220699
4407+194784567+194955796+195170006+195120543+194815312+194106046+192882937
4397+191615998+191111340+191645304+192584638+193013369+192751551+192545296
4387+192948967+193307248+192537723+190793231+189446934+189358859+189917884
4377+190040014+189527020+188856350+188079164+186943558+185945092+186054103
4367+187279985+188496024+188815900+188351346+187616898+186937233+186378711
4357+185872441+185568301+185985924+187398095+189246468+190582540+190874028
4347+190161746+188903802+187829669+187430868+187524230+187742269+188275974
4337+189409205+190540287+190618744+189493381+188009667+186960612+186624566
4327+186899053+187266727+187136538+186609523+186293581+186281900+186079060
4317+185586256+185391059+185858906+186502696+186605069+186197880+186004884
4307+186473164+187344630+188205229+188953767+189588753+189881749+189505391
4297+188497202+187531093+187472410+188499230+189863066+190670009+190716490
4287+190423269+190130031+189663553+188679610+187298131+186143409+185755960
4277+186165142+186986764+187738214+188125299+188241572+188494620+189117197
4267+189733656+189830103+189643466+189823326+190234640+190130100+189471960
4257+188965344+188852277+188704341+188393893+188489143+189566136+191426918
4247+193114061+193778406+193396225+192437568+191264233+190277118+190109008
4237+190975240+192101539+192399856+191648770+190641985+190288643+190858968
4227+191954244+192869679+193008516+192264692+191162050+190485504+190628051
4217+191317681+192039443+192536111+192782210+192792764+192672470+192556925
4207+192443859+192392611+192653909+193219589+193660192+193759654+193817452
4197+194062424+194254225+194100240+193718597+193447785+193338513+193137181
4187+192819991+192773301+193286521+194148767+194835087+194958257+194649646
4177+194463513+194698762+195101566+195420576+195720694+196006845+196124365
4167+196143325+196329095+196667134+196757012+196226253+195190837+194298921
4157+194179442+194822210+195645340+196124712+196245543+196362803+196674828
4147+196920546+196679369+195906291+195038100+194551293+194483547+194502646
4137+194451589+194530670+194800425+194931377+194712904+194433807+194518261
4127+195006714+195474752+195405307+194746110+194019565+193676535+193591024
4117+193441130+193276573+193439258+194143897+195242622+196262579+196731882
4107+196569110+196092875+195764507+195977209+196702142+197239902+196885121
4097+195902478+195178013+194967616+194781898+194393496+194127224+194194017
4087+194440688+194779957+195360403+196221921+197057165+197409311+197093941
4077+196440792+196015250+196063205+196377101+196676250+196789646+196497932
4067+195718909+194891291+194630790+195006905+195605253+196121644+196480653
4057+196610878+196483860+196238662+196050414+195941074+195838475+195842115
4047+196276340+197255257+198284382+198695383+198471278+198166809+198063725
4037+197934627+197658390+197510610+197705600+198154764+198740305+199272796
4027+199272866+198549908+197833692+197959497+198700063+199253143+199526035
4017+200085233+200977739+201436418+200966526+200112876+199724786+199908371
4007+200196948+200395612+200763130+201564857+202671728+203449104+203263959
3997+202316687+201505966+201306869+201376955+201359313+201387718+201678963
3987+202134453+202464918+202530412+202535022+202818174+203411028+204024021
3977+204546755+205221845+206112843+206710169+206466757+205588826+204861259
3967+204786285+205290527+206141369+207196109+208234402+208891069+208976372
3957+208798921+208905315+209446350+210156934+210920289+211675760+211915879
3947+211346213+210847604+211502641+212982022+213957889+213846747+213180842
3937+212646254+212734486+213835793+215776713+217414377+217639072+216914104
3927+216727190+217539263+218215965+217868948+217467340+218470417+220535183
3917+221548606+220047388+216872839+213863332+212099361+211936641+213805499
3907+218259448+225002095+231908206+236029957+236407649+234169973+230198117
3897+225355541+221680182+221096235+223396008+225922867+226309865+225851013
3887+227193341+230068742+231897409+232165778+232398480+231983492+229446598
3878+226660070+226776465+230272258+235328871+239978104+242232903+240852204
3868+238236576+237928970+239729753+240266524+237910877+234745635+233335837
3858+235135580+241326533+251513778+258899366+255311823+245282652+236733781
3848+232563782+232723139+235753720+239796494+244071622+248826227+253120420
3838+254376960+252042630+248759157+246317149+244231517+242063771+240690472
3828+240784510+242144065+245284957+251280435+258234086+260900146+258503719
3818+255514940+253098982+249073088+243989838+240923711+241609251+245706687
3808+251024216+255005517+258101851+262438920+266802298+267607404+265567126
3798+263940052+262620236+260147189+257599568+257118376+259025171+262264676
3788+266268611+271154497+276652770+282259603+288235445+294910692+301318091
3778+306317252+310759259+316797580+326122319+339090633+353815813+366929983
3768+377209273+386007050+393861334+400612334+407223994+414132741+419512106
3758+421922242+423323512+427171522+435508540+447062620+456525694+460694879
3748+463922097+470819127+479845048+484980152+485842432+488250904+495638606
3738+507556011+520944460+531673728+537224808+538804240+540217885+544724676
3728+553318364+564193836+573179722+576858894+575099325+569845712+563724932
3718+559358036+558533676+561916455+568482985+574288413+574723730+570383767
3708+565295421+561831880+561087138+563215716+565862002+565733234+563019080
3698+560715286+561096566+564951854+572214808+581628941+589581942+591369517
3688+586849902+581229048+578316317+578520405+580746834+583858662+588064103
3678+594508902+601382952+603392432+600999038+600171593+601546139+599681545
3668+592477931+583929927+577217158+572764232+570348828+570309937+572845548
3658+576424825+578221344+578282314+580678619+588426596+599178256+604258352
3648+597523920+584905516+574754648+569744015+568472760+568445516+568062642
3638+567262614+566942998+567826908+570289105+575081509+582120098+587310418
3628+585089224+577548213+571263447+570023111+574391879+581619929+586685397
3618+587801229+588402263+590907546+593999582+596247397+598465264+600916474
3608+601629397+599789967+597515948+596968431+598594829+601967557+606389842
3598+610479929+612577242+612315338+611390632+612133225+615439540+620210454
3588+624236555+626050682+625580876+623154415+619346752+615077602+611617528
3578+610652544+612920740+616530900+618663014+619197845+620713950+624887087
3568+629860494+631890702+630385203+627955830+625956124+624125083+623128280
3558+624020335+625766733+626340593+625589611+624665806+624227959+624679601
3548+626104407+627354172+626931992+624594126+621164345+618072517+617139145
3538+619013514+621732936+622441353+620773014+618937466+618530745+618892614
3528+618846098+618475217+618084579+617171796+615851738+615554687+616997448
3518+618771852+618835560+616597590+613083234+609655256+607156421+606268595
3508+607682795+611040063+614116987+614271439+611394930+608046604+606021318
3498+604597136+602712022+601040909+600767359+601825859+603467509+605129679
3488+606113657+605936189+605332797+605285380+605329747+604550828+603394442
3478+602953198+603450456+604075615+603555828+601095328+597350472+594035353
3468+592377065+592311763+593063576+593995215+594653580+594556388+593349466
3458+591300055+589501110+588893351+589133626+589271857+589250991+589391856
3448+588977856+587333018+585632235+585384888+586099475+586246164+585199309
3438+582967924+579725179+576710611+575819354+577267418+578989587+579091077
3428+577829007+576263405+574332538+571680844+569405023+569084783+570379885
3418+571459286+571430517+570695133+569556564+568119453+566959601+566650488
3408+567125146+568123404+569700792+571613150+572626902+571472250+568512136
3398+565572369+564143126+564061393+563733181+561950423+559588987+558689654
3388+559765000+561107831+561105682+560182917+559805623+560470228+561403322
3378+561870216+561979609+561879921+560822738+558101756+554507713+551794842
3368+551090237+552286033+554350487+555757789+555381501+553420582+551029995
3358+549111814+547786002+546833774+546201128+546072429+546789962+548363882
3348+549876764+550048444+548775525+547426455+547242783+548069431+548934484
3338+549395763+549838879+550602304+551303199+551120185+549666575+547622537
3328+546303553+546295858+546694642+546354783+545523352+545119820+544939301
3318+544015531+542646981+542409998+543929674+545939882+546779632+545925116
3308+543973729+542094992+541461861+542348959+543825931+544852855+545358743
3298+545780507+546214334+546531662+546685248+546576896+546194958+545997629
3288+546558178+547649192+548209915+547620665+546627225+546528439+547742397
3278+549625674+551423718+552661559+552732893+551159526+548561004+546477763
3268+545745291+545622415+544995315+544060244+544048321+545409627+547089404
3258+547856330+547741669+547561671+547520943+547042819+545725742+543966588
3248+542679667+542442788+542826667+542838452+542164212+541346264+540694103
3238+539880314+538668955+537406193+536721589+537080962+538409789+539908252
3228+540565231+539971475+538348958+536102218+533831422+532341903+531940069
3218+531881144+531241843+530251452+529924176+530472872+531068118+531192554
3208+531268463+531690886+531947625+531131861+529172779+527097164+525729931
3198+524564291+522669818+520381206+518967422+518853281+519270470+519501352
3188+519446101+519045897+518121190+516952604+516221449+516056112+515791435
3178+514994562+513979457+512927647+511541904+509966805+508880921+508355796
3168+507765749+506927142+506216091+505610342+504602933+502996465+501208057
3158+499843354+499181003+499102979+499407691+499897219+500185847+499882176
3148+498946378+497478106+495431191+492982130+490858473+489849851+490007077
3138+490492584+490390089+489638692+488861228+488402341+488045776+487526058
3128+486862632+486324751+486171095+486205965+485843784+484864416+483618361
3118+482373692+481142714+480127853+479661410+479767925+480171700+480530831
3108+480526047+480045635+479352504+478777188+478232618+477230200+475486817
3098+473478065+472156308+471984455+472405457+472397623+471447198+469923294
3088+468702992+468468644+469149678+470046967+470624571+470958121+471104913
3078+470543323+468939697+467019332+465925234+465970710+466546615+466910078
3068+466601104+465521806+464112494+463076627+462543703+461910190+460788709
3058+459605426+458940405+458759402+458596665+458128696+457390228+456678865
3048+456228816+455923793+455512323+454935274+454203946+453330089+452599419
3038+452396509+452556854+452409507+451608439+450512469+449670639+449241631
3028+449050159+448968808+448899866+448480771+447336863+445675734+444148190
3018+443172982+442726469+442539607+442267825+441760411+441214731+440851129
3008+440645724+440521496+440361394+439750099+438325362+436497786+435241783
2998+435073882+435608435+436041811+435773737+434748962+433478436+432558651
2988+432065380+431661709+431171245+430615895+429952815+429261729+428836464
2978+428740486+428649949+428278618+427628884+426867088+426235620+425928066
2968+425812400+425421380+424426207+423092873+422094892+421801168+421909417
2958+421890734+421512367+420793239+419845136+418856271+417942102+417092057
2948+416385373+415947457+415616264+415070480+414379567+414035410+414275790
2938+414610033+414317557+413362210+412356672+411657233+411101328+410590517
2928+410252427+410027922+409608099+408759683+407549260+406342546+405516314
2918+405037982+404538852+403871232+403302468+403155467+403416123+403662569
2908+403461080+402889854+402376652+401965390+401203664+399930122+398722783
2898+398225561+398280777+398107711+397307752+396312856+395710157+395470194
2888+395087424+394292873+393371875+392775520+392595140+392533026+392316459
2878+391983048+391695286+391392065+390843162+390111140+389637556+389621335
2868+389668475+389378252+388877494+388459438+388130810+387779513+387403710
2858+386963818+386297065+385369759+384449351+383847207+383555285+383310019
2848+382971165+382595709+382133841+381350902+380187688+379020280+378310477
2838+378014153+377661990+377088234+376632085+376492502+376408413+376118571
2828+375637882+375018685+374276715+373531279+372933607+372563523+372470110
2818+372545326+372404599+371742629+370743746+369851726+369243031+368752845
2808+368154375+367319165+366270751+365227224+364445463+363966750+363634274
2798+363319996+363012512+362738857+362470090+362101739+361573494+360957659
2788+360306122+359576665+358897538+358589603+358665581+358660209+358202223
2778+357415886+356561855+355630702+354534385+353500183+352960776+353016720
2768+353245557+353157863+352650034+351935516+351293997+350929910+350801730
2758+350597122+350063816+349278069+348464731+347695760+346912508+346146761
2748+345553837+345190027+344873045+344389757+343781339+343279229+342975904
2738+342705819+342286967+341743644+341197270+340676651+340160225+339663765
2728+339171118+338630810+338129636+337871718+337845791+337691789+337089194
2718+336184834+335420785+334978571+334657464+334261454+333753070+333087183
2708+332316860+331734473+331482551+331258567+330793441+330279511+329985649
2698+329835979+329640106+329408253+329256435+329173524+328965935+328435541
2688+327647887+326922694+326474899+326191677+325808180+325194285+324467844
2678+323879773+323561197+323395964+323205845+322969313+322749696+322521518
2668+322201971+321800657+321452930+321291095+321267005+321132378+320669887
2658+319917692+319112534+318495520+318187551+318111641+318022942+317727832
2648+317261804+316787250+316402020+316118382+315914710+315730413+315474332
2638+315079812+314560337+314045714+313731782+313718888+313910359+314099162
2628+314088174+313745473+313090401+312326699+311671383+311198978+310922274
2618+310867161+310951736+310951493+310715794+310329835+309985956+309755975
2608+309557328+309313587+309040626+308736503+308355744+307985972+307842230
2598+307954638+308059351+307893010+307423170+306781685+306158570+305747343
2588+305643704+305774899+305942489+305930738+305652647+305216533+304778339
2578+304380388+304015087+303697378+303375578+302964108+302535724+302231047
2568+301961448+301540377+301130502+301140588+301576113+301886717+301636494
2558+301037851+300631060+300627178+300750990+300660176+300337926+300011793
2548+299847150+299847531+299915226+299895053+299707706+299485767+299403688
2538+299403410+299287848+299026706+298790902+298711354+298694820+298501234
2528+298061273+297674621+297716839+298169729+298648547+298862167+298815894
2518+298607368+298291877+297964116+297781102+297851950+298131705+298391183
2508+298339918+297900338+297319164+296914488+296782185+296796777+296775391
2498+296588668+296237094+295881638+295730200+295827496+295966143+295879974
2488+295560462+295278870+295254641+295441537+295667255+295820945+295882504
2478+295876889+295786976+295515783+295065561+294684698+294601198+294666743
2468+294529968+294141167+293827686+293841655+294058915+294196868+294160820
2458+294061479+294016177+294055102+294139746+294165742+294016870+293720650
2448+293487030+293484604+293647687+293799402+293837149+293689767+293296668
2438+292778371+292419240+292371615+292546969+292789497+292981177+293055873
2428+293068975+293155179+293333063+293469006+293457290+293328591+293176288
2418+293068490+293055803+293189494+293447932+293684568+293756179+293690807
2408+293647549+293729420+293883561+293978153+293976212+294004912+294203211
2398+294537940+294825737+294903379+294772011+294600539+294544491+294557628
2388+294466225+294167302+293607307+292644403+291103757+288924313+286154371
2378+282885525+279262834+275461029+271594840+267777749+264282111+261404388
2368+259118099+257139190+255397264+254215471+254036669+255110368+257386433
2358+260683372+264967010+270434468+277340043+285367497+293001003+298188135
2348+299765036+298239607+295640842+294032814+293606440+293049322+291538832
2338+289510097+287791827+286581178+285489247+284313572+283300426+282678161
2328+282336032+281998115+281491239+280916356+280677329+281203979+282517972
2318+284097820+285242438+285657235+285695449+285952380+286671732+287646715
2308+288554472+289191780+289518901+289681655+289918256+290325341+290772946
2298+291070794+291153740+291139979+291227708+291441813+291542922+291349960
2288+291039980+290917312+291007363+291094295+291035439+290830207+290486206
2278+290034477+289630130+289431692+289383512+289298816+289147032+289060984
2268+289068575+289037536+288921540+288847745+288881280+288891107+288764332
2258+288600434+288562028+288645303+288714869+288690121+288613068+288564593
2248+288557921+288544923+288524594+288551942+288611577+288613484+288543727
2238+288483918+288475565+288491786+288531214+288636516+288813551+288984607
2228+289060811+289048749+289029355+289044364+289073653+289097916+289113237
2218+289117552+289125559+289157413+289192526+289171434+289076201+288984659
2208+288982285+289032059+289030222+288964798+288897710+288855839+288844712
2198+288854626+288814990+288706447+288675754+288855336+289159770+289395592
2188+289462783+289388832+289269492+289175697+289095057+289013186+288988056
2178+289050672+289141590+289208955+289241503+289201312+289076599+288969061
2168+288980309+289067154+289137899+289198973+289271104+289280376+289202682
2158+289196737+289403876+289713769+289903473+289923577+289893040+289889833
2148+289884600+289859366+289885899+290039104+290267300+290426917+290472151
2138+290530937+290723709+290968438+291082579+291051349+291037865+291122024
2128+291214502+291274155+291409543+291688882+292029296+292342707+292617090
2118+292805996+292831992+292752062+292742011+292877122+293086271+293313202
2108+293555868+293763111+293841828+293773718+293663459+293674758+293896871
2098+294248410+294578875+294866637+295195993+295538590+295714776+295619907
2088+295381052+295229546+295272457+295442092+295644447+295880112+296176852
2078+296464475+296619898+296640799+296666934+296780105+296906482+297006550
2068+297201037+297553513+297889281+298008205+297940823+297852539+297847444
2058+297943631+298093508+298203143+298244217+298312640+298502482+298788026
2048+299063968+299241748+299324347+299404173+299537482+299681467+299830963
2038+300071966+300392241+300627178+300689812+300677195+300710297+300836778
2028+301078301+301404919+301671987+301734136+301670462+301789733+302282832
2018+302906500+303191455+302994264+302632569+302459814+302537041+302708651
2008+302804699+302762204+302645393+302558081+302555308+302659120+302870868
1998+303171351+303647326+304505724+305687136+306608202+306693817+306061656
1988+305299999+304823954+304747144+305020798+305420899+305653306+305652093
1978+305619823+305737291+305964014+306143319+306278119+306649762+307465249
1968+308362468+308638168+308147843+307526739+307335995+307509096+307782127
1958+308158553+308673419+309079863+309104577+308845757+308692448+308932654
1948+309634728+310864562+312628498+314353545+314932223+313935073+312282262
1938+311131527+310804389+310998772+311369098+311733047+312066042+312398067
1928+312792553+313532893+314887440+316479038+317635527+318485780+319527678
1918+320233530+319623552+318119925+317210956+317645787+318933090+320097448
1908+320581673+320596958+320673942+321017405+321500590+322102214+323049659
1898+324537792+326339614+327849133+328910511+330249252+332282441+334029220
1888+334309148+333513765+332908952+333054566+333742082+334611641+335357250
1878+335835825+336204383+336824656+338218682+341026215+345309229+349521533
1868+351078505+349223719+345985272+343586401+342713549+342915766+343445986
1858+343749277+343714268+343600162+343681132+344135755+345141223+346850083
1848+349479281+353149960+356798942+357927251+355643284+352351423+350438961
1838+350113521+350375460+350758507+352058392+355214276+359402074+362079937
1828+362172068+361214433+360204459+358552896+356312880+354699965+354298685
1818+354511717+354710779+355109701+356268097+358033385+359351919+359389734
1808+358543641+357954703+358563225+360679117+363636354+365808467+365921395
1798+364650418+364161895+366127355+370085624+372875028+371426860+367192026
1788+364048378+363603460+364798147+366195778+367470152+368556174+369038804
1778+369265735+370764613+374824995+380774962+385328511+385419256+381978626
1768+377719528+374360215+373225320+374929223+377893392+379442356+379311439
1758+379129950+379282358+379665162+381594158+386262715+392109945+395413244
1748+394695018+392151747+390320740+390179840+391458304+393016731+393662167
1738+394250724+397510419+404102946+409288344+407841979+402301471+397017598
1728+393266191+391458200+391729289+393323106+395973760+401081897+409734337
1718+419341986+423616162+420200558+413678949+408525058+406438316+407750264
1708+411998859+417437843+421828690+425487307+431130657+439089515+444884475
1698+445504678+442759675+437630047+431483929+427806733+428194182+431423167
1688+436553627+444795845+455812598+462549318+459339986+452119943+447707883
1678+447976338+451805145+456312074+459458703+462497776+466632750+469197200
1668+467251635+463719776+463271288+466341071+469450057+469844577+469188014
1658+471051499+477978824+490887555+505700290+510957888+506727837+504780887
1648+507818920+510082783+506418620+500328342+497229720+498574665+504048310
1638+513006675+522545937+526199563+522016548+516780612+515597572+518268850
1628+522345938+526436788+530824411+534715990+536046204+535640315+537168829
1618+542063381+546852422+547195573+544821971+543916225+545658914+548786409
1608+551695709+553812537+555556682+557418122+559294917+560766378+561816664
1598+562913985+564434250+566328307+568305136+570110147+571613670+572809396
1588+573831537+574921372+576285520+577943772+579887846+582650492+587357697
1578+594203462+600100605+600614015+597748389+597432136+601170614+605438169
1568+606710255+606157608+606453758+608954673+615481135+628427092+645068269
1558+652061000+645494331+637082617+632412777+631286132+632539501+635020658
1548+638581322+644522346+653869789+666035025+679491896+690575408+692186556
1538+685299612+680279827+681674547+686474853+689467618+690251529+692847486
1528+699192459+707679320+716318970+725141911+733871404+740106083+743013095
1518+744504105+745189715+744757206+744624243+746957603+753003306+763124538
1508+775141491+780564045+773509615+763492923+759359093+761569612+767018232
1498+771487865+771972089+769907358+769874915+774299488+781133191+785173157
1488+783502876+779172098+776329626+775970531+776816971+777810238+779635249
1478+783696566+790111278+797339155+802819317+803832688+800475281+796711362
1468+795887105+797988994+800217883+800066689+799242501+801755825+809162002
1458+817954649+820301735+814328198+806961813+802666736+801774127+803018276
1448+804127937+803081845+800149738+797357387+796200101+797161340+800475143
1438+805456453+808877568+807751546+804540897+803334529+804245371+804407172
1428+802648157+801123664+801731354+804008423+806957653+810503204+813701583
1418+813892430+810478248+806062340+802708330+800696077+799538443+798974289
1408+799336781+800763736+802316999+803012938+803537370+805297563+808322078
1398+811234914+812627969+811854596+809613229+808004923+808592163+810674849
1388+811847179+810460223+808009221+807691650+810951519+816687554+822942753
1378+828730156+834193542+839185805+842480474+843365389+843115477+843409271
1368+844593663+846380823+848770681+851225981+852206146+850917977+848566177
1358+846860680+846505605+847246951+848329645+848812067+848126042+846587615
1348+845043849+843991796+843441367+843557484+844767249+846964041+848943366
1338+849184127+847455476+845099863+843604208+843453638+844269714+845440449
1328+846436836+847015826+847419705+848253597+850037984+852699383+855448199
1318+857510642+858986124+860405315+861730087+862628034+863457906+865065865
1308+867636034+870482249+872877654+874599650+875804423+876733496+877499660
1298+877949084+877830472+877222643+876524625+875925462+875183908+873891510
1288+871773677+869025762+866374762+864326322+862512126+860379457+858237222
1278+856830302+856064831+855002726+853286415+851815716+851516169+852042058
1268+852297376+851821054+851083036+850861686+851723169+853582634+855592946
1258+856976228+857798959+858446094+858985223+859529274+860383062+861521631
1248+862698744+864070310+866006377+868457240+870901795+872754466+873939690
1238+875145988+877194914+880124386+883087481+885161502+886183954+886746515
1228+887384707+888133401+889080082+890878681+894101877+898246245+901891552
1218+903924464+904380543+904275795+904965772+907347797+911196708+915234733
1208+918138140+919572720+920321969+921515720+923741420+926664723+929373193
1198+931276608+932483114+933226124+933674231+934528851+936887445+940935660
1188+945152193+947425103+947493526+947744615+950450312+954894087+958441579
1178+959834774+959850787+959681361+960520175+963529786+968585133+973771918
1168+977149706+978625742+979283622+979300121+977865194+975351177+974016769
1158+975662717+979591627+983627641+986433441+988207291+989743222+991292395
1148+992224796+991944660+990734687+989190229+987730206+987255548+989171858
1138+993510539+997330888+996969574+992830475+989684783+991150836+996050414
1128+1000889888+1004015061+1005708149+1006352719+1006660862+1007715827
1120+1009604338+1011497424+1012952941+1013698931+1013193285+1011918980
1111+1011866433+1014624469+1019259924+1022906756+1024310349+1025091625
1103+1026404127+1026798994+1024749167+1021181641+1018385616+1017918445
1094+1019945395+1023081729+1025306806+1026490088+1028372846+1031013170
1085+1032516728+1032792150+1034434562+1039315769+1045450206+1048405121
1077+1046490198+1042816814+1041047055+1041439356+1041860150+1040989516
1068+1039692750+1039857602+1042194705+1045251456+1047286517+1048606991
1060+1050575501+1053374022+1056042284+1057752633+1058674983+1060063047
1051+1062362577+1063426000+1061206330+1057308062+1055046382+1055208045
1043+1056048315+1056463979+1056309249+1054757581+1050914077+1046261846
1034+1044966744+1050178070+1060306234+1069792671+1073741823+1071096785
1025+1063752652+1055559584+1051139933+1052311847+1056352853+1059159485
1017+1059405444+1058096617+1056088037+1054026356+1052593093+1051789079
1008+1051410018+1051761349+1052394134+1051687312+1049105635+1045833427
1000+1042822222+1040390492+1039390015+1040496349+1042674355+1043906788
991+1042852308+1038983363+1032931005+1027566336+1026243020+1029716405
983+1035396010+1039324365+1039659198+1038037236+1036768200+1035359893
974+1031477638+1024904660+1017950888+1012762856+1010320450+1010553515
965+1012057212+1012755299+1011918010+1010625820+1009627215+1007962896
957+1004669821+1000894047+998538712+997364926+995232882+991241581+987020611
947+984480182+983849823+983986460+983196726+980219559+975650100+971767221
937+970118985+969996768+970009385+969837255+969051334+966444007+962386641
927+959819730+961234831+965548972+968945200+969011820+966958873+965109669
917+963832036+961959886+959299735+957304188+957024537+957609420+957426406
907+955926522+954044181+952865057+952428111+952424507+952827415+953024016
897+951936538+949842345+948598126+949208658+950316448+949915204+948106415
887+946853392+947074049+947418864+946523066+945213545+945010496+945453057
877+944685923+942101612+939039940+937098119+936642386+937338464+939169436
867+941878321+944156708+944539998+942885661+940450950+938673080+938236896
857+939074671+940660793+941964699+941505638+938669336+934936196+932545367
847+932444779+934334676+937390318+940226412+941709380+942118250+942270346
837+942144732+941432641+940070988+937905669+935229365+933002348+931688528
827+931037026+930915155+931756188+933800538+936197953+937807922+938697066
817+940086101+942472424+945091050+947394740+949125817+949125262+946642718
807+943501878+942533290+944320727+946596618+946952178+945489660+943857508
797+942571349+940934205+939456851+939983779+942752699+945604807+947077377
787+948408596+951086355+954178530+955610060+955166113+954548094+954538319
777+954011391+951984510+948709529+945238986+942782924+942014126+943120599
767+945856243+949084361+950982231+950350763+947938790+946257765+947046458
757+948753411+948271405+945479054+943503888+944482667+947527217+950280400
747+950899320+949423977+948047143+949210807+953043774+956887207+957676594
737+955048471+951500147+949519644+949790075+951856747+955259977+959617514
727+963893180+965859264+963388990+957114381+950057247+944673307+942477762
717+944996008+951682398+958019122+959632973+957517774+954975820+952057716
707+947025037+941306056+938755575+940397641+943131898+944302772+944501662
697+943746451+939983225+933601580+928424847+927026800+927870744+928280307
687+927670469+925811212+921483762+915258441+909736061+906045208+903408350
677+902137650+903876977+908065989+910357962+905916544+893526562+879269420
667+874226550+878978538+885314152+889200151+890589879+890217473+888997795
657+888117803+888509481+889882017+890845960+890154527+888049796+886197334
647+885700353+886002604+886890499+888840778+889720632+886052378+878479270
637+871098466+867032642+867034930+870163846+874423984+876835125+874370743
627+867498357+861171132+859431666+860657444+860144381+856692486+853143885
617+851299395+851127611+853948385+861731196+871644735+874449633+865026836
607+851493431+846935757+855097422+865952721+867192571+857808387
##END=
