##TITLE=<SNM>
##JCAMP-DX=4.24
##DATA TYPE=INFRARED SPECTRUM
##DATE=3/5/2025
##SAMPLING PROCEDURE=Instrument type and / or accessory
##ORIGIN=Admin
##XUNITS=1/CM
##YUNITS=ABSORBANCE
##RESOLUTION=4
##FIRSTX=4497.3318
##LASTX=599.83466
##DELTAX=-1.4281778
##MAXY=1.7849685
##MINY=0.21315947
##XFACTOR=1
##YFACTOR=1.6623815e-09
##NPOINTS=2730
##FIRSTY=0.23519422
##XYDATA=(X++(Y..Y))
4497+141480296+141994215+142911403+143607617+143607993+142904537+141774737
4487+140456278+139187676+138436720+138724098+140025257+141508425+142183386
4477+141830931+141059843+140580184+140738314+141423753+141996653+141704175
4467+140523973+139200521+138460797+138712050+140055249+141788380+142505274
4457+141597354+140084050+139220814+139054985+138943566+138678105+138568272
4447+138943512+139841975+140842194+141296531+141029223+140515627+140172262
4437+139890200+139461545+138990034+138659415+138513871+138638019+139215212
4427+140165208+140933598+140964424+140247522+139130729+137892361+136821131
4417+136339061+136507238+136683573+136298177+135741761+135862880+136808967
4407+137905564+138489606+138365180+137642765+136709478+136144924+136152525
4397+136301144+136120569+135602985+134961217+134403233+134216043+134532436
4387+134951374+134845943+134126369+133354950+133101428+133445152+134018903
4377+134359579+134246008+133792228+133231833+132673598+132159285+131819756
4367+131771710+131918581+132015578+131912827+131636752+131299967+131052720
4357+131118612+131711142+132745406+133696352+133949882+133357836+132359607
4347+131567516+131266998+131300406+131414685+131570448+131722410+131569856
4337+130948364+130270113+130146315+130653743+131210715+131194813+130663146
4327+130332142+130684534+131332137+131557441+131161423+130379283+129386575
4317+128456425+128225367+129075461+130406057+131205596+131299886+131323335
4307+131550485+131642373+131551946+131775269+132536856+133426382+133992577
4297+134120794+133772427+132955167+132017290+131453677+131384611+131612479
4287+132035173+132562017+132793039+132300141+131221059+130230637+129905047
4277+130229301+130725131+131045441+131305990+131732673+132300293+132951698
4267+133778325+134714113+135419282+135663911+135538518+135231366+134820091
4257+134312887+133829777+133654097+134012888+134867474+135968750+136935911
4247+137296433+136815376+135850259+135070897+134857766+135149097+135671217
4237+136133199+136402255+136581351+136722933+136524628+135658757+134425265
4227+133678926+133982179+135070816+136177883+136693899+136604441+136469591
4217+136802074+137489871+138100723+138440951+138390324+137707304+136522764
4207+135529832+135313295+135864161+136820691+137824586+138663727+139257351
4197+139516125+139357969+138932729+138530436+138205312+137801944+137307360
4187+136935544+136927100+137321774+137806721+137929560+137641681+137406571
4177+137627572+138248661+138992176+139695642+140313056+140746829+140821641
4167+140510563+140121832+139993964+139995587+139726872+139241297+139045735
4157+139286967+139449085+139058517+138350103+138028242+138517681+139571064
4147+140583895+141178613+141367004+141250986+140869112+140364776+139962959
4137+139693383+139443429+139285855+139402994+139746681+140144331+140599098
4127+141067435+141138652+140447673+139294479+138420137+138267323+138742240
4117+139483640+140106074+140398148+140508349+140727369+141010632+141026525
4107+140712346+140427281+140507999+140935839+141411231+141570821+141255020
4097+140717607+140448068+140673075+141107145+141231839+140786296+139989438
4087+139326381+139162658+139535863+140176385+140690124+140845905+140780694
4077+140914854+141522874+142265646+142369276+141548788+140453024+139858970
4067+139831210+139976422+140097630+140286048+140568262+140668244+140242332
4057+139399731+138710858+138586719+138966710+139642693+140482381+141278791
4047+141747497+141742997+141361410+140898272+140674277+140756967+140907639
4037+140866414+140584532+140200785+139968893+140126036+140588216+140894578
4027+140728122+140365574+140336532+140797134+141513211+142228464+142748110
4017+142890679+142631205+142173481+141774576+141563803+141527535+141607931
4007+141777229+142034973+142394258+142883068+143484365+144041919+144265385
3997+143894017+142973755+141993300+141530637+141702812+142208018+142862622
3987+143678296+144433823+144687049+144313055+143680555+143279356+143405036
3977+144040162+144775745+145058461+144770645+144287839+143831307+143312504
3967+142999920+143558944+145069998+146669641+147500185+147531899+147260441
3957+147098018+147208299+147565154+148097888+148798288+149442485+149406532
3947+148425011+147345606+147294181+148247941+149068428+148941743+148166909
3937+147553018+147771805+149105099+151098259+152539701+152577653+151839937
3927+151643488+152336421+153032814+152985808+152636491+152834930+153593908
3917+154022913+153371034+151935275+150723574+150371738+150721710+151611128
3907+153642833+157400093+161932987+164967662+165186001+163122027+159902753
3897+156751800+155040495+155531350+157532667+158982033+158580600+157886000
3887+158933933+161140843+162450697+162829379+163447106+163400854+161506617
3878+159595619+160048127+162645210+165781982+168614992+170302398+169631946
3868+167622992+166774125+167397088+167507790+165988417+164058918+163443664
3858+165241271+170110610+177229436+181710340+178870178+172321392+167198236
3848+165190071+165936015+168114026+170467116+172799428+175467343+177855464
3838+178459297+177144962+175477132+174258529+172982827+171523475+170738502
3828+171072366+172161246+174272136+178088916+182083949+182879732+180812101
3818+179381308+179021288+177478144+174599061+172564542+172945000+175785951
3808+179582562+182512344+184998080+188472032+191742902+192215058+190853376
3798+190319370+190511696+190152627+189659316+190323027+192437485+195597240
3788+199694603+204735042+210262391+215976437+222559285+230790332+240175354
3778+249673767+259483204+270591559+283321652+296840089+308982107+317350228
3768+321845689+324181748+325543484+326930104+329555764+333306839+336356843
3758+337794484+339725095+345405383+356500634+371443696+385383644+395384816
3748+404513851+416371772+429875329+439648642+444570239+449725647+458723166
3738+471818012+486730849+499718166+508999477+516557312+524710661+533791184
3728+543383788+552812428+560500559+565074434+566846925+567016161+566339577
3718+564978558+563233282+561918049+561090552+558726060+553115904+546085246
3708+540525896+537746382+537868325+539737266+540984302+540584483+540271935
3698+541783975+545225838+550387520+557454213+565827246+573053780+575839998
3688+573566040+569386174+566100030+564685336+565293580+567541759+571097425
3678+575651724+579032597+578512843+576166673+575230966+573987156+568703854
3668+560745592+554738844+552642403+553420169+554939058+555907608+556348302
3658+556154219+554883196+553706830+554989076+559399919+564566477+566303651
3648+563237190+558330652+554567815+552996650+553180873+554039672+554996426
3638+556334067+558061632+559379015+560238065+562183484+566152737+570027261
3628+570596567+568577465+566813150+566610318+568483812+572375296+576606434
3618+579730980+583141577+588135243+592734002+594350953+593687852+592891297
3608+592357560+591933001+592378822+594155329+596782709+599842788+603338110
3598+606928412+609895340+611900493+613356636+615098399+617628684+620332221
3588+621531140+620236703+617640158+615775054+615908578+618281316+622060359
3578+625274184+625654175+622888824+619747857+619535021+622459568+625418106
3568+625442774+622848380+619998483+618132160+616890000+615400584+613365241
3558+611676113+611480273+612577364+613569614+613534046+612851511+612045491
3548+610467944+607539094+604582995+603273571+603254640+603380993+603655212
3538+604034844+603242162+600911517+599122928+599836155+602318897+604122832
3528+603845745+602340697+601312448+601411766+601723633+600701049+597972521
3518+595165292+594114848+594638941+595104625+594647617+593324927+590809163
3508+587144570+583931677+582637026+582698732+582715620+582640253+583138457
3498+583434942+581803792+578445400+575946057+575966961+577157776+577271293
3488+576070402+574929569+574234663+572803440+570168458+567917268+567362950
3478+567455707+566779697+565967438+566333984+567422720+567621321+566458329
3468+565034420+564404771+564230552+563369279+561537270+559620678+558478159
3458+558168515+558252488+558379271+558426779+558060879+556670495+554322818
3448+552046960+550477408+549323021+548419655+547941780+547666163+547190332
3438+546518983+545805146+545035878+544212863+543585580+543577692+544095689
3428+544076471+542783576+541145326+540297428+539551394+537608269+534954033
3418+533099614+532314784+531716114+531001094+530708876+530990301+531239493
3408+530900162+529936703+528479736+526790644+525633962+525889716+527468267
3398+529040006+529355422+528494221+527189746+525713704+524262581+523271299
3388+522535842+521368906+520132985+520023484+521092715+521980950+521685756
3378+520472244+519103875+518073977+517591979+517678999+518062109+518284840
3368+518184661+518002661+517772257+517118370+515986429+515078545+515210563
3358+516341608+517338878+517005499+515484853+513997159+513259443+513087195
3348+513140368+513129504+512808315+512452240+512730905+513779196+514963271
3338+515665634+515804357+515474850+514576468+513190207+511976265+511354324
3328+510588641+508889797+506998555+506236350+506591027+507116840+507556924
3318+508276498+509150212+509409228+508408551+506435775+504660703+503929010
3308+503901796+503854539+503749198+503855041+503950236+503634928+503049165
3298+502803630+503227615+503787670+503587850+502668672+502284594+503552605
3288+506153489+508472804+509030528+507937059+506673422+506341046+506720463
3278+507165460+507538100+507825944+507701922+506997873+506029036+505122730
3268+504205201+503092370+502005355+501457312+501611703+502142572+502594811
3258+502503273+501521815+499919492+498530327+497836963+497648294+497795838
3248+498354494+498989235+498854778+497526961+495536544+493660719+492174781
3238+491140652+490866326+491464315+492329101+492620746+491986507+490488916
3228+488290827+485778756+483722330+482986657+483899453+485694820+486898471
3218+486687644+485535552+484346170+483419463+482392756+480936398+479242215
3208+477706116+476385075+475189491+474384726+474277018+474538795+474516493
3198+474045180+473342996+472463258+471517081+470995822+471091734+471040891
3188+469936988+467908099+465768453+463910771+462304540+461138034+460692034
3178+460823156+460963134+460440440+458863968+456580724+454509453+453198273
3168+452505268+452260629+452430008+452567082+452037145+450794627+449199905
3158+447347243+445318174+443699071+443039985+443060315+442969207+442407826
3148+441588468+440604141+439247533+437621151+436253427+435414026+434866091
3138+434331923+433680223+432785534+431675643+430711073+430326456+430543809
3128+430846712+430707666+430181925+429597023+428795592+427434143+425913964
3118+425063376+424966066+424895324+424240792+422925846+421188386+419402952
3108+417975924+417239247+417405507+418376746+419511951+419961213+419431671
3098+418317657+417052515+415804582+414798707+414283291+414074113+413739049
3088+413278635+413038837+413072182+413162537+413211765+413120299+412661965
3078+411834182+410957671+410280585+409792779+409363487+408798018+407901321
3068+406682467+405398608+404346838+403657239+403235621+402848351+402258035
3058+401316232+400089956+398963931+398355006+398226322+398112052+397653826
3048+396904170+396133145+395563122+395253801+395078005+394837776+394452479
3038+393958469+393359260+392569304+391455361+389955153+388295713+387021750
3028+386553950+386722290+386906010+386569225+385549079+384029545+382449524
3018+381277748+380713749+380652831+380882160+381162868+381239347+380986247
3008+380489261+379858106+379092459+378241441+377463495+376758587+375901043
2998+374840166+373895352+373328305+372972947+372456312+371566141+370372349
2988+369184833+368306099+367733280+367254508+366775092+366309730+365815397
2978+365296146+364851401+364485250+364136381+363808810+363351694+362430114
2968+361072214+359816251+359049133+358708762+358757883+359262184+359823744
2958+359642784+358414931+356677040+355167259+354252527+353915346+353882539
2948+353749625+353211621+352265265+351238450+350610020+350583487+350780940
2938+350597901+349853659+348839465+347871632+347113729+346660451+346483650
2928+346402510+346256258+345951992+345309615+344143037+342618914+341284858
2918+340566683+340406196+340496766+340607307+340545528+340161522+339582428
2908+339109752+338800108+338487525+338134138+337751207+337188391+336418155
2898+335738846+335383237+335245984+335104823+334750002+333962053+332760983
2888+331593294+330959342+330872143+330824169+330351744+329549704+328795208
2878+328110270+327288940+326493820+326087942+326037494+326037745+325971198
2868+325840937+325579052+325174465+324742950+324425132+324317101+324320148
2858+324089027+323406635+322483728+321645834+320968318+320410558+320009592
2848+319756025+319502782+319146849+318795757+318634051+318640398+318556067
2838+318180845+317580596+316917853+316218323+315457803+314757340+314276668
2828+313953113+313588217+313207222+313051755+313153153+313189402+312842003
2818+312065205+311008631+309916811+309066367+308567409+308239838+307830015
2808+307300868+306824678+306556483+306464550+306328947+305910663+305177715
2798+304333044+303598125+303029034+302538825+302026027+301474865+300953067
2788+300484174+299926593+299087282+298030134+297136431+296682453+296463612
2778+296064708+295396227+294709730+294206183+293884618+293635551+293278830
2768+292657768+291825269+291014749+290408101+290016511+289715150+289340268
2758+288839213+288321396+287898576+287528570+287059300+286401810+285674886
2748+285131092+284828404+284460693+283706376+282677482+281814076+281352551
2738+281084911+280689843+280129771+279564105+279017962+278408481+277813450
2728+277417450+277207734+276947696+276455622+275773427+275062495+274451221
2718+274027290+273843766+273766660+273440882+272677798+271777659+271166350
2708+270854967+270563484+270185465+269802947+269431776+269042875+268673138
2698+268302756+267780134+267041307+266277237+265725089+265382871+265082388
2688+264777226+264559838+264410860+264163461+263747274+263270547+262844661
2678+262490629+262197515+261935361+261641225+261278731+260871132+260451396
2668+260027966+259588850+259121284+258667790+258333872+258166824+258074928
2658+257930880+257685865+257350370+256957400+256551916+256134403+255664183
2648+255188244+254864115+254785915+254886560+255028115+255077004+254930823
2638+254594539+254169998+253711126+253208816+252745911+252494585+252505700
2628+252606937+252533237+252131374+251492958+250899164+250566824+250473458
2618+250481723+250531400+250586186+250500062+250130236+249561541+249056344
2608+248770257+248643599+248567712+248503478+248423504+248293673+248146865
2598+248046220+247969956+247854252+247716049+247599951+247470963+247313613
2588+247247891+247369475+247558467+247616139+247513002+247360906+247232885
2578+247141599+247114672+247148895+247123958+246896118+246506500+246173012
2568+246028051+246010231+246073031+246303040+246742784+247278117+247763575
2558+248111960+248258141+248164236+247854844+247402713+246905153+246443323
2548+246050137+245757704+245601986+245513030+245323483+244953405+244482845
2538+244047798+243752766+243625642+243599360+243573365+243477794+243294629
2528+243112253+243095831+243275662+243461354+243457070+243237727+242879267
2518+242480093+242182856+242116650+242245064+242362077+242320646+242204763
2508+242181099+242250765+242260876+242107381+241842018+241605519+241471583
2498+241375384+241246037+241130656+241068465+240960667+240714164+240405650
2488+240180660+240060456+239918686+239637350+239255369+238912273+238663331
2478+238453329+238243667+238043273+237838075+237584778+237267515+236928184
2468+236635858+236412177+236223239+236069601+235985700+235906425+235689807
2458+235346029+235064837+234917616+234725666+234335726+233832160+233371299
2448+233012964+232792008+232746544+232827845+232929458+232974671+232886952
2438+232597082+232161301+231778405+231643107+231777222+231973815+231971753
2428+231731023+231436690+231250799+231193736+231196264+231150979+231018262
2418+230927549+231041084+231346407+231703648+232016429+232248088+232357266
2408+232329353+232243462+232216177+232264491+232304183+232317216+232417341
2398+232688082+233033150+233264594+233336842+233448584+233877463+234767133
2388+236158126+238132463+240765509+243995647+247699932+251874366+256635602
2378+262058953+268067494+274468485+281056443+287637982+293945051+299619262
2368+304378687+308147045+310899847+312425476+312431930+310943554+308394946
2358+305235263+301622587+297630494+293777877+291184254+290731334+292283119
2348+295143647+298913529+303615944+308894442+313490512+316202762+316872855
2338+316017571+314137838+311698265+309225204+306993842+304828847+302457757
2328+299884338+297201579+294327373+291248004+288254526+285594912+283116992
2318+280502250+277615172+274508087+271338203+268345280+265734124+263532162
2308+261593125+259701919+257686762+255517912+253316274+251231325+249315127
2298+247540181+245911289+244490392+243294360+242239973+241236786+240292259
2288+239489753+238882997+238418998+237959122+237404983+236794498+236222916
2278+235714762+235258794+234884271+234577729+234227713+233789959+233384637
2268+233118880+232956600+232833348+232730050+232585483+232306513+231925913
2258+231631418+231565176+231639647+231636993+231480809+231284378+231113188
2248+230871920+230491624+230092361+229880978+229942469+230166868+230370076
2238+230469627+230531692+230671813+230941102+231296712+231671074+232049612
2228+232435502+232776034+233018988+233224652+233544299+234086820+234814407
2218+235567720+236231557+236868539+237641913+238643253+239831737+241084474
2208+242285616+243405510+244509790+245703312+247047999+248494192+249920216
2198+251246957+252467281+253616236+254769099+255959717+257094958+258098915
2188+259049394+260005145+260854943+261478425+261919800+262323348+262756781
2178+263136521+263378040+263559932+263776084+263913426+263759178+263236162
2168+262456459+261630074+260882336+260131139+259245521+258231668+257154925
2158+256041700+254921447+253851499+252900212+252097079+251410851+250915980
2148+250810818+251106442+251809396+253570880+257301859+262983205+269702983
2138+276820195+284281400+292052894+300013004+308188278+316677481+325470555
2128+334418989+343389688+352473869+361826137+371328530+380713856+389763724
2118+398079245+405071897+410427806+414327034+417293209+420041421+423315984
2108+427701944+433473304+440516153+448405682+456434901+463583881+468939826
2098+472252646+473819795+474131160+473666264+472456589+469952263+465542352
2088+458776662+449401661+437711613+424256819+409255886+393030184+376416028
2078+360272469+345266338+331954282+320441035+310422258+301773895+294552649
2068+288654166+283908276+280069158+276679626+273473151+270614990+268270021
2058+266442780+265155496+264306110+263710290+263469094+263838830+264940725
2048+266956725+270163307+274697455+280754096+288749952+298956411+311383996
2038+326034088+342727447+360781897+379074388+396182158+410780511+422411148
2028+431492926+438567937+444077305+448442075+451827824+454043984+454616265
2018+452942017+448888756+443123025+436430300+429070815+420900506+411665950
2008+401237925+389835613+377967831+366145407+354718032+343869930+333676361
1998+324219324+315696955+308347116+302138612+296607677+291244670+286011761
1988+281235682+277163453+273835681+271157225+268925593+266923936+265034056
1978+263251346+261667202+260376512+259320368+258372399+257606142+257213082
1968+257099601+256831495+256117390+255152586+254327975+253791388+253456502
1958+253253922+253164553+253155177+253244062+253484182+253815142+254092910
1948+254315928+254724836+255537919+256473232+256758082+256018340+254850544
1938+254045098+253752682+253704780+253761485+253959386+254279643+254594665
1928+254872433+255357730+256287665+257430847+258362610+259154736+260074434
1918+260740189+260504604+259616100+259056153+259404574+260408495+261376472
1908+261830001+261883192+261991098+262389142+262935052+263433848+263914986
1898+264528429+265229035+265737512+266008684+266449162+267239459+267818302
1888+267611957+266855148+266095793+265540346+265230595+265218458+265405710
1878+265611195+265762055+265898680+266299252+267531749+269778727+271964733
1868+272354494+270702620+268594455+267362890+267050826+267095215+267127879
1858+267097868+267100754+267238455+267518321+267947021+268661593+269844108
1848+271658155+274107372+276412847+277002213+275467333+273442585+272442160
1838+272554798+273076918+273617665+274610399+276631670+279198778+280861069
1828+281093015+280776881+280355980+279469125+278310579+277691256+277896418
1818+278484727+279035889+279674090+280793859+282370061+283723981+284213312
1808+284016074+283915841+284610513+286342075+288718597+290774198+291692713
1798+291756571+292246708+294266975+297528218+299937565+299558452+297422607
1788+296045041+296428492+297875814+299451748+300894301+302170487+303177044
1778+304271588+306331062+309949009+314541852+318032477+318613184+316968445
1768+314838982+313322424+313275275+315102086+317791316+319654807+320565200
1758+321551714+322783333+324145069+326495183+330547907+335211850+338268415
1748+339063714+338916458+339121190+340191066+342128597+344341387+345948335
1738+347362169+350394209+355443199+359226651+358471402+355201572+352326469
1728+350475348+349720745+350148961+351434110+353595699+357568646+363856963
1718+370529538+373544798+371632437+367845542+365040105+364228241+365568966
1708+368807746+372890875+376434027+379686719+384338579+390360171+394709846
1698+395644585+394448893+391710756+388356165+386709453+387798799+390860348
1688+395396791+402157426+410541215+415615375+414036788+410052153+408127423
1678+409444447+413272109+417664129+421133133+424454846+428462571+431338284
1668+431138500+429974719+431060587+434594848+438140833+439920566+441171510
1658+444333776+451098964+462048894+474384081+480295024+479629843+480509043
1648+485170190+489722767+490083361+488143929+487859886+490694724+496648622
1638+505210144+514406228+520136749+520887589+520723875+523313680+529036205
1628+536247537+543482569+550869196+558811001+566595869+573859083+581934232
1618+591874522+601649198+607619338+610240193+612598303+615744577+618773390
1608+620849967+622254478+623841060+626158654+629253656+633075939+637794597
1598+643642544+650604719+658229566+665728276+672525303+678636569+684299145
1588+689605968+694618780+699345183+703589265+707282040+711012392+715876047
1578+722399716+729200688+733895467+737300757+742712205+751483981+762005050
1568+771841647+781141280+791731548+804475339+819911837+839620887+862427375
1558+877673556+879820695+877569863+875803360+874493220+873627609+873230407
1548+872948372+873196417+874826097+877696288+880114706+878281369+868929316
1538+856660892+848073912+843530872+840395211+837184756+834810153+834095563
1528+834074481+833563906+833192161+834203558+835783185+836077411+835548479
1518+835646219+835714129+834561678+832806290+832124472+833867669+838465496
1508+843828038+844093651+837006198+829454065+826250710+827165514+830318385
1498+832985995+832617836+829723838+827526358+827832416+829652056+830650474
1488+829363137+826365302+823448572+822299348+823275321+825178575+826888211
1478+828664825+831182777+834155441+836003837+834701512+830585290+827003521
1468+826397142+828300826+830284753+830525555+830149150+831490699+834981396
1458+837704008+835219617+828647615+823319709+821050520+820873253+821427929
1448+821421547+820192080+818384057+816991378+816244662+816225014+817282449
1438+818783481+818637910+816217986+813839582+812859379+812084410+810205537
1428+807915910+806760950+806925811+807411574+807767399+808450795+809160293
1418+808218239+805100649+801624725+799598202+799265109+799523408+799250552
1408+798400215+797409901+796289074+795182948+794933613+795999294+797587168
1398+798527142+798454786+797458592+795532965+793302211+792069159+792380882
1388+793158505+792874462+791985688+792746459+796354617+801879295+807726955
1378+813125136+817989294+822107309+825161866+827417216+829564212+831832756
1368+833979967+836056113+838459687+841053938+842727577+842406244+840517691
1358+838710314+838100421+838242191+837962020+836946464+835958086+835709181
1348+835998387+835942238+835216175+834932920+836522945+839774848+842886199
1338+844683107+845702966+846735733+847833182+849069605+851071675+854354341
1328+858600000+862845373+866315847+868977434+871400370+874180851+877388796
1318+880626428+883753771+887319476+891958967+897453670+902757840+907139246
1308+910779386+914005617+916704779+918823880+920650691+922297008+923663871
1298+924966267+926455826+927731618+928085363+927312617+925630373+923234114
1288+920370664+917412700+914568181+911758227+908965053+906590091+905210607
1278+904941407+905281313+905727707+906245811+906834192+907142329+906900738
1268+906428170+906672414+908589436+912039330+915474738+917391904+917967591
1258+918568951+919877443+921210602+921626448+921259293+921168437+921952083
1248+923190729+924290473+924937153+924638768+922994459+920495224+917961783
1238+915357062+912098562+908225006+904440083+901293594+898928959+897317421
1228+896307745+895698138+895372647+895063792+894242068+892827876+891630248
1218+891529854+892654697+894676845+897318783+900161868+902441957+903482612
1208+903306851+902817000+903263395+905331366+908609586+912020972+914912891
1198+917517970+920161916+922332074+923211740+923257993+924241351+927315414
1188+931822742+936108703+938957667+940240702+940691399+941260704+942532623
1178+944544518+946873872+948803371+949785439+950033843+950472994+951896580
1168+954020557+955602120+956018683+956126893+957059338+958972990+961312383
1158+963691863+966224443+969209657+972487877+975508945+978239804+980736816
1148+981871626+980716307+979027681+979579919+982408590+984941242+985573724
1138+985481720+986829652+990360865+994824881+998407008+1000483369+1001720868
1128+1002920002+1004302211+1005671728+1006982299+1008440592+1010203725
1120+1012372735+1014681509+1015854469+1014762685+1012588224+1011952372
1111+1013885027+1017146180+1020248137+1022562361+1023403518+1021838664
1103+1018392642+1015915063+1016991932+1020858030+1024415131+1026211250
1094+1027410097+1028848240+1030194451+1031653174+1033901927+1037162004
1085+1040930506+1044051681+1045261571+1044902304+1045366411+1047967977
1077+1050721208+1051079901+1049498123+1048339147+1048575575+1049447496
1068+1050088225+1050413071+1050723862+1050868716+1050768537+1050986822
1060+1051513030+1051300553+1050317481+1050628702+1054095305+1059647950
1051+1063596228+1062945532+1058086107+1052463043+1049849072+1051282626
1043+1054944781+1058800410+1061821622+1063184469+1062795873+1062557079
1034+1064689302+1068794267+1072388943+1073741823+1072670261+1069939690
1025+1067371326+1066421743+1065791843+1063095549+1058878000+1055819140
1017+1054646826+1054025746+1053709649+1054801863+1056996116+1058498726
1008+1059071832+1060237334+1061819327+1061516998+1058698582+1055357687
1000+1052952177+1051273160+1050445412+1050911240+1051040676+1048270091
991+1043564412+1040886762+1041734876+1043550142+1043615971+1041761839
983+1039225028+1037317400+1036543649+1035472661+1031931983+1026250045
974+1021241965+1018889162+1019108809+1021000088+1023561352+1025754959
965+1026837062+1026380485+1023933527+1019120211+1011959041+1003197878+994535029
955+987915770+984130059+982285249+980750943+978365439+974982236+971388420
945+968502095+966595901+965525343+965202648+965304906+965242232+964943560
935+964815199+964515595+962928654+960213715+958416162+958945094+960654086
925+961456520+960969466+960319846+960126444+960101919+960078685+960084924
915+959690591+958388338+956424777+954539020+953305250+952775457+952337525
905+951658718+951458146+952319669+953418409+953523822+952658283+951606872
895+950563349+949384222+948605811+949075869+950674069+952103607+952371802
885+951938315+951572021+950984358+949641517+947846761+945901270+943385398
875+940466445+938670612+938960177+939960603+939490329+937654124+936770012
865+937737881+938513066+937549786+936717950+938384848+941420187+942495262
855+940484587+937572661+936540253+938262368+941244928+943408130+944336917
845+944827127+944353267+941128758+935425450+930532394+929598587+932620372
835+936810671+939581329+940590933+940776375+940628150+940179820+939838265
825+940251100+941298638+942012009+941842917+941672462+942824698+944973487
815+946296965+946198292+946199798+947469782+949206597+950033197+949517674
805+947924136+945749962+943882491+943517918+945343295+948725494+951903536
795+953322389+952825511+951305045+949483038+947540201+945947164+945931890
785+948020227+950540186+951345919+950918672+951866821+954704025+956593869
776+955180179+951610673+948837577+948171535+948485266+948584154+948951883
766+950268477+951997906+953491911+954714638+955795092+957339222+960280262
756+964283685+967188942+966963773+963950449+960619378+959185251+959885857
746+961103134+961457524+961473444+961927655+962140777+960865702+958153130
736+955706315+955129695+956467587+958727598+961045694+962623456+962514027
726+960605323+957849797+954974299+951903177+948916888+947212988+947725069
716+950272780+953694851+955670746+953930059+949492648+946318478+946977206
706+950370449+953410521+953366419+948858875+941142956+934104266+931077461
696+932055728+935137965+938809514+941319076+940589284+936532508+930863837
686+924117939+915958852+908125544+903820438+903674149+904847181+904590029
676+902882113+901208403+900059322+898342515+894815246+890734232+890036064
666+893167709+896553064+897604547+896105953+893429379+890883748+888978701
656+887691364+886760712+886139848+886070863+886086567+884679833+881358013
646+878101664+877318520+879446369+882848720+885305287+886047127+886362507
636+886162938+881431874+870771330+861051548+859305985+864855833+871708149
626+874797557+873177414+869118774+865920152+865634244+867377800+868953196
616+868979227+867371346+865437616+864709401+866154357+869073812+868545597
606+859200786+844265899+833349493+832152224+839303068
##END=
