##TITLE=<SNM>
##JCAMP-DX=4.24
##DATA TYPE=INFRARED SPECTRUM
##DATE=3/5/2025
##SAMPLING PROCEDURE=Instrument type and / or accessory
##ORIGIN=Admin
##XUNITS=1/CM
##YUNITS=ABSORBANCE
##RESOLUTION=4
##FIRSTX=4497.3318
##LASTX=599.83466
##DELTAX=-1.4281778
##MAXY=1.7512228
##MINY=0.1991014
##XFACTOR=1
##YFACTOR=1.6309534e-09
##NPOINTS=2730
##FIRSTY=0.22107379
##XYDATA=(X++(Y..Y))
4497+135548811+136218990+136719486+136178991+135006516+134211798+134061476
4487+134057830+133901451+133873091+134343957+135326311+136383510+136808092
4477+136221027+135168076+134745898+135438881+136619972+137254390+136790422
4467+135437246+133961505+133147335+133173767+133596950+133964757+134236732
4457+134618006+135162092+135576413+135435400+134681294+133805426+133414495
4447+133719342+134404030+134775884+134232977+132926717+131779934+131622421
4437+132517284+133922949+135131403+135585120+135209035+134475029+133934415
4427+133727702+133612912+133376222+132995103+132403462+131391707+129963338
4417+128733067+128602159+129834962+131663033+132984149+133308037+132898165
4407+132246333+131683517+131368281+131324170+131332128+130971329+130071231
4397+129058362+128528729+128513344+128538423+128397027+128368677+128637207
4387+128927537+128831302+128270460+127562995+127093390+126893091+126584497
4377+125876046+125026281+124610252+124842400+125378876+125825119+126159350
4367+126521720+126834946+126851255+126419894+125546219+124375581+123291813
4357+122834103+123270936+124296395+125291458+125862396+126058757+126123590
4347+126148651+126058245+125867668+125719922+125601002+125312846+124843990
4337+124460669+124321905+124302691+124269260+124241193+124186429+123912901
4327+123332096+122651958+122179548+122076699+122358531+122953380+123707120
4317+124458239+125124151+125653765+125974482+126047245+125900897+125611024
4307+125274025+124933756+124565702+124243112+124183953+124455662+124787563
4297+124816471+124418203+123844661+123623412+124146256+125282084+126577398
4287+127738461+128651971+129102153+128784797+127600153+125955305+124764685
4277+124718793+125410470+125750438+125399031+125078341+125351503+125898631
4267+126202181+126312367+126578065+126933200+126904319+126412065+126082585
4257+126418186+127166838+127843129+128264521+128358965+128167884+128080677
4247+128382710+128765492+128831448+128647111+128431654+128258692+128266421
4237+128615983+129148210+129458740+129317143+128875541+128529963+128609569
4227+129169507+130007687+130717061+130809577+130177031+129404597+129236824
4217+129754150+130407837+130765658+130869293+130871266+130650995+129994393
4207+129083569+128568692+128951026+129975097+130810920+130861298+130347756
4197+130091414+130667587+131804064+132704984+132869148+132380319+131496987
4187+130355467+129194130+128562269+128902347+129885697+130614449+130765429
4177+131031895+132030657+133395893+134410553+134868099+134836368+134261510
4167+133302034+132505854+132256063+132394636+132592925+132755828+132897096
4157+132947009+132918010+133025025+133403175+133871145+134165641+134224726
4147+134079886+133746377+133361851+133065070+132681101+132032019+131534510
4137+131812579+132713371+133384445+133396523+133208075+133419100+134037319
4127+134631948+134887751+134765322+134304853+133604004+132965757+132754211
4117+133011686+133402627+133585182+133536037+133475061+133551295+133705464
4107+133867344+134116340+134479579+134773591+134853014+134780251+134599587
4097+134240624+133779195+133460680+133324263+133124284+132770511+132585460
4087+132997716+134117446+135575828+136634608+136650433+135708435+134639266
4077+134215215+134497359+135033240+135456067+135744021+135960638+135917952
4067+135367708+134539368+134075400+134277645+134781649+135039490+134785779
4057+134102289+133375519+133065491+133239806+133505485+133511460+133233629
4047+132849861+132719931+133232396+134239701+134991660+135060467+134913324
4037+135130873+135521512+135509159+135046735+134627791+134574334+134783230
4027+135113212+135595636+136176213+136552343+136444305+135918117+135328394
4017+134969285+134839556+134779511+134758899+134900076+135241287+135634512
4007+135935677+136205989+136633649+137233266+137706289+137718057+137276902
3997+136717714+136342351+136178113+136117694+136178141+136429549+136744602
3987+136926573+137035105+137222686+137343059+137117964+136628587+136337444
3977+136639560+137493382+138444781+139030374+139154374+138970539+138592518
3967+138198160+138161779+138701808+139528741+140091831+140098309+139709406
3957+139367866+139426860+139796138+140113211+140322500+140681335+141144380
3947+141335095+141248920+141327384+141724574+142047831+141956010+141630541
3937+141519990+141904270+142749850+143727709+144245272+143846812+142915531
3927+142500105+143084273+143933892+144172491+144091331+144556113+145590727
3917+146229211+145689684+144341945+143212704+142860913+143146072+143960543
3907+145662805+148375332+151224459+153006062+153462703+152926511+151462226
3897+149447378+147926055+147621564+148153151+148438465+148148446+148358740
3887+149793687+151378536+151674293+151371702+151996153+153015701+152883250
3878+151908424+151597885+152559069+154518404+156910461+158553162+158381542
3868+157314749+157015768+157374356+157079430+155837985+154678055+154579125
3858+156086954+159526397+164120490+166480989+164096205+159796691+156653616
3848+155411184+155823476+157347275+159319913+161330613+163335722+165063337
3838+165806023+165423607+164589118+163588966+162196952+160675254+159841331
3828+159995263+160818221+162411604+165138987+167985638+168881049+168153676
3818+167962468+168240783+167310928+165340081+164082427+164638729+166975564
3808+169925732+172053013+173619827+175685273+177532887+177673296+177060604
3798+177512695+178782336+179823474+180775476+182490922+185268921+188801648
3788+192808996+197287823+202199116+207440381+213288948+220235646+228342256
3778+237410826+247483313+258476810+269992274+281545216+291958950+299498020
3768+303977943+306763836+308869574+311123067+314561158+319257451+324120065
3758+328795308+334654089+343115961+354215058+366579666+378413993+389563195
3748+401477886+414636271+427273767+436727568+443705311+451118024+460228769
3738+471215779+484312036+499170024+513996911+526668578+536249631+543369940
3728+549610736+555968406+561914568+566143915+567441623+565491059+561923522
3718+558927015+556894807+554820353+551692280+546945444+541741821+539025730
3708+539863399+542473908+544871099+546104779+545797282+544638777+544359896
3698+545744912+548143711+551252231+555963289+562652576+569025156+571509034
3688+570341795+569428002+570670818+573410115+576710867+580011107+583108773
3678+585514078+585282048+581036000+575681113+572992578+573021778+573207176
3668+571857134+569378920+566721924+564394426+562810929+562548713+563293079
3658+563158152+561203641+560273000+563650096+570456074+575754717+574525240
3648+568148201+562691899+561223522+563029583+565758721+566912840+565810287
3638+564376080+564638736+566148081+567497172+569224843+572582497+576062945
3628+576834246+575810741+575597569+576958538+579700613+583666062+588032565
3618+591564433+594131124+596070980+597120724+597351694+598020922+600226065
3608+603186318+605117915+605659087+606136303+607650363+609988971+612431186
3598+614639180+616654466+618553537+620152273+621403459+622969596+625600169
3588+628819789+631266098+632742772+634372938+636941602+639953495+641808492
3578+641176248+638611822+636243137+635835358+637586345+640441748+642679746
3568+642213274+638096964+632502007+628916124+628372614+628912104+628483275
3558+627411457+627126107+627697026+627861337+626827015+625234418+624234376
3548+623991200+623518296+622085697+620241007+619076509+619250248+620688548
3538+622319299+622309650+619629521+615405474+612113749+611668254+614104586
3528+617419079+618898457+617404315+614186814+611096384+608735118+606823037
3518+605346290+604521742+604235916+604313394+604890453+605727537+605974733
3508+605326007+604424018+603628853+602212188+599447857+596040464+593415921
3498+592144818+592034851+593003756+594694150+595868150+595397548+593443147
3488+591115759+589530252+588960830+588556158+587400577+585745632+584583071
3478+584306419+584531797+584909937+585403417+585925292+586174060+585726555
3468+584119486+581116803+577536914+575315581+575711483+577830267+579606763
3458+579797971+578551610+576574149+574399887+572507139+571449062+571304670
3448+571203730+570193309+568681625+568081395+569005933+570658611+571862945
3438+572181332+572013477+571816276+571353970+569891732+567185290+563886036
3428+560802367+558292030+556661096+556349762+557076952+557659092+557382001
3418+556657551+555904998+554860627+553250561+551197595+548957551+547034287
3408+546081207+545988673+545797282+545103093+544695241+545102618+545435551
3398+544640312+543242797+542683974+543326707+544101297+544022065+543410543
3388+543277735+543829468+544075569+542927516+540258094+536968014+534575245
3378+534243774+535466416+536521606+536853698+537487770+538759822+539652894
3368+539471005+538520191+537290641+536210893+535858992+536551902+537853886
3358+538645799+538060371+536632596+535697752+535844191+536716395+537687054
3348+538174577+537988485+537412193+536262715+533868301+530825088+529152492
3338+529887723+532037608+534186104+535678346+536189038+535608397+534402858
3328+533251041+532438297+531889999+531463216+530970724+530302592+529740223
3318+529688036+529939691+529769460+528988109+528314970+528404032+528887169
3308+528791382+527798467+526646614+526189351+526361154+526386005+525815012
3298+524923292+524279646+524206554+524486313+524644959+524553411+524452106
3288+524522055+524893142+525777077+527000268+527883180+528132497+528132204
3278+528024101+527490641+526653119+526169580+526281739+526609593+526892531
3268+527173605+527225574+526515926+525005192+523438542+522447016+521830377
3258+521313216+521436485+522721475+524441544+525304758+524990281+524126519
3248+523350211+522948060+522680580+521826832+519986710+517700179+515947512
3238+515312381+515665962+516289106+516380800+515735545+514705865+513515236
3228+512162381+510863284+509853119+508926607+507815905+506670885+505658710
3218+504627276+503603369+503044546+503185138+503522018+503273981+502155494
3208+500520650+498990328+498087023+497930497+498094880+497903270+497020431
3198+495691696+494315706+493120656+492281416+491830512+491410198+490583311
3188+489410992+488302153+487423772+486670817+485996984+485373548+484599469
3178+483492165+482108976+480601020+479116014+477913837+477222608+476888469
3168+476437018+475500127+474046441+472361420+470914714+469959039+469238683
3158+468380037+467377730+466361425+465275939+464194875+463486652+463303594
3148+463332136+463286454+463171078+462901552+462162412+460835759+459292317
3138+458135054+457727714+457870718+457857233+457031551+455392541+453501109
3128+451829792+450398911+449041633+447838798+447123558+447028648+447184882
3118+447108465+446832032+446727583+446733102+446368593+445534616+444647574
3108+443970269+443373730+442699861+441934444+441101088+440219308+439324263
3098+438471209+437722420+437155995+436928716+437162025+437557306+437416275
3088+436478179+435429531+435100143+435470170+435798461+435415387+434235686
3078+432721042+431453703+430751510+430577004+430565236+430140134+428945522
3068+427261232+425736318+424723229+424112438+423710652+423521162+423610626
3058+423755530+423403849+422282146+420847793+419663158+418582021+417163236
3048+415646765+414778580+414753766+414982726+414917016+414605463+414313132
3038+413961487+413223918+412054413+410794165+409688871+408637847+407559926
3028+406659399+406110882+405718891+405123448+404250367+403370780+402734443
3018+402301228+401852847+401237670+400464980+399668645+399009394+398556883
3008+398277416+398090374+397841789+397341037+396554058+395622284+394688135
2998+393891909+393375625+393018462+392390458+391278184+390082037+389462438
2988+389612641+389949192+389686647+388743105+387749495+387172801+386861174
2978+386425803+385668937+384681504+383757003+383117450+382685733+382230225
2968+381596446+380743794+379798973+379035310+378549396+378120639+377583671
2958+377056533+376634208+376144640+375385435+374431295+373575244+372995590
2948+372596874+372183028+371649093+371038959+370528706+370225704+369930596
2938+369349223+368585670+368103264+368111816+368267319+368061858+367316906
2928+366237962+365138662+364150570+363128820+361857498+360424973+359292964
2918+358787644+358662072+358468635+358126492+357818922+357650007+357579108
2908+357412093+356906663+356140186+355533890+355283258+355091867+354612568
2898+353815465+352862970+351913361+351097694+350538797+350303332+350294707
2888+350253484+349982277+349495412+348856188+348058939+347191815+346488307
2878+346097192+345968185+345965737+345926889+345641502+344964526+344010861
2868+343126158+342577714+342327374+342167778+341961659+341643674+341153922
2858+340542948+340001374+339625208+339275573+338813487+338338061+338024973
2848+337848968+337666092+337468525+337301547+336998947+336335493+335400100
2838+334480825+333668044+332899411+332271041+331977212+331983133+331935111
2828+331440974+330471193+329426126+328709059+328359315+328194786+328069214
2818+327870550+327525411+327074252+326571527+326004737+325397271+324799124
2808+324189173+323602758+323199986+323016891+322868076+322602606+322208496
2798+321654898+320879504+319911330+318864802+317851641+316927029+316096890
2788+315382344+314808866+314307237+313780136+313277557+312898430+312581613
2778+312211184+311769052+311221521+310518196+309798900+309252904+308744697
2768+307976575+307027661+306338004+306142246+306200536+306061662+305426640
2758+304343420+303163554+302222626+301554859+301007109+300485508+299913145
2748+299163132+298293486+297626687+297315481+297052022+296471892+295625233
2738+294809493+294153293+293592350+293101283+292752598+292603272+292616977
2728+292651421+292473808+291867110+290837119+289702917+288869232+288493760
2718+288422367+288349202+287950688+287072070+285965734+285113904+284649735
2708+284253194+283737184+283304280+283093611+282933978+282644224+282201288
2698+281620939+280974059+280411215+279965885+279503872+278957639+278410163
2688+277943326+277575181+277286962+276998779+276613531+276149690+275722926
2678+275368120+274986161+274514189+274043953+273666269+273279632+272738113
2668+272151022+271802995+271762941+271792982+271672618+271411808+271097038
2658+270702781+270145858+269446936+268776465+268362455+268324850+268496195
2648+268435127+267823093+266897586+266257083+266164092+266290760+266218143
2638+265887970+265449364+264960581+264421986+263932837+263633929+263514277
2628+263383059+263098915+262724557+262346490+261926614+261498242+261270396
2618+261324448+261430339+261330313+261026946+260706859+260523124+260490342
2608+260532370+260594315+260632506+260532133+260232968+259904475+259758310
2598+259736255+259616640+259353345+259093741+258929376+258809542+258679822
2588+258575977+258529674+258456125+258246187+257942162+257681681+257479089
2578+257220180+256873030+256548283+256332882+256189531+256060213+255985696
2568+256055955+256269621+256520709+256739692+256977241+257309406+257717514
2558+258106691+258392627+258502045+258337844+257877092+257303468+256880723
2548+256665395+256491875+256240878+255950904+255689309+255483427+255330501
2538+255142308+254770527+254199936+253624594+253247824+253089452+253045159
2528+253045341+253062646+253026392+252868112+252625411+252389160+252197897
2518+252074737+252056574+252096354+252069164+251968370+251966817+252194023
2508+252531908+252709430+252565421+252162338+251670101+251225630+250895200
2498+250669566+250484479+250306044+250171957+250109171+250068898+249984696
2488+249851578+249722150+249638314+249584336+249504245+249321936+248941822
2478+248341191+247694657+247258829+247086607+247000614+246852275+246627371
2468+246330527+245981843+245693514+245546362+245436852+245212150+244879600
2458+244550870+244289037+244095472+243928622+243700922+243365267+242995459
2448+242723831+242644545+242759336+242917598+242872372+242527434+242060396
2438+241694005+241447795+241226985+241030880+240918154+240858109+240773377
2428+240666444+240573179+240455428+240252068+240004470+239865998+239966974
2418+240256527+240538917+240719545+240890891+241103697+241238241+241203212
2408+241086758+241018454+241004165+240960218+240845263+240726397+240728535
2398+240916856+241210850+241428864+241475497+241482422+241666340+242044663
2388+242402995+242518919+242296902+241706741+240672785+239035876+236673074
2378+233717462+230589956+227734424+225365812+223456436+221810390+220146383
2368+218328736+216595493+215339940+214607908+214117517+213870083+214412734
2358+216352919+219837351+224736547+231211017+239320258+247789183+254219232
2348+256876301+256071798+254102651+253209213+253347594+253104290+251832091
2338+249781757+247329911+244764426+242321333+240180457+238516687+237470433
2328+236918553+236367898+235348158+233991410+232992300+232897847+233633845
2318+234713612+235676632+236350721+236834808+237260769+237664510+238122941
2308+238792626+239692660+240622424+241377408+241913609+242262641+242423643
2298+242419824+242370085+242390533+242461816+242496571+242493391+242520545
2288+242601494+242702635+242764799+242690429+242386458+241880572+241344206
2278+240968678+240840676+240907756+241009957+240983571+240789220+240507506
2268+240212325+239936805+239733464+239632250+239574179+239506861+239472544
2258+239500118+239500685+239361719+239081851+238751622+238431699+238124458
2248+237882561+237828473+237985054+238206284+238362226+238471077+238596978
2238+238733367+238833412+238903799+239040974+239349074+239821814+240350212
2228+240831357+241227990+241574829+241966929+242498014+243213784+244130264
2218+245211382+246314959+247302849+248242371+249355906+250730653+252224064
2208+253684785+255094963+256469143+257814672+259209701+260746164+262399025
2198+264048670+265599220+267069407+268582151+270183555+271724933+273066368
2188+274275416+275491170+276723059+277821135+278592071+279051398+279487390
2178+280069932+280612090+280901716+280935850+280733952+280279047+279642856
2168+278917822+278106887+277180796+276137667+274985375+273722440+272370352
2158+271025171+269785954+268633023+267500246+266376625+265287776+264385458
2148+263904916+263848307+264275912+266036949+270221033+276730660+284368258
2138+292274706+300369621+308671057+317061299+325498722+334049766+342860506
2128+352038531+361485863+371031175+380588510+390016108+399016009+407162088
2118+413977933+419283483+423383822+426672112+429474195+432524315+437037696
2108+443961461+453347141+464565779+476827364+489059164+499649360+507242609
2098+511613571+513171961+512341565+509646342+505473130+499885812+492927035
2088+484353040+473433786+459765915+443629113+425615607+406748132+388284417
2078+370979463+355229353+341463429+329715387+319607013+311021689+304010999
2068+298332133+293685798+289840403+286407263+283171874+280336150+278038674
2058+276228611+274963137+274236805+273901405+274025771+274824390+276411834
2048+279057263+283211362+289171905+297238625+307915690+321541350+338122952
2038+357515043+379144253+401740980+423714380+443476351+459665779+471744598
2028+480061676+485264422+488124832+489395277+489398383+488122018+485492834
2018+481379228+475829004+469159817+461475897+452584136+442495350+431505269
2008+419843768+407592123+394908141+382187941+369914186+358334803+347434662
1998+337224142+327880710+319586693+312330726+305920248+300207485+295194357
1988+290832697+286956384+283519517+280613680+278194597+276076653+274170712
1978+272503342+271077377+269829773+268670281+267578455+266667676+266026552
1968+265527700+264948174+264234250+263510605+262891535+262398586+262012461
1958+261715818+261503303+261413492+261504929+261740632+261980538+262140188
1948+262277217+262523847+262948584+263357112+263312782+262654645+261811312
1938+261272205+261073249+261010665+261031112+261202914+261486346+261717773
1928+261842376+262064666+262576967+263215040+263714165+264183871+264817924
1918+265324286+265276411+264883652+264760145+265157490+265845613+266496769
1908+266953776+267231963+267422897+267612059+267847030+268140311+268481211
1898+268852572+269210137+269484542+269730057+270156840+270770062+271147490
1888+270940713+270403763+270025202+269951544+270016943+270055864+270044480
1878+270061218+270167292+270374581+270820751+271794864+273308101+274690742
1868+275023291+274201520+273025748+272232391+272014523+272200815+272523936
1858+272815188+273074025+273342381+273606772+273911145+274398119+275198510
1848+276451139+278197576+279853452+280267407+279230217+277991512+277606172
1838+278044887+278705162+279241381+279959051+281316713+283037129+284144725
1828+284273184+284040752+283821294+283430308+282978235+282945655+283446553
1818+284107266+284646519+285226100+286121858+287237696+288124737+288517752
1808+288683360+289119169+290114369+291605770+293223492+294497318+295229405
1798+295710915+296524792+298124643+300326954+301997339+302050732+301079415
1788+300584018+301228559+302662163+304304334+305849367+307093627+307909185
1778+308643026+310067475+312696221+316121339+318881358+319712886+318984636
1768+317812098+317042770+317392661+319135242+321526147+323386589+324546592
1758+325623453+326779656+328026711+329938719+332968520+336465815+339103807
1748+340466786+341280663+342281546+343780585+345738129+347692019+349113471
1738+350416661+352763236+356226581+358636453+358145752+356256585+354839445
1728+354220357+354276675+354905812+355920472+357500680+360324143+364607394
1718+369081159+371474659+371135550+369604716+368401552+368323563+369760365
1708+372624064+376086203+379098059+381811519+385362719+389701375+392889784
1698+394034657+394129202+393433478+392241826+391905201+393131572+395474821
1688+398696524+403461780+409564359+413794875+413729311+412093517+412021705
1678+414262954+418052836+421931671+424988041+427824769+431132026+434086762
1668+435584120+436513994+438478043+441603009+444644650+446720493+448582032
1658+451723736+457279661+465640703+474898216+479847846+480249156+481463101
1648+485228388+489260130+490931812+491292228+492865200+496556737+502179103
1638+509321230+516921569+522588229+525134272+526793419+529943199+535113931
1628+541629223+548777673+556459619+564520619+572318635+579848916+588237879
1618+598093356+607641263+614005108+617351762+619722348+621821909+623298875
1608+623980894+624325595+625248159+627604346+631678701+637228122+643873042
1598+651236820+658902028+666438303+673499846+680013274+686129887+691768845
1588+696589102+700639556+704508962+708643910+712969116+717298196+721789979
1578+726699261+731690626+736187817+740988047+747617326+756425470+766240819
1568+775732226+785353224+796361358+808924666+822737259+838541968+856363645
1558+870760607+877568083+880936810+883748724+885389489+884868344+882408806
1548+879510205+877731955+877125951+876714298+876042804+874298834+869531934
1538+862864063+857488820+853581845+849349319+844238011+840003512+838070453
1528+837914768+838158310+838292360+838884988+839885103+840156785+839336988
1518+838213275+837138387+836154864+835770766+836629156+839170850+843558404
1508+848584268+850266183+846221941+840724270+837619989+837241154+838654749
1498+840271539+840119654+837857025+835631454+835472040+837280770+838967874
1488+838542772+836415290+834350374+833366412+833416188+833986669+834616574
1478+835150144+835893707+837465399+839717796+840769440+839116177+836302363
1468+834737176+835110309+836458195+837591775+838674045+840709724+843767738
1458+845946239+844568093+840501194+837080206+835306195+834454310+833779381
1448+832870631+831644516+830318046+829027757+827723361+826731067+826689112
1438+827476092+827693174+826129887+823428342+820916031+819280456+818497059
1428+817978253+817197706+816271706+815777167+816115801+816837729+816524604
1418+814272646+811385667+809581688+808890679+808357620+807343983+805970077
1408+804801632+804205495+803831485+803059489+802079182+801723006+802293926
1398+803300107+804263750+805000880+805105840+804252859+802896348+801753997
1388+800988361+800478765+800691096+802516637+806249361+811200233+816175152
1378+820376979+824016658+827798646+831713442+834926776+837047388+838547962
1368+840001684+841784466+844077721+846357380+847399231+846769618+845634429
1358+845223507+845621492+846372876+847231704+847938356+847948515+846973252
1348+845482179+844327256+844142699+845210716+847429198+850243597+852915394
1338+855059761+856799272+858398228+860096881+862270046+865276530+868932654
1328+872558007+875837197+879282597+883579590+888782117+894361139+899797487
1318+904922756+909762528+914261766+918245561+921518245+924039181+926289823
1308+929328687+933728593+938414873+941383057+941889071+941325607+941481804
1298+942443984+942777356+941534722+939428509+937860252+937295326+936853997
1288+935407950+932916616+930326317+928271414+926482566+924437239+922053277
1278+919653381+917603888+916113327+915312680+915434743+916529073+917953559
1268+918774964+918886502+919241290+920826285+923763844+927334304+930502906
1258+932707647+934279851+935845769+937514893+938895890+939622933+939514758
1248+938333448+935872009+932419665+928680728+925034471+921296192+917358007
1238+913628426+910724708+909021524+908339504+907804911+906278462+903279214
1228+899474129+896135954+894162403+893662821+894315603+895773346+897636894
1218+899459657+901044213+902484341+903822505+904925460+905748401+906471498
1208+907502238+909395315+912292893+915413108+917568877+918374787+918741415
1198+920009850+922559803+925394083+927368365+928634388+930263677+932723873
1188+935530232+938172500+940385646+941836664+942733500+944208566+946869472
1178+949605371+951024228+951501298+952630639+955236435+958686513+961568887
1168+962810424+962719937+962862100+964547378+967572354+970572772+972589301
1158+973979872+975745039+978138868+980404567+982078880+983579089+985278838
1148+987150061+989329512+991963594+994690940+996900578+998100233+998032624
1138+997290961+997607887+1000074808+1003324615+1005046292+1005009234+1005104473
1128+1006695389+1009592747+1013331172+1017392006+1020531736+1021754050
1120+1021636518+1021596610+1022333229+1023616867+1025037041+1026581616
1111+1028494501+1030339557+1031291431+1031783631+1032854499+1034002917
1103+1034294992+1034666006+1036618287+1040196130+1044508765+1048599712
1094+1051012398+1050054823+1046096099+1042179622+1041115552+1043335788
1085+1047727800+1052942533+1057797289+1061763322+1064621577+1065480917
1077+1063774808+1061116826+1059878651+1060163051+1060351628+1060186733
1068+1060845216+1062612795+1064865118+1067047274+1068171571+1067217504
1060+1064912993+1063342397+1063883130+1066288435+1069141865+1070497133
1051+1069378244+1067752098+1068766100+1072110122+1073741823+1071676907
1043+1068949122+1068421838+1068576792+1066889030+1064281773+1063777147
1034+1066509683+1070599753+1072859532+1071288570+1066837427+1062964440
1025+1063001205+1066917974+1070901549+1071610686+1070274056+1070076124
1017+1070941384+1069991776+1066615228+1063505757+1062337458+1062242731
1008+1061785250+1060528729+1059269577+1059155481+1060571195+1062605267
1000+1063455397+1061738910+1057795389+1053523320+1050581157+1049291233
991+1049320835+1049925231+1049867123+1048667248+1047269222+1046488017
983+1045858916+1044647858+1042776343+1040395963+1037712837+1035405475
974+1034281835+1034363260+1034398344+1032487140+1027887986+1022084352
965+1017230473+1013892444+1011147044+1008289009+1005160242+1001565588+997663802
955+994033114+990826432+987981626+985911667+984634681+983391901+982185156
945+981719926+981182483+978567624+973927392+969944548+968800515+970006384
935+971436717+971753716+971256253+970518684+969203616+967065974+965320031
925+965538575+967687912+970138972+971147639+970143358+968034075+966324531
915+965920553+966711771+967835850+968130921+966940549+964856848+962825920
905+960739076+957693853+953729794+950674192+950348787+952350844+954614204
895+955841196+956139995+955643994+954047451+951496767+949133198+948522516
885+950459375+954154603+957571863+958811938+957267801+953715541+949758863
875+946759177+944872678+943549205+942864773+943432843+944972229+945743347
865+944149508+940994208+939108002+940396610+943846323+946675633+947320887
855+946779496+946978744+948622871+950814455+952176447+951980780+950174975
845+946859093+942733793+939328447+937860106+938548630+941014382+944513578
835+947587160+948285698+945695984+941512502+938890042+938931266+939712909
825+939614601+939735349+941604817+944843368+948198939+950806561+952141436
815+952650667+953846667+956335370+959100797+960798939+960695441+959184560
805+957826881+958126703+960395910+963368188+964273649+961033563+955455418
795+951825753+951748056+953133730+953909015+954001549+953773064+953471560
785+954179601+956837583+960619352+963594992+964704598+964647806+964560388
776+964213714+962275246+958586962+955234973+954233762+955204494+956409412
766+956936842+957125930+957916272+959802259+961583871+961139035+958494428
756+956312565+956612972+958912951+961858696+964714246+966768491+967143232
746+965621973+963300651+962203397+963603982+966560618+968843859+968933031
736+966978776+964504034+962938262+962308576+961677502+960670224+959512596
726+958373095+958083506+959903637+963201612+965225523+964121691+961048182
716+958726567+958894313+961165494+963701998+965229762+965971132+965997592
706+963832540+957936737+949231506+941018621+935798698+933626995+933671874
696+934893530+935702363+935451147+935246855+935656827+935253507+932528499
686+928072166+923482441+919591253+916151042+912507271+909039139+907534764
676+909247377+911996067+910350186+900380102+884296986+872563050+876187160
666+889748390+900325794+904249142+905295232+906868240+907566339+904310174
656+897771456+891673555+887994114+885669576+884387181+886852201+893843796
646+899614027+897565337+889408221+882282211+879024510+877473064+876241760
636+876058957+877043503+877396902+875209119+870154822+862983641+855513953
626+850603428+850575580+855892715+864807939+873749841+878647210+877797226
616+873681281+870006446+867070130+862242564+855429386+851012523+851388799
606+853015749+851985155+848966538+845390376+840141363
##END=
