##TITLE=<SNM>
##JCAMP-DX=4.24
##DATA TYPE=INFRARED SPECTRUM
##DATE=2/5/2025
##SAMPLING PROCEDURE=Instrument type and / or accessory
##ORIGIN=Admin
##XUNITS=1/CM
##YUNITS=ABSORBANCE
##RESOLUTION=4
##FIRSTX=4497.3318
##LASTX=599.83466
##DELTAX=-1.4281778
##MAXY=1.8364758
##MINY=0.39132273
##XFACTOR=1
##YFACTOR=1.7103514e-09
##NPOINTS=2730
##FIRSTY=0.40599194
##XYDATA=(X++(Y..Y))
4497+237373406+237875951+238683864+239643720+241091344+242660088+243370667
4487+242787271+241281326+239629797+238758145+239186113+240454664+241532903
4477+241950555+242142297+242473226+242479882+241720462+240809919+240540864
4467+240516557+239895715+238949555+238648056+239311292+240493173+241597915
4457+242186712+242124541+241716228+241450084+241479096+241535796+241359563
4447+241041440+240839767+240696919+240134486+238894859+237587904+237209301
4437+238049431+239499774+240791361+241362699+240809187+239386009+238259068
4427+238338454+239130563+239476147+239106151+238624115+238133941+236959431
4417+234978628+233349839+233357297+235049076+237327022+238959365+239432846
4407+239205628+239158216+239656509+240286133+240438180+239831610+238594946
4397+237176403+236087726+235567844+235632036+236388511+237843245+239371459
4387+239936541+239188831+237888236+236914179+236458384+236384817+236567532
4377+236721235+236605832+236247389+235536009+234368677+233412289+233531439
4367+234380526+234763782+234211995+233191658+232301954+232065518+232716766
4357+233653063+233858883+233212916+232751371+233347190+234472145+234673975
4347+233398036+231722932+230892733+230922250+231095939+231042080+230844153
4337+230695973+230779751+231137306+231603207+232015945+232302267+232368551
4327+232295994+232491377+233227779+234210723+234969759+235398615+235509122
4317+235100061+234225743+233469006+233163517+233007427+232881272+233131072
4307+233672649+233884620+233633548+233411575+233478294+233614415+233491397
4297+232859265+231795558+230910855+230841504+231543771+232415597+232988416
4287+233261757+233492460+233780107+233825672+233162210+231726957+230101774
4277+229029582+228796683+229214858+229950476+230633419+230955305+230925334
4267+230817632+230862118+231217006+231979109+232905858+233531509+233774844
4257+233922466+234063484+234197306+234608493+235436915+236274589+236647233
4247+236416617+235619839+234516787+233589585+233023370+232699811+232874058
4237+233912604+235260908+235776173+235212938+234320742+233530115+232637675
4227+231741297+231456439+231991934+232750291+233190142+233506766+233945833
4217+233969077+233006747+231736767+231531382+232686603+234052071+234422345
4207+233768083+233085507+233316471+234412919+235394520+235430764+234753275
4197+234277041+234461812+234860280+234818060+234339979+233997044+234151723
4187+234665646+235241567+235653730+235809280+235913776+236237404+236503392
4177+236086681+235105166+234546688+235072861+236324441+237423415+237729723
4167+237139184+236051988+235149181+234957405+235501456+236358924+237022874
4157+237237372+237041414+236602138+236148294+235971939+236223290+236714579
4147+237143540+237368527+237331029+236912611+236076696+235109505+234492358
4137+234436843+234752926+235269202+236010047+236773840+237049447+236680618
4127+236180704+236097170+236362618+236413028+235821617+234812205+234129715
4117+234281937+234988403+235480250+235267129+234588437+234147419+234325795
4107+234739596+234840206+234810619+235300096+236374833+237357828+237643907
4097+237207907+236419335+235752493+235591646+235949113+236349671+236277638
4087+235765631+235313774+235318043+235749688+236158575+235914002+234922852
4077+234102463+234391016+235386174+235846848+235388822+234706106+234316787
4067+234159947+234288471+235007222+236241743+237300554+237455616+236617506
4057+235355019+234363711+233991015+234152385+234580021+235129177+235736096
4047+236230260+236514561+236652007+236468543+235690287+234767406+234625203
4037+235334667+236046918+236379137+236818761+237635630+238320838+238389927
4027+238230840+238678027+239775328+240514936+240077681+238752116+237438087
4017+236872987+237238208+237991529+238331816+238083253+237744674+237674714
4007+237767134+237815087+237725315+237528538+237415609+237586057+238038280
3997+238658807+239402336+240264021+241196955+242082460+242668487+242639910
3987+241963188+241073153+240481568+240213472+239865640+239305733+239074543
3977+239827062+241443793+242996611+243726217+243760073+243599244+243323359
3967+242863730+242722887+243624858+245412281+246877610+246967991+245870864
3957+244685080+244305535+244832893+246035423+248015145+250686522+252805624
3947+253044778+252171889+252105797+252866994+252540543+250409574+247995908
3937+246915090+247713175+250274219+253747568+256329626+256679827+255655692
3927+255288240+256273954+257316438+257170959+256670888+257479690+259498112
3917+260531430+258683439+254593518+250556551+248217724+247914099+249801889
3907+254637062+262627654+271714362+278198311+279850118+276881493+270605072
3897+263573483+259197205+259460875+263083396+265631111+264065678+261568599
3887+262822253+267369292+270806832+271928912+272915915+272637556+268789543
3878+264475227+264396241+268614529+274082358+279065433+282393964+281807432
3868+278257764+276001564+276360495+276307490+273514436+269863861+268537408
3858+271442154+279700405+292482905+301430233+296422834+283156294+271757697
3848+266077862+266338239+271066843+277867782+284771893+290959396+295402236
3838+296174114+293061265+288473400+284154449+280180455+276919671+275443226
3828+275854413+277408032+280783698+287591432+295770837+299007053+296277686
3818+293040739+290612122+285889146+279055971+274027958+273657126+278303661
3808+285414881+290903811+294353270+298383877+302147398+301959177+298763073
3798+296174846+293949958+290406615+286752957+285344363+286677647+289962199
3788+294545743+299724288+304484570+308874334+314378442+321332735+327227434
3778+329882955+331142201+334840380+343471276+356937102+372053219+384572920
3768+393814132+401895559+409249086+415776371+423260409+432421224+440179458
3758+443653276+445210450+449602270+459092621+471388903+480474095+484372379
3748+488651148+497245905+506978249+511034924+510245864+512183210+521377829
3738+537688059+556011119+568003270+570357832+568327508+568219301+571846457
3728+577498255+582470736+585712074+588803282+592234968+592902472+588684864
3718+582833030+580639367+584351207+591777674+597102516+595231385+587915669
3708+580782389+577418241+578237097+580556635+580672544+578365133+576731465
3698+577222039+578920458+581374898+585448892+591762132+599045438+603778608
3688+603370661+599322142+594556004+591442772+591992555+596908754+605147908
3678+614248399+619006800+615119703+608490380+607248976+609864838+607905608
3668+598588423+588149299+581619610+578847065+577429219+576623293+577721291
3658+580579496+582598772+583713917+588379305+599184765+611565208+614365772
3648+602612339+585693883+573426248+568548418+569224077+571844993+573525394
3638+573840676+574112327+575458104+578632637+584807037+594088884+601506081
3628+599421880+590150558+582444424+580770993+585336816+593381093+599799160
3618+601831226+602403522+604570664+607459187+608996323+609507284+610285052
3608+610515824+608602874+605253014+603094793+604114346+608087452+612986504
3598+616525665+617288030+615696251+614384312+616758389+624243195+633916539
3588+638996669+635628340+628281538+623240788+622146866+623104527+624284247
3578+625529206+627037207+628091051+628233655+628984380+632925354+640555063
3568+648096951+650196764+646413449+640899514+636430711+633313646+631510610
3558+631103360+631773234+632993728+634025200+633857086+632651717+632456142
3548+634668658+637886787+639545547+638865915+637101352+635634055+634756409
3538+633857295+632190869+629674955+627281710+626591832+628326563+631022370
3528+632350340+632064784+631614600+631339499+630113569+627412534+624317772
3518+622134530+621398790+622106929+623568511+624290172+623204335+620916127
3508+618923231+618180313+618927901+620857162+623287347+625685749+627658641
3498+628394171+626840656+622925750+618327307+615172953+614303322+615129391
3488+616587976+617840601+618329329+617624814+615328381+611393052+606823047
3478+603474651+602703296+604121455+605825728+606190671+605102465+603360276
3468+601754766+601076388+601841402+603275453+603852000+603219415+602041019
3458+600525211+598812923+597634806+597133463+596441215+595432326+594994270
3448+595148722+594875852+593699407+592138574+591189138+591760389+593326240
3438+593437758+590450402+586069838+583332003+583212713+584461122+585533088
3428+585665794+585000590+584530821+585007560+585453074+584116601+581371099
3418+579575730+579554611+579598278+578165655+575699192+573469043+572244471
3408+572395299+573747071+575121634+575314560+574596872+574211961+574490686
3398+574637228+574200182+573530064+572782336+571477855+569354310+566973785
3388+565182389+564341683+564122724+563931332+563486689+562904251+562363564
3378+561976318+561972937+562656368+563942971+565139315+565497253+565001102
3368+564252224+563696935+563478081+563683588+563939974+563257310+561271594
3358+559122992+558230186+558754878+559845837+560762271+561220121+561263927
3348+561162097+560965965+560288354+558976520+557668414+557125008+557314066
3338+557596241+557526299+557224573+557092320+557314868+557711419+558059494
3328+558305879+558344910+557807324+556310405+553948873+551434701+549730812
3318+549564545+551037872+553343819+555055723+555432027+555415752+556278692
3308+557716367+558528009+558457404+558093821+557631404+556882910+555979092
3298+555253598+554892315+555002508+555490330+555703991+554952744+553684959
3288+553237737+553947375+554525595+554112979+553807594+554946366+557002652
3278+558589065+559563244+560550317+561138295+560247615+557993176+555662520
3268+554076805+553280497+553479557+554957692+557188365+559052875+559939826
3258+560041795+559734249+559073541+557803212+555810839+553573511+551936183
3248+551521093+552280390+553243487+553124372+551784763+550463868+550195528
3238+550724088+551285790+551589188+551538866+550786782+549156982+547045251
3228+545049079+543565821+542854650+543029071+543884205+544951780+545753246
3218+546013291+545763631+545210188+544273716+542543829+540116955+538079348
3208+537573893+538649274+540278028+541183589+540769091+539562362+538564172
3198+538034253+537319074+536023689+534692896+533972247+533772386+533573919
3188+533211729+533001169+532897458+532076999+530052287+527722189+526406661
3178+526251720+526329957+525771008+524232967+522060667+520443448+520482967
3168+521840071+523065827+523189333+522276803+520768070+518976360+516952832
3158+514560703+511992514+510035967+509351038+509624605+509865519+509566337
3148+509207772+509345706+509542151+508845304+507250667+505819160+505167791
3138+504779081+504036999+502998871+501917600+500900278+500155687+499832982
3128+499709057+499576804+499565060+499683373+499664555+499517665+499521603
3118+499561784+499154465+498175825+497075178+496344596+496032415+495739472
3108+495014744+493783064+492418851+491437702+491046135+490911546+490520084
3098+489779918+489022781+488498891+488152209+487759353+487124014+486318053
3088+485713800+485487628+485291251+484821517+484362063+484181090+483781996
3078+482512991+480690440+479322428+478862486+478927968+479037988+478955464
3068+478552013+477969785+477639588+477692559+477700295+477233558+476299072
3058+475126461+473984692+473248290+473123738+473275019+473015252+472002809
3048+470721050+469990537+469913625+469656750+468561470+467072880+466065873
3038+465677058+465475246+465417605+465790354+466421441+466735608+466395234
3028+465290858+463371773+461061714+459202257+458111298+457329209+456577369
3018+456239260+456561791+457045675+456988835+456277177+455396986+454851838
3008+454746140+454878881+455007371+454859540+454157395+452974503+451891350
2998+451426878+451387638+451077304+450178017+449144803+448559612+448300577
2988+447689041+446445929+445095796+444350368+444369918+444632090+444383545
2978+443270561+441578868+439894808+438677450+438102053+438015870+437981369
2968+437559518+436705291+435898737+435711282+436091768+436324352+435907902
2958+435102464+434358221+433721942+433065275+432409933+431791566+431138385
2948+430440561+429834984+429433833+429189853+428977481+428651430+428028777
2938+427117222+426351477+426166288+426292896+425997478+425054419+423938403
2928+423082677+422439986+421772725+421043746+420383421+419782896+419075455
2918+418309675+417790210+417573517+417312461+416751456+416026101+415407351
2908+415003935+414710050+414320574+413742179+413099975+412559183+412117885
2898+411692549+411372144+411390022+411706489+411819505+411275890+410235497
2888+409257276+408719411+408650200+408805245+408704495+407937635+406627857
2878+405363906+404592899+404186590+403612656+402551772+401363548+400803136
2868+401203625+402083641+402655414+402603488+402196971+401679284+400909426
2858+399867988+399109701+399189750+399851923+400233349+399782503+398651815
2848+397334161+396209607+395363256+394692023+394150011+393809428+393686863
2838+393661004+393598171+393418801+392974472+392055425+390751362+389648275
2828+389289571+389478176+389490965+388978889+388242417+387627152+387109779
2818+386561215+386098241+385966162+386106535+386051473+385431399+384442792
2808+383541797+382838537+382150332+381520743+381195181+381064461+380661846
2798+379865190+379107774+378710387+378478604+378096376+377492750+376757255
2788+376020156+375394087+374870371+374386697+373972791+373614157+373133584
2778+372470436+371857679+371490193+371223316+370796516+370195226+369615751
2768+369157168+368740474+368338905+368042163+367803828+367375216+366624003
2758+365721231+364927989+364343879+363856267+363262190+362524848+361876859
2748+361508083+361257655+360837755+360246432+359726688+359409420+359183491
2738+358838134+358179447+357124766+355875172+354895069+354513608+354598919
2728+354743056+354642516+354208188+353535143+352901163+352563647+352449132
2718+352247808+351828291+351343223+350968732+350714436+350449372+350039543
2708+349483069+348863447+348188032+347449713+346804094+346435806+346280099
2698+346062291+345572448+344823745+344030155+343444059+343144877+343025448
2688+342973139+342924734+342781363+342472110+342081344+341736231+341404465
2678+340987911+340539016+340153896+339737168+339162537+338584177+338249030
2668+338086842+337850493+337575776+337539707+337804945+338084472+338053595
2658+337623031+336884155+335946011+334942349+334095719+333579426+333297704
2648+332937117+332305124+331581965+331162240+331213155+331469228+331517703
2638+331175343+330550843+329908430+329512506+329458699+329626812+329832179
2628+329937633+329831169+329434374+328748748+327869045+327002377+326415758
2618+326238897+326373520+326660853+327007151+327283820+327288978+326941878
2608+326415444+325940726+325508559+324909952+324129326+323529987+323442898
2598+323659243+323640320+323229237+322760862+322422962+322005781+321414736
2588+320943851+320849967+321017871+321164970+321122942+320876766+320503564
2578+320106665+319749877+319444179+319187130+318988070+318825986+318605355
2568+318256582+317875330+317610510+317430165+317192109+316895750+316642709
2558+316411553+316104391+315784648+315649084+315722268+315765411+315599075
2548+315341852+315174749+315065566+314904527+314714285+314572936+314499996
2538+314491284+314533521+314575306+314546381+314364188+313952966+313354289
2528+312772688+312438901+312456813+312752266+313098216+313255351+313160805
2518+312924666+312643641+312332436+312048971+311937000+312074132+312369690
2508+312652527+312762233+312555611+312017049+311402446+311053395+311017744
2498+311055102+310993768+310844229+310620426+310306922+309966722+309718908
2488+309684721+309975574+310530550+310999100+311040048+310685560+310205719
2478+309768882+309422933+309211850+309138806+309136297+309135321+309091446
2468+308988640+308870640+308803974+308816868+308906884+309008992+308959506
2458+308676808+308359400+308277191+308393587+308422338+308225195+307939988
2448+307732356+307591111+307401879+307144343+306957550+306980934+307162290
2438+307306741+307324026+307316394+307382956+307464887+307463563+307403761
2428+307377938+307392853+307375812+307312212+307291337+307391041+307555914
2418+307624985+307483845+307205921+307051887+307235543+307627877+307845059
2408+307744692+307637566+307838437+308228994+308461927+308414358+308267119
2398+308258964+308462171+308732044+308838544+308668270+308308172+307971178
2388+307837775+307871300+307761316+307119321+305742144+303668677+301051072
2378+298040053+294773274+291405415+288087739+284900191+281824334+278789321
2368+275799769+273109016+271153061+270161841+270034518+270735339+272544596
2358+275834078+280789204+287312184+294981883+302937294+309878275+314496372
2348+316016361+314593462+311571535+308837568+307289421+306559361+306108933
2338+305726253+305200236+304137192+302367054+300376249+298946798+298325574
2328+298085253+297779763+297387778+297199487+297542788+298512819+299793777
2318+300833821+301293624+301315997+301358095+301766216+302522029+303381135
2308+304148692+304758730+305205743+305533675+305821357+306065267+306140577
2298+305971801+305675129+305463314+305472724+305697502+305988320+306117402
2288+305974798+305708166+305570581+305636690+305730783+305606963+305181488
2278+304613652+304136286+303815602+303559320+303318894+303128721+302971760
2268+302785420+302608525+302589009+302824173+303232607+303567161+303578591
2258+303245954+302823162+302578136+302534365+302546632+302540325+302558133
2248+302654770+302855502+303141650+303407202+303521543+303463902+303323599
2238+303207899+303192600+303278922+303390475+303481675+303561655+303567509
2228+303397375+303122274+302978416+303111680+303436406+303742000+303891225
2218+303899868+303801697+303546460+303173224+302925724+302987616+303237381
2208+303415775+303411245+303289795+303144508+302997966+302861148+302825636
2198+302968972+303186501+303284672+303226125+303139037+303128129+303192495
2188+303284777+303377406+303467073+303524087+303485056+303346251+303209920
2178+303182738+303274322+303417831+303537365+303578138+303521160+303407655
2168+303333322+303372911+303520985+303739979+304018878+304313425+304489902
2158+304443866+304254495+304110427+304091888+304137366+304224594+304434979
2148+304786958+305138902+305330503+305339320+305276696+305286105+305427698
2138+305630731+305789783+305885654+305958733+306006825+305968247+305797554
2128+305561415+305450281+305625015+306051014+306534967+306898794+307089769
2118+307184977+307317683+307560967+307898239+308289736+308680990+308982890
2108+309161667+309294862+309450325+309611607+309771949+309956895+310134626
2098+310255205+310363622+310558360+310898943+311393315+311941217+312298946
2088+312290373+312042524+311849703+311851480+311965751+312080858+312204434
2078+312399207+312630572+312793458+312898599+313065074+313322785+313633432
2068+314050335+314584506+315020715+315142374+314998342+314744604+314458630
2058+314239462+314221271+314381787+314546625+314625419+314709023+314924078
2048+315260792+315577085+315795521+316012946+316301255+316517739+316501708
2038+316354714+316319063+316446193+316559001+316525580+316427793+316422426
2028+316556317+316782350+317047240+317301745+317575173+318064562+318892270
2018+319710079+319876450+319198909+318212533+317589601+317535480+317796292
2008+318022290+318059509+318012323+318092616+318399151+318815566+319094047
1998+319142941+319346113+320335312+322111862+323657849+323937062+323057151
1988+321879277+320982673+320517434+320465195+320607938+320640731+320531583
1978+320491820+320617347+320827419+321073142+321447145+322147408+323241295
1968+324312599+324648059+324106604+323394597+323155043+323293743+323440982
1958+323547272+323719080+323889563+323923785+323828890+323778533+324031051
1948+324832412+326387007+328672881+330896618+331585450+330177048+327954984
1938+326482180+326060433+326135325+326269007+326371359+326511733+326757037
1928+327209173+328235033+330104109+332164612+333406678+334051495+334957579
1918+335569951+334540327+332292056+330742305+330892889+332074979+332946039
1908+332776880+331973115+331411169+331427199+331701394+331931748+332287491
1898+333143913+334381937+335266936+335596681+336342875+338035021+339374909
1888+338926816+337284609+335916702+335302378+335221597+335503319+335931026
1878+336248503+336462025+336881786+338224636+341556443+347085572+352490533
1868+353873460+350359704+345365722+342162404+341239523+341427222+341705773
1858+341739019+341544037+341274233+341195404+341725323+343302222+346078287
1848+350037940+355072940+359749515+360839777+357248376+352339217+349450519
1838+348866305+349098123+349413753+350945278+355039206+360579661+364097216
1828+364158551+362890069+361575691+359246673+355895664+353355843+352755772
1818+353405155+354165080+355034989+356871794+359651762+361793255+361881807
1808+360489680+359462565+360347704+363644348+368244742+371658202+372238827
1798+371172715+371182055+374046323+379180296+382911442+381323287+375925819
1788+371708629+371074301+372818197+374898042+376678077+378039397+378501779
1778+378674875+380717326+386299287+394418664+400704652+401124029+396860907
1768+391337005+386702076+384809617+386719431+390531532+392734499+392932339
1758+393123558+393474665+393731156+396028461+402328841+410415250+414826203
1748+413496909+409747014+407097696+406625209+407822145+409393084+410010405
1738+410587615+414318169+422123066+428331095+426391101+419283401+412342594
1728+407216045+404574498+404671589+406525330+409767924+416260672+427632470
1718+440710736+446814008+442170506+432970137+425425634+421869327+422886789
1708+428073698+435111142+440695681+444888756+451263922+460697051+467959238
1698+468988758+465357246+458058676+449364458+444213828+444608602+448735637
1688+455132027+465259912+478856771+487073343+482587116+472849509+466331250
1678+465453988+469214512+474261500+477793657+481141634+485897491+488641529
1668+485417232+480053568+478700263+481805619+484612177+483644306+481645416
1658+483547076+492357934+508738212+526743236+531212875+523830980+520666902
1648+524479003+526822379+520550296+510958708+505623237+506408776+512804365
1638+523751244+535008318+537723780+529801302+520837211+517631872+519943290
1628+524361596+528552335+532775380+536429544+537111442+535786504+537025050
1618+542445449+547198413+545655981+540589129+537561974+537842930+539660254
1608+541156859+541983277+542780317+543894451+545041761+545996494+547100103
1598+548825809+551118269+553401738+555135842+556201361+556789758+557203838
1588+557840849+559066919+560887868+562834588+564535097+566729735+571257189
1578+578920876+586286461+587421296+583922943+583087988+587168150+591722194
1568+591890935+589313267+588175436+590752337+599241570+616212021+637392693
1558+644465718+633410945+620847683+613626129+610988800+611137537+612369671
1548+614743121+620705358+632029935+647386164+663679004+675785182+675241254
1538+664181741+655911222+655897492+660255891+662408257+661935700+664080539
1528+671286479+681195545+690917958+700608518+710171111+716388933+718100246
1518+718017026+717081111+715118465+714543172+718594758+728624542+744232453
1508+761372063+767354164+754834603+738800136+731072918+731834795+737750404
1498+744405933+747059154+744874378+742866150+745966557+754132389+761830054
1488+762956524+758179096+752843938+750497043+751170821+753307504+756605996
1478+762375655+771302875+782174410+791508810+793841557+787919606+780756320
1468+778902474+782559566+787072836+788376899+788699952+793458353+804898769
1458+818311171+821979344+812959355+802130127+796071497+794864803+796691885
1448+798813584+798648816+796108716+793253857+791944846+793396809+798389816
1438+805599450+810087141+808313727+804069076+801991357+801909601+801545285
1428+800645824+800909633+802987143+805988648+809547255+814064080+817740548
1418+816481440+810442326+804664582+802141488+802025719+802218714+802020491
1408+802352048+803605928+804465522+804131665+804482668+807583703+812599362
1398+817033315+819810042+820832034+819394080+816162848+814083874+815186229
1388+818068271+819190141+817641506+816719252+819264998+824523557+830150333
1378+835499013+841540776+848024777+852554984+853692885+853213986+853392554
1368+854519791+856297666+859322729+863427077+866045797+864742640+860764238
1358+857466513+856576112+857357504+858313771+858799919+858755939+857907427
1348+856266998+854742687+854478599+856037062+859227869+862950198+865274929
1338+864789966+862008778+858683104+856223506+855211411+855699999+857463725
1328+859901019+861943331+862662691+862267639+862083286+863305662+866108108
1318+869790012+873210128+875292516+875734754+875302134+875228811+876347406
1308+878707056+881673642+884430575+886467241+887544155+887615597+887065883
1298+886515542+886117911+885470549+884291177+882777321+881294899+880001849
1288+878766648+877349743+875578072+873357749+870791443+868368785+866730935
1278+866238444+866891242+868304941+869600153+869891005+869221410+868558784
1268+868663681+869412872+870309198+871104390+871663165+871743388+871430580
1258+871373497+872116346+873599674+875541759+877759641+879936193+881647366
1248+882803946+883751152+884968509+886722408+888769598+890596192+892098827
1238+893711376+895775085+898142123+900327526+901728610+902143387+902436818
1228+903898540+906546673+908983200+910298903+911228126+912919644+915492781
1218+918387856+921191487+923571071+925273113+926782021+929289780+933316902
1208+937712382+940521240+940892455+940011742+940038367+941989443+944912398
1198+947404057+949311502+951380299+953978946+956980242+960082044+962639986
1188+964116902+964955447+966156217+968139424+970625159+973086778+974727137
1178+974899432+974256113+974414190+975875911+977449847+978178478+978721500
1168+980204689+982659896+985132527+986865864+988210980+990030604+991888144
1158+991985304+990207499+989325253+991275284+994487697+996635742+998066378
1148+1000661121+1004922779+1009261594+1011425111+1010689163+1008550946
1140+1006799069+1005965681+1006201541+1008003671+1011370607+1015612958
1131+1020177876+1024223607+1025870727+1023901738+1019633529+1015718482
1123+1014107257+1015631638+1019825827+1024553282+1027286586+1027152765
1114+1025084874+1022845663+1022713166+1026460029+1033238578+1039217333
1105+1040694597+1037894939+1034478448+1033896115+1037049982+1042425007
1097+1047703778+1051148219+1052435275+1052533551+1052141356+1051677023
1088+1052459112+1055139237+1058056895+1059441669+1059548029+1058498715
1080+1055106479+1050088659+1046922177+1047953579+1051899501+1055205660
1071+1055341363+1053782621+1054774782+1060034247+1066297234+1069448591
1063+1069312400+1068303790+1067641861+1066915880+1066516576+1068173105
1054+1071488324+1072631174+1069663961+1065713368+1063773932+1062646137
1045+1059952560+1056613365+1055930248+1059139107+1063689248+1065874302
1037+1064160202+1059891365+1056127774+1055625176+1058330114+1061466695
1028+1063276213+1064875311+1067387182+1069960738+1071391164+1071366142
1020+1069476541+1065435758+1061173542+1060202360+1063778392+1069230853
1011+1072899514+1073450064+1071532792+1068055663+1063514513+1058335271
1003+1053948713+1052998162+1057130738+1064566057+1071032355+1073741823
994+1073634069+1073192040+1072914151+1070797401+1065612026+1059227554
985+1054366348+1052230431+1052765159+1054455074+1054428101+1051394046
977+1046881264+1042507112+1038949272+1037432279+1038933311+1042018524
968+1044076518+1043734576+1040382835+1033923158+1026685017+1022235242
960+1020935640+1019268447+1014846761+1009699162+1006753416+1005842732
951+1004837607+1003131871+1002082069+1002015228+1000889036+997412673+993824096
941+992979069+994142480+994042044+991170666+986945391+983092934+979860029
931+977083232+975554600+975957389+977283267+978056644+978533732+979790260
921+981280907+981251982+979175239+976040121+972585992+969117715+966866725
911+967449546+970657778+974122361+975376450+973579757+969649516+965644837
901+963448491+963354468+964339799+965552626+966620340+967081746+966496974
891+964709341+962204648+960492360+960863366+962279574+961905013+958577318
881+954364031+951887496+951790336+953348591+955876493+958477301+959507447
871+958074024+955532042+953738694+952911719+952544755+952807310+953764413
861+954668336+955147723+955776406+956881688+957932187+958248549+957717933
851+956343265+954030035+951251147+949199775+948871354+950338303+953020101
841+955713747+956818123+955874193+954038050+952619333+951877251+951066724
831+949756737+949192735+951062473+954770932+957911138+959680509+961352721
821+963248526+964051106+962877520+960057022+956682907+954295169+954106564
811+955848265+958116540+960240678+962810678+965813299+967737471+967343604
801+965065571+962352619+960306683+959170315+958863571+959627399+961611094
791+963689440+964205280+963352656+962956558+963734117+964707668+965107112
781+965227203+965855397+967073382+967408354+965373709+961975967+959603562
771+958277683+956300052+954064118+953542841+954796930+955900051+955868269
761+955832513+957528004+961175059+964715405+966257419+967528305+971736644
751+978143349+981777371+979552867+974340030+971004250+970847428+970955391
741+968188770+963322267+960076816+959936582+960555646+960307449+961070162
731+964737708+969887955+973292180+973940169+974334176+977079259+981385455
721+984118271+983523045+980237517+975063851+969007242+964810613+964841978
711+968098302+971854435+974324418+974056426+969827736+963007368+957301692
701+954909911+954948664+955229828+954074224+951352001+948919795+949008312
691+951762108+955039621+955605574+950664423+940635127+930061206+923772221
681+923185149+927181673+933472679+938426793+939063212+935281430+928985336
671+920679411+910295488+904292407+912146616+929010567+942154211+944379830
661+934765590+918609150+903831629+895010351+891923325+892084120+893138313
651+893640214+893683427+895015300+897740519+899302119+898879327+897965716
641+896730515+894213834+891105341+889872162+892149498+896407880+898341462
631+895093571+888019431+879959681+873263238+870770254+874482478+882134281
621+888961897+893465897+896925532+897370837+889883314+876310047+866425794
611+865367280+867630049+866869775+865133720+866504693+869805833+872646265
601+875616754+877241013
##END=
