##TITLE=<SNM>
##JCAMP-DX=4.24
##DATA TYPE=INFRARED SPECTRUM
##DATE=3/5/2025
##SAMPLING PROCEDURE=Instrument type and / or accessory
##ORIGIN=Admin
##XUNITS=1/CM
##YUNITS=ABSORBANCE
##RESOLUTION=4
##FIRSTX=4497.3318
##LASTX=599.83466
##DELTAX=-1.4281778
##MAXY=1.7106807
##MINY=0.18222168
##XFACTOR=1
##YFACTOR=1.5931956e-09
##NPOINTS=2730
##FIRSTY=0.20194286
##XYDATA=(X++(Y..Y))
4497+126753340+127474756+128648773+129253136+128960265+128159920+127198609
4487+126145227+125153416+124730473+125383743+126867260+128138595+128430764
4477+128000376+127471052+127005609+126599689+126601681+127299939+128289402
4467+128756548+128321268+127295319+126229610+125499486+125190631+125106978
4457+125019836+125008968+125262706+125586450+125635956+125548973+125748856
4447+126238205+126604235+126538558+125973627+125033688+124157209+123892061
4437+124283708+124700721+124469786+123587779+122701180+122401080+122599233
4427+122689526+122337872+121873870+121699427+121562826+120832694+119423729
4417+118050213+117476332+117795278+118550009+119295341+119781996+119836113
4407+119479305+119080736+119038189+119317938+119543766+119451171+119115193
4397+118829515+118735910+118577778+118051186+117327843+116864271+116817048
4387+116981988+117141026+117169170+116954331+116459735+115853904+115476875
4377+115662205+116517948+117702506+118460492+118255203+117398636+116650948
4367+116279737+116011044+115747728+115684736+115809571+115891278+115873433
4357+115862976+115850247+115733690+115558190+115560874+115961688+116724986
4347+117545338+118067900+118094434+117646940+116970802+116433481+116250836
4337+116298957+116332516+116331113+116378270+116310929+115882954+115254984
4327+114979099+115379276+116061671+116208158+115510405+114622824+114374960
4317+114844462+115619592+116498326+117399693+118049081+118279642+118352324
4307+118605716+119015452+119386617+119764450+120259401+120576066+120263274
4297+119407614+118538290+117961434+117702038+117864921+118538617+119505091
4287+120329633+120631146+120280549+119516259+118798612+118456704+118514749
4277+118758796+118889318+118769749+118609728+118786603+119431156+120279969
4267+121038937+121816807+122882993+123916247+124007346+122834040+121404938
4257+121068997+122073650+123530951+124522967+124843934+124861705+124995004
4247+125251080+125222759+124732250+124217321+124159079+124504982+124933330
4237+125239884+125293786+125042817+124577495+123919446+123017321+122176823
4227+122088521+123108270+124656566+125597627+125369152+124552682+124037070
4217+123903705+123678026+123376879+123565304+124452324+125537179+126227131
4207+126494178+126771167+127323883+127960803+128367135+128474910+128438209
4197+128401779+128292891+127840225+126958311+126067167+125770125+126226205
4187+127063458+127854067+128430895+128758194+128774552+128506458+128195620
4177+128146395+128521301+129281906+130097890+130455352+130234743+129910671
4167+129811744+129653846+129196625+128751880+128652336+128834318+129167603
4157+129614424+130003686+130183918+130343780+130768200+131415597+131962551
4147+132071466+131567985+130663381+129980706+130001591+130525602+131018272
4137+131405252+132077060+133124035+134059784+134467453+134527724+134616016
4127+134691429+134459522+133898080+133266995+132803460+132691692+133093076
4117+133938307+134914050+135792006+136501347+136846052+136554407+135709083
4107+134806658+134354010+134575985+135376967+136410156+137239327+137504176
4097+137048994+136100562+135212990+134801757+134854695+135171603+135569237
4087+135812817+135774124+135681763+135868495+136379394+137051285+137744941
4077+138375642+138871959+139089875+138818395+138108969+137428716+137131749
4067+137033580+136827823+136581297+136538292+136739026+137036236+137300515
4057+137520002+137759944+138053394+138373538+138657299+138747078+138481069
4047+138055012+137987156+138428468+138868059+138861521+138671833+138832508
4037+139409794+140043105+140512438+140926440+141369127+141640785+141513341
4027+141126528+140931995+141231179+141867623+142413820+142635130+142679828
4017+142764248+142845348+142756345+142483191+142161176+141959479+141988136
4007+142111858+141994104+141597845+141409681+141874759+142798752+143551425
3997+143764271+143613576+143438076+143371427+143501770+144019010+144865718
3987+145563087+145735473+145541033+145359295+145337502+145418733+145583879
3977+145858717+146158659+146290592+146147996+145828722+145535375+145464890
3967+145826590+146770897+148116092+149276360+149729597+149537066+149154547
3957+148803856+148337122+147727232+147443583+148044065+149277370+150014593
3947+149646954+149007714+149049204+149392225+149069808+148056588+147174974
3937+147109803+148130608+150096834+152297389+153657119+153572400+152522357
3927+151616341+151566274+152044306+152210762+151980117+152224136+153528338
3917+155075614+155302172+153886904+152103941+151087522+150954943+151726875
3907+153970351+157825079+161990625+164692745+165533411+164962298+162851101
3897+159499023+156719825+156371304+158381657+160447137+160584364+160040917
3887+160938880+162592341+162851719+162254735+162775305+163537855+162513140
3878+160827916+160912318+162870556+165405032+167978903+169874626+169632159
3868+167850000+166891523+167239118+167043865+165076611+162485773+161316779
3858+163193440+169127433+178138602+184020125+180608748+172238223+165329946
3848+162067844+162338276+165129511+169118697+173346460+177292342+179970462
3838+180000148+177622634+174884355+173080367+172033112+171412128+171386202
3828+171886064+172641356+174435075+178380321+182992604+184531191+182865066
3818+181210221+179785235+176617504+172422066+169878330+170494730+174072796
3808+178632496+181752246+183774159+186405570+188661290+188241078+186235832
3798+184972110+184001755+182128050+180049738+179186400+179824742+181327433
3788+183119636+185007315+187025468+189584263+193283281+197739912+201169415
3778+202510429+203175521+205392688+210271026+217290080+224438991+229854641
3768+233916968+238018072+242516136+247753350+254845750+263849716+272703361
3758+279769966+286483700+295684884+308905240+324804015+338695056+347496193
3748+354521645+363750962+374377469+382167397+386997961+393321600+403949678
3738+418799664+435720067+451331911+462532130+468243373+470311471+471941774
3728+474947118+478777920+482253533+485639320+489374685+492173140+493009523
3718+493581740+496972165+505079572+517198818+529293932+536799941+540508294
3708+544567235+551139290+560446200+571003607+579130542+582601890+584163991
3698+587238735+591717999+595846938+599721737+605131925+611890703+616115754
3688+615213788+611667803+608503420+606842477+607098824+609549236+614702740
3678+622645458+629858381+630678752+627125733+625812572+626888653+625470664
3668+620860494+617865438+619094460+623004501+627099021+630598765+633945942
3658+636974744+639549887+643506281+650766306+660057204+666903377+667116476
3648+662520261+658859122+658913444+662087853+666201079+669219405+670808816
3638+672026128+673946337+677330477+682775271+689992347+696398854+697578380
3628+693348503+689652421+689529710+691263682+693140118+695910777+700855971
3618+706767966+710917631+712392263+712967210+715064752+718474183+719668674
3608+716192350+710929902+708551695+709685878+711302825+711173305+710409351
3598+710866227+712098878+712808209+713509610+715883476+720377930+725593538
3588+729221231+729492318+726484842+722449284+719814580+718674636+717658003
3578+716767896+717185264+718747440+720317996+722581198+727542854+734700968
3568+739409942+737318910+730607870+724834673+721869921+719822287+717789319
3558+717907241+721583944+726300251+727982669+725867768+723365803+723763792
3548+726687091+728778348+727774733+725715726+726282518+729936025+733264870
3538+732921802+728977828+723740671+719662987+718715565+721256738+725076055
3528+727527515+728638801+729798573+730728935+730395145+729107873+727791643
3518+726518737+724802574+722686550+720793653+719587041+719314906+720182640
3508+722008944+724331781+726893531+729417195+731286598+732059456+732098813
3498+732344161+733364461+734658617+735006624+733778537+731847554+731159547
3488+732862168+735688944+737233087+736688069+734821958+732279139+729357336
3478+726910216+725820779+725756954+725352979+724142476+724147115+727786555
3468+734068106+738834471+739735576+738548044+737573911+737135068+736494874
3458+734886905+732401326+730461514+730767769+733617815+737163276+738693802
3448+737129381+734014757+731412976+729388463+726634490+723320534+722082721
3438+724905307+730296228+734482781+735059300+732976723+731258689+732385763
3428+735785392+737739421+735715581+731929337+729752407+728725672+726256704
3418+722663056+721215735+723532436+727036894+727991498+726080792+723643026
3408+721817544+720417662+719753000+719799616+719495306+718915121+720197230
3398+724745483+730859952+735228552+736311854+735315797+734294075+734354233
3388+735132328+735551043+735147667+734275219+733162810+731677030+730049907
3378+728826834+728452339+729606799+732831490+736805094+738645241+737200314
3368+734344506+732889404+734352812+737754386+740555947+741622189+741889535
3358+741775578+740279921+737146890+733686504+731377285+731033319+732557484
3348+734757610+735901669+735182086+733293079+731354015+730243402+730479546
3338+731474631+731900529+731651440+732078835+733885311+736154948+737336270
3328+736102496+732382920+728346912+727004345+729011125+732136824+734568754
3318+736409499+737310829+736409649+734891170+734824502+736130181+737443792
3308+738568771+739689634+740018486+739107578+737352432+734638415+731056963
3298+728400711+728549311+731414248+735094392+737555654+738475316+739168934
3288+740324816+740809002+739783763+738648009+738935708+739645413+738684149
3278+735953372+733579056+733559153+735779631+737985966+738080619+737154372
3268+737959105+740424930+741666859+740433460+738874801+739265083+741149825
3258+742567890+742790641+742608819+742529206+742219958+741632141+741100292
3248+740241162+738227349+735186950+732456547+731473584+732470614+734086887
3238+734514806+733511939+732525609+732483558+732993409+733878053+735961229
3228+739423785+742060134+740810723+735868073+731203095+729744625+730517407
3218+731370700+731976251+732911402+733850817+734206680+734184757+734428459
3208+735508917+737391116+738901064+738228172+735027949+731609539+730700202
3198+732201846+733150016+731368531+728077321+726062011+726815789+729975831
3188+733882992+736097708+734858846+730613107+725250246+720313133+716699806
3178+715284809+716557266+719961759+723961776+726562659+726412263+724016398
3168+721424045+720180470+719990043+719605447+718566740+717403152+716396545
3158+715271865+714112093+713356894+712684600+711559471+710701165+711088155
3148+712073138+712118706+711094739+710322032+710627388+711450827+711407578
3138+709477718+706331068+704144337+704204645+705208409+704787299+702290572
3128+699255261+697513133+697570897+698685551+700043906+701411539+702457354
3118+702205571+700026397+696899875+694685534+694091057+693923301+692605950
3108+690364671+689237747+690721806+694002615+696683335+696961979+695084645
3098+692792336+691415350+690800072+690098148+688951694+687556601+686214033
3088+685212888+684745014+684741497+684900947+684925339+684830088+685018346
3078+685578029+685852783+685321907+684418332+683710347+682848898+681172242
3068+678960519+677596552+678254105+680163838+680868830+678956179+675654794
3058+673029294+671912470+672036529+672671261+672798088+671826049+670267913
3048+668859277+667439865+665649551+664063656+663560988+664076526+664851702
3038+665415576+665457552+664502499+662641326+660982328+660542887+661047350
3028+661329661+660626390+658944870+656550876+653883100+651761914+650965039
3018+651584432+652920340+653691701+652834442+650825866+649415284+649326842
3008+649333501+648313575+646963824+646377429+646153929+645103849+643076118
2998+641039708+639610868+638605683+638171554+638993346+640826834+642111113
2988+641672569+639839231+637572288+635614293+634590027+634717303+635110803
2978+634334803+632154805+630021872+629365590+629941960+630276423+629505661
2968+628125981+626960933+626300649+626032293+625869513+625410542+624416468
2958+623040978+621544535+620008436+618561002+617547474+617172381+617216415
2948+617302911+617198420+616752955+615901158+614906859+614256152+614081289
2938+613910316+613092602+611397164+609309537+607662211+606757589+606100372
2928+604915758+602680503+599579085+596721668+595305175+595292604+595695307
2918+596125620+596840788+597451128+597144050+595977020+594591840+593160831
2908+591626527+590351189+589760865+589610020+588987110+587179661+584539870
2898+582184746+580842478+580346021+580032134+579251271+577840763+576383566
2888+575642359+575713741+576027291+575927663+575016082+573317988+571326959
2878+569656064+568698129+568589223+568971836+568852566+567487364+565351476
2868+563479005+562148858+560911718+559551342+558382105+557707716+557373515
2858+556891798+555943964+554798184+554068762+553908901+553708934+552828854
2848+551355120+549873604+548713832+547672768+546461330+545244504+544481000
2838+544185483+543735566+542669137+541331059+540426362+540171062+540135633
2828+539764506+538829655+537485366+536095099+535047226+534513207+534217540
2818+533625308+532496138+531085294+529741941+528562902+527506499+526582198
2808+525818058+525159270+524423076+523346583+521782986+519933560+518249384
2798+517002779+516161570+515713336+515634023+515454408+514586524+513264870
2788+512337202+511979955+511494122+510467200+509294147+508413318+507695419
2778+506729404+505348302+503778532+502415987+501532577+501077871+500678087
2768+499933775+498826005+497772408+497167493+496851437+496119396+494424632
2758+492084324+490043462+488892893+488376233+487853138+486951284+485772881
2748+484682994+483841299+482913144+481455872+479532034+477662968+476246661
2738+475255617+474436930+473612894+472747292+471808138+470724088+469531880
2728+468389130+467375938+466432856+465515027+464670825+463927561+463222756
2718+462450011+461503599+460356884+459127675+457917808+456591066+454989645
2708+453393050+452350078+451977792+451830688+451542727+451189109+450876532
2698+450368851+449398533+448128657+446962712+445963662+444841414+443540636
2688+442431257+441792447+441429888+440909262+439961728+438685193+437469976
2678+436613915+436001555+435351334+434618171+433853507+432951466+431890424
2668+430899268+430099960+429366722+428698881+428281213+428069461+427692685
2658+426886905+425841950+424981998+424404319+423723346+422639669+421382925
2648+420268085+419187402+417986588+416944290+416360101+415969108+415254390
2638+414150997+413050186+412264983+411820267+411620748+411465563+411037420
2628+410273841+409605064+409410335+409388523+408875343+407674567+406233906
2618+405099349+404438429+404016271+403515175+402876589+402283759+401834029
2608+401415239+400949796+400551358+400323257+400175630+399964888+399690246
2598+399436967+399184997+398749559+397937568+396787224+395608484+394714524
2588+394147994+393731972+393332375+392976848+392732660+392572238+392424685
2578+392279302+392118280+391835371+391371387+390840548+390368259+389918978
2568+389401757+388843607+388427287+388383739+388723739+389067481+388961081
2558+388380185+387714737+387317983+387258311+387403582+387561984+387569728
2548+387384165+387145813+387074543+387197030+387200547+386692716+385662427
2538+384603293+384094565+384266922+384748077+385112508+385232451+385175584
2528+385009849+384805879+384638685+384522820+384442309+384379532+384235009
2518+383862760+383270565+382647281+382161299+381864622+381767276+381846851
2508+381992384+382058379+381955271+381637718+381089482+380375961+379634604
2498+379010086+378662678+378701586+378955053+378987115+378546065+377841671
2488+377258530+376988865+377005064+377181462+377397553+377623372+377840474
2478+377859741+377447236+376718825+376156260+376095578+376386045+376657731
2468+376745387+376707302+376608983+376502284+376484214+376556831+376536104
2458+376269319+375821685+375344682+374918634+374575827+374318732+374104698
2448+373932678+373877121+373943377+373979592+373785873+373267567+372526061
2438+371833976+371435164+371347732+371393824+371355888+371117798+370764778
2428+370499378+370392342+370347934+370325038+370363011+370391781+370246772
2418+369880059+369441142+369176265+369228043+369453600+369552854+369456742
2408+369394040+369501899+369613611+369543725+369386894+369374099+369527414
2398+369646608+369637218+369609795+369587273+369415253+369093210+368856916
2388+368757811+368458440+367602978+366145817+364206229+361809616+358911981
2378+355618116+352247294+349055563+345939891+342647784+339255488+336110971
2368+333381466+331093161+329435846+328521048+328152465+328399571+330003611
2358+333577991+338669953+344304949+350322035+357160052+364277050+370014892
2348+373019787+373210888+371766186+370082683+368432402+366143909+362746188
2338+358383911+353635915+349205810+345586236+342928524+341113967+339833878
2328+338731271+337613176+336576152+336013251+336379590+337690880+339379771
2318+340855936+341996067+342990478+344023798+345178744+346416969+347626612
2308+348756305+349798641+350662222+351257148+351669877+352077780+352543934
2298+353008292+353408226+353733074+354006855+354242514+354415507+354505857
2288+354543119+354577089+354635863+354720938+354789328+354744059+354515397
2278+354157139+353801202+353535689+353398274+353434377+353642575+353871162
2268+353877036+353551439+353074885+352782286+352814909+352971852+353003091
2258+352930175+352921346+352998415+353072154+353140917+353262169+353413239
2248+353511857+353537709+353567040+353678827+353832403+353882386+353760834
2238+353592779+353563448+353704492+353885079+354019875+354192531+354489994
2228+354813122+355008637+355119114+355325105+355676478+356039076+356280346
2218+356396847+356466096+356549263+356681627+356919829+357308428+357784421
2208+358211815+358530341+358812091+359187670+359726815+360337192+360826802
2198+361145628+361466922+361946806+362537055+363103809+363603073+364085276
2188+364588393+365049907+365360838+365533121+365714232+365997890+366346458
2178+366735730+367253624+367982111+368836040+369647693+370458225+371524878
2168+372904521+374296809+375493282+376676175+378102171+379815080+381786693
2158+384033695+386543255+389310285+392396513+395742120+399026370+401944843
2148+404527955+406966171+409250660+411263501+413107988+415049222+417209953
2138+419567321+422151069+425030708+428156706+431341590+434403576+437298105
2128+440092708+442858540+445648914+448454478+450997410+452742044+453381303
2118+453145121+452380681+451048739+448911242+446031939+442819108+439661347
2108+436704676+433911832+431154343+428249301+425056784+421615478+418140389
2098+414841548+411748847+408728688+405658546+402545867+399494731+396622948
2088+394018661+391701960+389590351+387556934+385597629+383924377+382792028
2078+382205595+381876519+381494355+380966434+380379028+379802622+379197370
2068+378521223+377870329+377414089+377194481+377073378+376866864+376498431
2058+376064189+375738518+375570575+375447677+375283962+375121594+375024584
2048+374997049+375030645+375159642+375412323+375715248+375958089+376211256
2038+376718488+377597446+378725567+379941271+381146049+382223740+383069513
2028+383689617+384141030+384372985+384205641+383545656+382590602+381629749
2018+380644878+379385665+377830597+376247957+374851479+373705849+372851658
2008+372256919+371737453+371083866+370231919+369306795+368520395+367949600
1998+367488684+367144419+367129603+367407088+367464778+366921742+366050491
1988+365315271+364775378+364246971+363706816+363282414+363040621+362940731
1978+362912522+362902121+362834780+362601890+362212207+361922862+361991102
1968+362253958+362207193+361632320+360886175+360417066+360275836+360248712
1958+360231577+360251593+360245233+360052187+359645032+359216702+358968398
1948+358955491+359255573+360002579+360925832+361213568+360412465+359085797
1938+358042264+357504990+357331399+357439931+357739826+358001635+358022548
1928+357882403+357984650+358627650+359526960+360200787+360730205+361323784
1918+361411515+360336743+358697461+357748655+357914502+358593006+358947747
1908+358632027+357938371+357358709+357069066+356930753+356853049+356964237
1898+357435142+358149038+358678306+358884259+359233201+359949528+360342167
1888+359740545+358568090+357683857+357390285+357499940+357726507+357852922
1878+357847946+357803463+357806980+358187535+359594975+362186542+364725770
1868+365294470+363531279+361011655+359213260+358432322+358247581+358196289
1858+358094791+358050083+358191912+358448259+358762894+359327629+360432704
1848+362367878+365229223+368063744+368770943+366650730+363740001+362077187
1838+361853351+362118751+362325490+363105942+365275090+368189336+369963451
1828+369973702+369416188+368891746+367892434+366499847+365584076+365492828
1818+365793022+366092543+366566366+367612518+369127928+370327844+370566757
1808+370180366+370129859+371139011+373301724+375995987+378094913+378863880
1798+378865264+379572014+382062008+385865387+388598970+388132854+385686632
1788+384115927+384586158+386450212+388829653+391372622+393634701+395046406
1778+395972802+397825931+401753369+407296668+411905828+413096914+411509934
1768+409396791+408257820+408990123+411724118+415011623+416933815+417664172
1758+418665841+420177510+421904224+424668822+429354638+434848442+438452004
1748+439146184+438590354+438635734+439925700+442188341+444570476+446235834
1738+447870215+451464349+457382816+462199089+462562471+460545553+459026101
1728+458462228+458864482+460539342+463462492+467752490+474225328+483121043
1718+491964531+496161559+494790372+491732053+490104892+490796977+493899255
1708+499173189+505438241+511013228+516074624+522561118+530518016+536643596
1698+539299475+540249104+539925452+538648319+538800885+541912591+547301117
1688+554218223+563516230+574960226+583267749+584206791+582196419+582369562
1678+586206874+593063597+600819630+607409231+613304877+619745691+625281508
1668+627704572+628928543+632474004+638558469+644240081+647695005+650859088
1658+656506879+666099692+679977527+694862118+701886597+701194100+702206769
1648+707457020+712601470+712953143+710578603+710089105+713082514+719152687
1638+727266977+734646346+736330859+731839473+727128104+725869938+727236225
1628+728774606+729331971+729386667+728544298+725634766+722031317+720751227
1618+722019494+721900449+717048860+709748131+703335115+698541888+694833012
1608+691603607+688561487+685883012+683851166+682307921+680866436+679614106
1598+679030030+679170924+679458323+679298798+678508058+677165341+675402263
1588+673358445+671318218+669862442+669486377+670084669+671469437+674113419
1578+678112089+681171942+680357932+677785108+678063528+682160817+687161754
1568+690142593+691984910+695000842+700353079+709278611+723481630+740706119
1558+750384455+749832703+749013305+752462842+759162734+767422482+776181531
1548+784905487+793853317+803451742+813251443+822307768+828681053+828733953
1538+823805146+820424148+821187428+823913267+825466389+826114215+828358636
1528+832664160+837404560+841852698+847017950+852795561+857109165+859361293
1518+861186176+863098528+864369489+865109873+866644214+870811612+878908917
1508+888922241+892908640+886476244+878267002+875018592+876523603+880473488
1498+884120485+885148941+884052171+884041920+887218498+892429916+895970589
1488+895267018+892089093+889810328+889816987+891371980+893227615+895012692
1478+897208627+900391640+904718115+909018475+910568305+908457145+905485510
1468+904124910+904406098+905138102+905554722+906518605+909931104+916640049
1458+923753269+924664102+918625205+912541489+909808841+909277366+909171565
1448+908882370+908550152+908157999+907703742+907826903+909577111+913219170
1438+917181850+918582107+916558117+913754386+912245186+911659987+911071721
1428+910823081+911949332+914291922+916522650+918145284+919801439+920968170
1418+919882024+916950719+914385677+912903263+911898676+910954472+909961258
1408+908879901+907769588+906560357+905392878+905026315+905850950+906961189
1398+907087641+906079612+904488330+902561163+900637213+899389298+898829091
1388+897801009+895393097+892721057+891747821+892886268+895185460+897993755
1378+901445312+905602235+909683436+912366625+913298484+913785513+915202680
1368+917714672+920836330+924051144+926356397+926458756+924519766+922654478
1358+922855082+925184054+927930245+929479925+929947126+930374820+931213448
1348+932479021+934388755+936977291+939683526+941765505+942732306+942445505
1338+941331600+940442990+940898818+942995911+945754522+947643904+948025431
1328+947445396+946677926+946206310+946396513+947383142+948644376+949311881
1318+949208549+949060996+949632576+951006794+952499309+953189336+952908297
1308+952470053+952561113+952897373+952781919+951885303+950349540+948871392
1298+948385933+948988267+949636392+949339940+948106765+946345557+944048310
1288+941222656+938570070+936776164+935307070+932764625+928688287+924370792
1278+921421528+920086668+919326381+918032225+915858513+913248875+910949608
1268+909290610+907730529+905376192+902200212+899180689+896871171+894718259
1258+892293886+890120249+888721189+887893561+887211166+886504453+885930777
1248+885855654+886172085+886080051+885349469+884986648+885840390+887564934
1238+889291722+890300724+890233457+889527343+889189139+889767678+891142494
1228+893108720+895380003+897421202+898973052+900363207+901921792+903424258
1218+904387841+904778797+905067094+905580387+906359978+907703593+909966421
1208+912778906+915404106+917735174+920128869+922613924+924928979+926947880
1198+928726597+930517510+932798520+935779583+938849164+941025869+942100641
1188+942915475+944334812+946385663+948524433+950255337+951445113+952414159
1178+953623914+955192599+956898138+958441308+959577212+960578806+962419402
1168+965532156+968711952+970311091+970348727+970400281+971499072+973086538
1158+974243766+975129458+976556876+978773687+981318826+983741627+986101277
1148+988705976+991398444+993346113+993851100+993296055+992889911+993482517
1138+994848579+996161591+997028427+997675655+998190145+998660862+1000079226
1128+1003321800+1007403151+1010609734+1012905858+1015335095+1017631070
1120+1018423606+1017709859+1017492645+1019281164+1021618367+1021538155
1111+1018700230+1016259097+1017353473+1022117742+1027896102+1031522223
1103+1032100687+1031768918+1033290090+1036934468+1040084934+1040521532
1094+1039759599+1041559341+1046647374+1050923641+1050734187+1048165104
1085+1047938088+1050750274+1052846020+1051396155+1047394641+1043466156
1077+1041800274+1043484488+1047409232+1050601673+1051273443+1050605265
1068+1050612149+1051754711+1053117631+1053681056+1053485166+1053868116
1060+1056122563+1060434222+1065593188+1069649698+1071839123+1073088460
1051+1073741823+1072940832+1070968246+1069209134+1067739141+1066180333
1043+1065563259+1067020457+1069900134+1072201645+1072579956+1071543493
1034+1070383347+1069296379+1067620994+1065570442+1064197571+1064138909
1025+1065533853+1068005365+1070101335+1070361723+1068807104+1066432415
1017+1064465740+1064369068+1066160355+1067205571+1065352704+1062264792
1008+1061113550+1062401795+1064065507+1064416057+1063403838+1061956442
1000+1061190169+1061520443+1061694857+1059612729+1054784186+1048976720
991+1044226069+1041181031+1039037023+1036512910+1033582353+1031788447
983+1031724023+1031716017+1030455607+1028894029+1028341230+1028592040
974+1028250169+1025605215+1019844663+1012469111+1006429915+1003332500
965+1002257653+1000937682+997594396+992503145+987592745+983722996+979741835
955+974914489+970587491+968419016+968045120+967592510+965914058+963184627
945+959999369+957159498+955704919+955975184+956889982+956813287+955202476
935+953134789+951954141+951797085+951686496+950729646+949223364+948585863
925+949913391+952340233+953575353+952833248+951659783+951209492+951078550
915+951014052+951532732+952738746+954078395+955066147+955254554+954103236
905+951526148+948371343+945915469+944506682+943120942+940719091+937472851
895+934365709+932392749+932215117+933670594+935505279+936281653+935826348
885+935592374+937206178+940441568+943063552+943057416+940430569+936623449
875+933243049+931511547+931748365+933034889+933876659+933447394+932291886
865+931678180+932059857+932601433+932597318+932459717+932795302+933387834
855+933446720+932713595+932141041+932761108+934048979+934659917+934331514
845+933642161+932964779+932953705+934418984+936565310+937010738+934770133
835+931848180+930836110+932059109+933613877+933702993+932611909+932001794
825+932393049+932375615+930910261+929317707+929607949+931963559+934882069
815+937011561+938283569+939531708+941022203+941560786+939884803+936772498
805+934336902+933378930+933391575+934272703+935589680+935842286+934566611
795+933273503+933210052+934066637+935306995+937261997+940170032+943063776
785+944468372+944118570+943296479+943189705+943661246+944097919+944270239
776+944080485+943714670+943653539+943987703+944264477+944286251+944133086
766+943511448+942336187+941445856+941532353+942110294+942537763+942946602
756+943569362+944258042+944832017+944972836+944019503+941645113+938897650
746+937928978+939817910+942990449+945213994+946550426+948020867+948708126
736+947184335+944574847+943520652+945057537+947760554+949285767+948758557
726+947812258+948715758+951461350+953334719+952122271+949167021+947618464
716+948388552+949456590+948991709+947424969+945966723+945031199+944408364
706+943684890+942546069+941090592+938927879+934870846+929028662+923468564
696+920138147+919436073+920412527+921021444+918797001+913092418+906189978
686+901471875+900452023+901681981+902179411+900320183+897016329+893828452
676+891247323+888992351+886275491+881653163+874850014+870357505+874112698
666+882342517+886655897+884156625+878024572+873356601+871869250+871706358
656+870955050+869296950+867375693+865751563+863832776+859881096+853533251
646+847707004+846064916+849372063+855349828+861371889+866075551+869117297
636+870994557+871776318+869231778+860779657+848062418+836644797+830443757
626+828084930+825474544+821775470+820101806+822394713+826929946+831362970
616+835421574+838602044+838488685+834673933+830530702+828225075+826837090
606+825815443+825294368+823217254+817550382+811430675
##END=
