##TITLE=<SNM>
##JCAMP-DX=4.24
##DATA TYPE=INFRARED SPECTRUM
##DATE=2/5/2025
##SAMPLING PROCEDURE=Instrument type and / or accessory
##ORIGIN=Admin
##XUNITS=1/CM
##YUNITS=ABSORBANCE
##RESOLUTION=4
##FIRSTX=4497.3318
##LASTX=599.83466
##DELTAX=-1.4281778
##MAXY=1.7411777
##MINY=0.19014847
##XFACTOR=1
##YFACTOR=1.6215981e-09
##NPOINTS=2730
##FIRSTY=0.20944692
##XYDATA=(X++(Y..Y))
4497+129160810+129233763+129076013+128916396+128817429+128443742+127590995
4487+126653624+126220465+126577584+127745327+129453357+130970886+131555548
4477+131212415+130625364+130391214+130631622+131098083+131304748+130894340
4467+130162394+129812103+129991806+130123212+129885175+129645622+129710149
4457+129894971+129972169+129879423+129427214+128457020+127387261+127030206
4447+127713946+128936833+129910767+130105072+129386919+128165383+127302666
4437+127382510+128049535+128371028+127860523+126926185+126346366+126530443
4427+127275907+128011584+128226188+127859319+127309162+126890292+126425641
4417+125704694+125089589+125127788+125734357+126211992+125958123+124965498
4407+123754033+122860403+122383852+122104391+121902367+121837932+121966268
4397+122263575+122648997+123010233+123254068+123294408+123008156+122346976
4387+121509198+120868924+120673359+120835484+121052864+121128904+121108201
4377+121118493+121147622+120961670+120356094+119654325+119617945+120450990
4367+121330551+121425659+120844655+120070816+119131212+118002928+117259927
4357+117504984+118471089+119298704+119535959+119490399+119710425+120276166
4347+120613924+120199060+119341250+118787702+118745120+118905682+119157034
4337+119543568+119791685+119585259+119147477+118977882+119122042+119199332
4327+119097341+119093904+119233892+119164312+118731216+118210328+117839048
4317+117713239+118099377+119088023+120059641+120286449+119951724+119817378
4307+120060165+120193041+119987378+119761976+119837576+120232977+120756540
4297+121050952+120819265+120204968+119628549+119299797+119243780+119555890
4287+120268861+121200828+122075105+122585261+122463679+121771972+121003922
4277+120701295+120966485+121386449+121527246+121467185+121563258+121792997
4267+121845247+121824314+122230770+123087496+123665311+123441775+122875602
4257+122710730+122916218+122942748+122704601+122663681+123128544+123901299
4247+124533754+124777019+124785666+124761498+124574158+124112347+123712020
4237+123715870+123894903+123783429+123356270+123003736+122991303+123225361
4227+123550401+123973158+124374661+124414460+124148276+124212233+124818866
4217+125187628+124719568+124052341+124101283+124695125+124998101+124762849
4207+124413927+124306064+124489158+124868984+125224311+125341850+125312638
4197+125427255+125701175+125827930+125720215+125757743+126240663+126852552
4187+127038780+126775427+126552341+126649296+126830893+126832869+126804878
4177+127023048+127428052+127828517+128367857+129313562+130478172+131309774
4167+131582114+131640713+131868173+132120857+131909626+131140932+130374619
4157+130148069+130358620+130571754+130633891+130686876+130795051+130855773
4147+130835640+130855461+130955063+130946002+130627854+130035666+129421645
4137+129116757+129324304+129877704+130328471+130394853+130172934+129878927
4127+129621969+129434308+129273644+128986648+128461762+127821441+127392398
4117+127503155+128223835+129181523+129786934+129799348+129494773+129221689
4107+129100520+129192724+129615445+130374361+131275370+132066779+132613728
4097+132930314+133060626+132986515+132696854+132218391+131548482+130819559
4087+130468633+130848670+131733846+132538809+132936636+133060516+133238538
4077+133661672+134178628+134381562+134035819+133402059+132989143+133006162
4067+133229266+133415512+133564009+133652474+133489733+133093183+132848172
4057+132968661+133122993+132975295+132748286+132768098+132784087+132318342
4047+131516237+131091550+131407409+131990307+132119948+131702309+131272714
4037+131228183+131486087+131911822+132528857+133155798+133360221+133000235
4027+132480347+132376409+132973375+134084779+135179036+135753727+135680885
4017+135199316+134583411+133921616+133290705+132988592+133304204+134054565
4007+134678363+134864169+134804907+134811404+134962309+135126869+135118883
3997+134860098+134484435+134192853+134012359+133862299+133802312+133999117
3987+134485491+135093953+135576808+135755473+135659161+135542174+135747175
3977+136512772+137726939+138790807+139021309+138375493+137478316+136827998
3967+136448733+136422672+137064877+138228319+139066942+138973801+138295327
3957+137761591+137714580+138139800+139032382+140444291+142184657+143631687
3947+144251553+144306789+144354371+144179151+143148327+141508058+140318941
3937+140342989+141744542+144287749+147088235+148618344+148079950+146656417
3927+146232483+147157715+148021213+147815632+147521413+148504849+150330500
3917+151035541+149388177+146290550+143582571+142285490+142484482+144371067
3907+148575725+155043752+161915184+166451240+167460727+165436276+161057925
3897+155708258+152019445+152075379+155266498+158017243+157514117+156015140
3887+157125469+160246116+162117438+162568884+163546576+163708545+160879967
3878+157613396+157738829+161279789+166038646+170657441+173527536+172651292
3868+169902550+169284284+170881878+171023502+167819381+163639074+161830680
3858+164690923+173604431+186855361+194504271+187707952+174616711+164747878
3848+160384009+160846243+164651722+170051066+175836061+181478697+185638088
3838+186054652+182846470+178868932+175603960+172405886+169159899+167163236
3828+167144013+168714756+172380119+179286047+187098672+189812624+186926210
3818+183784024+181370540+176800612+170832495+167308260+168270110+173070558
3808+178708599+182154690+184671460+189288473+194291046+194811797+191433541
3798+188227049+185539066+182057781+178803689+177723408+179207811+182596138
3788+187346725+192722636+197479049+201440891+206185340+212371277+218001876
3778+221551436+224891429+230794633+240466579+253635431+268229012+280852909
3768+290066130+296839643+301880461+306493743+313510511+324129126+335724662
3758+345381170+354822908+368509351+388835492+413160619+433387995+444787728
3748+453263610+465573843+480781095+490781720+493268460+495867602+504396486
3738+518796928+534097322+543934710+546740866+546303791+546345510+548375474
3728+552416473+556646217+558074620+555599091+550314061+543400892+536756414
3718+533491718+535537341+542234123+551019276+557628981+557964607+552661162
3708+546135446+542525420+543758498+548149200+551155055+550434623+548819753
3698+549689527+553769561+560730441+570467115+582159211+592345677+595535243
3688+590953590+584616031+581386658+582108156+585580785+590038457+594877812
3678+600632152+605231632+604540568+600651045+598781487+597429905+591054965
3668+580295130+570597344+563974847+559255908+556005804+555916743+560351516
3658+567225429+571825754+572930147+574771181+580817700+589443035+593540712
3648+588047125+577537309+568839013+564878291+564664734+565370170+565652682
3638+566761522+570042685+575083540+581203205+589174380+598989420+605888732
3628+604336679+598003678+593935810+594613604+599759400+607658017+614261584
3618+616735753+618015182+621752239+626658674+629720877+631536733+633803227
3608+635044281+633789994+632540707+634453453+639085684+643291977+645406298
3598+646798937+648764319+650351328+650655527+651488361+655110442+660233963
3588+662423341+659626668+655110369+652755439+653793449+657829044+663239193
3578+667393807+668225097+665719758+662095912+660539632+663130982+668758217
3568+672608631+670705441+665703585+662775691+662613153+662563384+661396211
3558+660039741+659135746+658731348+658975780+659813760+661444142+664459370
3548+667684847+667887523+664504581+661723052+662674757+665278457+665595594
3538+662628003+658273139+654440882+651793662+650618917+651654795+654909236
3528+658422885+659724441+658743625+657809342+658307984+658952035+657781039
3518+654631282+650975090+648159156+646475404+645634410+645454302+645570086
3508+645296836+644760188+644971833+646434457+648501067+649913629+649580319
3498+647189661+643697183+640564260+638572633+637735536+637739799+638237044
3488+639010038+639870587+640683058+641593301+642650866+643305871+642626607
3478+640270280+637277988+635613716+636507787+638876685+639979902+638527717
3468+636391709+636075013+637440379+638438618+638331068+638049438+637738770
3458+636584094+634960035+634227473+634364943+634191893+633670903+633610622
3448+633899603+633921878+633461022+632090804+629321038+626044322+624175095
3438+624393210+625422766+625887444+625935669+626286255+626739465+626482536
3428+625186934+623534499+622677479+623302490+624895968+626041455+625833706
3418+624590961+623195234+622480977+622843693+623573755+623110106+620855742
3408+618248660+617082296+617345033+617557928+616773980+615400639+614436804
3398+614641428+616115189+618170589+619776638+620429364+620472296+620349969
3388+619873528+618570429+616491799+614458086+613312930+612861631+611990570
3378+610143581+608261121+607719217+608803982+610653544+612240332+613013620
3368+612994175+612584228+612128003+611841190+611970942+612366959+612225592
3358+611163506+610141927+610339751+611499242+612275324+611988291+611153398
3348+610289174+609183936+607876205+607409652+608609318+610644942+611939294
3338+612177331+612256578+612538943+612231436+610514015+607581783+604712627
3328+603668588+605416114+608910797+611712101+612238310+610991522+609594619
3318+609197977+609640013+609855702+609387936+609163940+610163392+611939662
3308+613134696+612929704+611502073+609611711+608201612+607969604+608742561
3298+609476519+609514085+609614394+610871805+612902320+614055232+613254045
3288+611081098+609356362+609640381+611647703+613613306+614492343+614694909
3278+614651426+614362628+614229826+614718434+615471653+615785445+615389354
3268+614292056+612820390+611910440+612270031+613448819+614520572+614914715
3258+613992598+611373277+608392122+607498162+609527244+612784074+615016531
3248+615167748+613323626+610423593+607997833+607195176+607924908+609012539
3238+609146885+608035251+606724396+606267583+606483198+606536826+606095194
3228+605409865+604627976+603763163+603198727+603449077+604480949+605677528
3218+606450779+606718074+606661689+606178448+604866123+602580626+599942007
3208+597983278+597000329+596155145+594707481+593119480+592372693+592655390
3198+593246364+593432684+593040049+592268966+591455429+590874710+590565880
3188+590410729+590416831+590676775+590996264+590792007+589689673+587975670
3178+585927952+583487967+581145901+579944508+579944213+579893232+578977070
3168+577717307+576791552+576139782+575531825+575134338+575144115+575357047
3158+575377226+575066558+574604490+574070929+573148482+571580146+569778662
3148+568391683+567402817+566381200+565399060+564797757+564285699+563246072
3138+561690894+560088117+558670336+557543154+556951592+556907447+556840366
3128+556280855+555807281+556348303+557487431+557685771+556508342+555288019
3118+555141323+555500142+554966655+552986827+550411099+548622038+548264653
3108+548681070+548590575+547475743+546058403+545197083+544788385+544197300
3098+543270883+542344577+541701114+541454880+541497886+541363135+540606425
3088+539374596+538348385+538153207+538770940+539451344+539396797+538617555
3078+537864262+537624277+537547015+536985887+535770452+534258317+532893907
3068+532001711+531822779+532403168+533386557+534042187+533718764+532464294
3058+531062944+530220332+529910142+529747200+529624138+529625167+529582750
3048+529037979+527639789+525548662+523414125+521876628+521105802+520829943
3038+520733788+520783887+521101943+521518764+521471458+520562795+519060217
3028+517593109+516544770+515929462+515625264+515361203+514588136+512898135
3018+510679425+508896319+508107520+508058596+508132330+507834380+507034260
3008+506046239+505364254+505186021+505204730+504864436+503910158+502690937
2998+501739379+501217176+501093380+501336856+501467857+500672993+498895364
2988+497043339+495768726+494854439+493980658+493286838+492938090+492723026
2978+492336125+491730558+491054528+490447270+489952341+489470497+488726136
2968+487510077+486156804+485485332+485919613+486895357+487420206+486922042
2958+485423434+483445664+481848695+481156014+480990645+480574522+479553090
2948+478089767+476654197+475836470+475800632+475989525+475869881+475626809
2938+475581268+475387596+474421115+472725049+471107054+470315314+470307118
2928+470346117+469772418+468553454+467067784+465632580+464378698+463324736
2918+462389938+461492339+460702290+460148219+459803220+459509166+459137887
2908+458642112+458039522+457409512+456824749+456302289+455871647+455587517
2898+455390648+455077444+454509736+453763428+452979259+452144735+451209680
2888+450340788+449778630+449509645+449333065+449134910+448855779+448362063
2878+447590392+446698343+445929980+445408182+445067961+444724323+444232113
2868+443611696+442957868+442229974+441296059+440245184+439406873+438872761
2858+438291821+437366728+436218668+435109056+434240898+433877595+434091593
2848+434370356+434054027+433103719+431924085+430718354+429524311+428542870
2838+427966377+427716211+427588040+427414732+427041468+426423330+425729363
2828+425170440+424824816+424632285+424347236+423601626+422276840+420713944
2818+419406433+418584295+418062607+417405948+416402783+415353893+414681466
2808+414399615+414155991+413671280+413014658+412457941+412049757+411486754
2798+410586582+409628040+408960060+408570696+408250618+407880735+407412748
2788+406790310+405983389+405029515+404034878+403096589+402184177+401173992
2778+400056367+399035559+398338688+397934327+397521733+396805638+395739730
2768+394583142+393777251+393574721+393680250+393470295+392604454+391217439
2758+389672259+388414848+387826042+387868312+387984611+387537428+386355185
2748+384880064+383777435+383311213+383156687+382873220+382352083+381699614
2738+380964369+380153295+379317263+378487406+377633842+376755907+375929542
2728+375204001+374534404+373933652+373583544+373538186+373391416+372628604
2718+371309699+370002483+369057540+368359604+367737533+367194636+366733486
2708+366292552+365866762+365491035+365128687+364680880+364087038+363379177
2698+362638088+361918942+361250558+360673845+360209570+359835277+359514464
2688+359170641+358678064+357967777+357091460+356149679+355231827+354402154
2678+353671430+353030282+352508227+352102579+351702262+351202076+350635434
2668+350102425+349640062+349260475+349047066+349033392+348966311+348444586
2658+347425101+346343277+345597189+345165261+344828202+344520143+344326288
2648+344242777+344051899+343493601+342549542+341489073+340642051+340144843
2638+339816127+339300688+338504206+337808217+337619508+337815605+337892978
2628+337551729+336890144+336116378+335326072+334568994+333931669+333471915
2618+333158601+332906781+332598576+332125921+331543915+331091219+330921660
2608+330921329+330849433+330516785+329856597+329022035+328346410+328020341
2598+327886473+327645974+327139061+326411977+325675702+325177980+324971444
2588+324858086+324642066+324333420+324069764+323964162+324013931+324044292
2578+323808571+323242407+322519623+321803344+321093829+320380050+319765735
2568+319352736+319125175+319011303+318949037+318865342+318704053+318502296
2558+318341669+318207323+318003396+317728199+317504975+317383053+317242679
2548+316975825+316636928+316353019+316191253+316136632+316096200+315947666
2538+315651958+315257669+314811846+314364260+313956811+313512900+312929938
2528+312363039+312139595+312307831+312564503+312703260+312840325+313088029
2518+313272805+313156544+312774457+312364877+312077329+311925708+311913174
2508+312010800+312098501+312065971+311903690+311636469+311256992+310778898
2498+310301501+309959076+309775292+309606027+309295984+308871407+308514793
2488+308377250+308452564+308599848+308665386+308570994+308291845+307836834
2478+307307206+306874855+306627078+306499091+306369965+306160690+305871010
2468+305566683+305299039+305069419+304901368+304805525+304630857+304175202
2458+303523156+303022014+302842164+302813291+302740439+302614750+302465628
2448+302257548+301982681+301687469+301421755+301260577+301264142+301338813
2438+301305071+301153357+301026289+300933203+300731427+300420630+300203159
2428+300199520+300301447+300352980+300320983+300250281+300177356+300109043
2418+300005500+299804643+299532974+299345018+299379165+299609225+299883945
2408+300071460+300132531+300088919+299971812+299825998+299743902+299822745
2398+300047678+300259195+300285733+300105607+299871797+299779795+299886224
2388+300034317+299972988+299560909+298831232+297863152+296654628+295143907
2378+293330441+291398158+289722767+288626057+288029955+287496137+286742348
2368+285976577+285560196+285456671+285233760+284694630+284343824+285014965
2358+287105596+290339325+294261654+298822650+304165277+309779666+314453211
2348+317194895+317997148+317875704+317889377+317955208+317260139+315441599
2338+312752550+309621722+306389685+303249245+300349837+297941131+296237861
2328+295080190+293948505+292492626+290928480+289758017+289239104+289273453
2318+289568683+289749471+289600974+289323736+289316587+289728299+290419785
2308+291193900+291815530+291997329+291650162+291082068+290763277+290889353
2298+291256607+291546949+291643784+291646155+291666776+291714560+291777340
2288+291931241+292260691+292666338+292882229+292758249+292434275+292159151
2278+292026790+291962282+291878403+291751923+291604087+291481099+291414037
2268+291360905+291242897+291056853+290889114+290805088+290781545+290771400
2258+290801118+290946381+291192890+291395934+291432746+291321704+291159478
2248+291035001+291011238+291095815+291237843+291402513+291603628+291872393
2238+292260875+292812961+293456443+294011819+294378320+294640120+294976481
2228+295527648+296305089+297164793+297916743+298510126+299076859+299791135
2218+300742270+301929972+303300612+304763640+306219813+307637373+309105106
2208+310724534+312427547+314050026+315627037+317386913+319393646+321454523
2198+323419023+325325484+327261792+329275326+331365497+333453868+335422779
2188+337191256+338699936+339892067+340782646+341505430+342230640+343009626
2178+343734983+344295707+344675955+344861687+344828422+344649086+344391421
2168+343935785+343110413+341945224+340636207+339334026+338039821+336632259
2158+334929357+332797613+330316350+327753083+325229145+322611000+319876924
2148+317191514+314591159+312316211+311378584+312813787+316394922+320919124
2138+325584399+330331935+335185441+340040160+344864995+349632527+354219473
2128+358567500+362844955+367372979+372352414+377689896+383202633+388870815
2118+394701572+400564234+406390470+412315361+418514899+425217525+432915929
2108+442319036+454231561+469596096+489115023+512454371+538170078+564434931
2098+589290972+610749368+627836213+641013574+650959505+657993199+662531847
2088+664768788+664290657+660489496+652719932+640513168+624079454+603951248
2078+580719670+555653491+530396912+506031536+483281803+462868511+445072887
2068+429712102+416524411+405053848+394779203+385729695+378226360+372117906
2058+366993540+362693995+359095841+355975415+353289638+351134076+349566365
2048+348681888+348565148+349251213+350954997+354032969+358795318+365847281
2038+376312584+391212881+410882768+435012974+462661019+492229347+522004505
2028+550575622+576490000+598298797+615480842+628859741+639839270+649228189
2018+656713918+661560220+663639254+663364313+660889850+655943938+648437772
2008+638772516+627323383+614080006+599093110+582755037+565375904+547014850
1998+527994565+509264585+491834138+475792876+460351631+445078363+430493182
1988+417197905+405269427+394688009+385568701+377811230+371028069+364885100
1978+359285874+354286370+349929852+346136704+342825511+340098566+338042652
1968+336330633+334367162+331958089+329503254+327416428+325720913+324295156
1958+323120889+322113975+321042847+319823516+318691482+317940175+317609291
1948+317591464+318016629+319124771+320427613+320572177+318891219+316460900
1938+314739399+314068221+313939205+313884621+313748437+313544805+313350950
1928+313365836+313993605+315407122+316964614+317878277+318429480+319207106
1918+319486089+318117122+315725986+314119349+314096928+314990888+315676989
1908+315604726+315068813+314635010+314463650+314365473+314301553+314529444
1898+315273290+316300531+317025704+317432564+318363024+320042109+321105334
1888+320349505+318571141+317237570+316717609+316669495+316895218+317278002
1878+317620759+317821965+318047652+318969143+321650399+326345153+331021454
1868+332256775+329206444+324719550+321622207+320449741+320334104+320474257
1858+320602906+320741075+320927652+321151206+321549024+322476323+324266339
1848+327243120+331542959+335786634+336798216+333530653+329176267+326800973
1838+326531215+326872869+327159572+328512991+332154517+336968142+339843474
1828+339665020+338374455+337067679+335022204+332413983+330707258+330481204
1818+330898540+331159549+331630109+333214324+335821553+337945945+338243638
1808+337156667+336295678+336971855+339573974+343293130+346249695+346975126
1798+346187576+346313615+349252168+354400059+357933814+356270829+351331680
1788+347748009+347313729+348780359+350582394+352353481+353846466+354457362
1778+354728627+356691841+361948531+369539899+375237192+375291703+371151314
1768+366298066+362680762+361714134+364103358+367981634+370114407+370185016
1758+370199646+370649107+371440737+374158787+380108599+387264730+391283380
1748+390690972+388091977+386263366+386329528+388157404+390504579+391799555
1738+392778534+396528014+403879250+409558900+407909589+402019507+396695515
1728+393121253+391604781+392357302+394722524+398595544+405683528+417262376
1718+430159909+436438951+432930962+425433287+419670604+417771677+420148257
1708+426298761+434104200+440666269+446188343+454019401+464785926+473242253
1698+475595345+473652127+468325085+461437130+457653319+459256795+464975848
1688+473513187+485777916+500772971+509784398+506699038+499297777+495464711
1678+497106928+503047809+510261391+516327868+522281614+529160893+533594159
1668+532294588+529373384+530721988+536643571+542392324+544294852+544672087
1658+548218192+557920499+574280994+591116348+594299555+586694036+583495759
1648+586894360+589160082+583889056+575494664+570576613+571040042+576838564
1638+587174593+597839596+600426240+593293303+585414166+582884825+585473014
1628+590213713+594837379+599104174+602390814+603148334+602696263+604822382
1618+610476707+615251590+614478302+610698901+608770423+609946307+612670973
1608+614903283+615997531+616777950+618002684+619333057+619967332+619964832
1598+620370406+621901838+623978079+625383951+625643527+625283090+625020647
1588+625151354+625581114+626228400+627231711+628843935+631646195+636709949
1578+644149659+650467920+650790350+647684921+647958465+653008839+658159634
1568+659038193+657662977+657966881+661667917+670481887+686884137+707522454
1558+716277319+708974197+700642623+698258949+701299612+707724101+715250630
1548+722838689+731954285+744480244+760139420+776648927+788432179+786691233
1538+774728608+765807014+764033722+764989324+763392906+760096121+759709587
1528+763825091+770419249+777419715+784839870+791738226+794789917+793752201
1518+792015005+790480705+788243985+786599635+788352490+795216589+807022631
1508+819919392+823395402+812150195+798195575+790861578+790363672+794052724
1498+798337897+799546018+797336644+795793891+798508522+804709089+809323455
1488+808052187+802672325+797594382+795128814+795345017+797427213+800878670
1478+805794589+812141153+819206605+824880595+825219786+819016940+811617590
1468+808621402+810687424+814070808+814976052+814846228+817907108+825439665
1458+833392572+834055663+826582946+818270044+813341628+812209079+813824538
1448+815794478+815930037+814722725+814183577+815193432+817793529+822368566
1438+828268316+831819236+830053811+826146864+824454437+824993070+824922130
1428+822902789+820606890+819731197+820303720+822087745+825048720+827238539
1418+825230813+819467137+814013026+811022939+809992281+809921267+810616484
1408+812292370+814264810+814769406+813305900+812153871+813542025+816864981
1398+819801329+820949609+820056421+817351346+814432788+813549230+815005458
1388+816463965+815573864+813517104+813707725+817399277+822875147+828087325
1378+832812844+837925632+843184491+846810322+847986905+848375644+849687639
1368+851781891+854098373+856969809+860183450+861806480+860288795+856729420
1358+853324938+850926267+849049689+847422910+846505388+846324545+846074967
1348+845427681+844994981+845129951+845585000+846430331+847980068+849789970
1338+850826069+850662501+849706165+848631545+848187303+848927363+850694627
1328+852745726+854538204+856142489+858000174+860515658+863618587+866564272
1318+868541784+869545316+870258397+871202236+872283766+873176955+874016331
1308+875469178+877953198+880905793+883188900+884201916+884288735+884167364
1298+884240069+884394006+884308290+883889778+883244256+882218155+880293572
1288+877174396+873242823+869214212+865683507+863107742+861538009+860220207
1278+858358258+856377217+855438156+855801533+856612828+857169251+857563504
1268+858076187+858590193+858884541+859147646+859771554+860814049+861944465
1258+862715842+862739366+861906900+860620635+859509479+858902184+858925782
1248+859758395+861437149+863645493+865785691+867301759+867889205+867543471
1238+866787679+866720194+868195388+870949350+874061028+876951577+879341500
1228+880941006+881873156+882750466+884001739+885745184+888118934+891002867
1218+893761092+895754850+896925405+897866010+899357745+901595054+904055402
1208+906371224+908781730+911458429+914087932+916346118+918266363+919991210
1198+921374733+922076199+922293137+923180003+925949770+930433797+934804172
1188+937101248+937264080+937300837+939146686+942518087+945402167+946809288
1178+948028068+950576045+953823649+955685230+955527250+954899445+955335674
1168+957049567+959509695+961884327+963421567+964494202+966439809+969621692
1158+972763143+974952594+977227909+981089351+986050187+989838556+991143714
1148+990850101+990333448+990220091+991098062+993623911+996886071+998367147
1138+997292674+996393163+998349356+1002118245+1004537720+1004602338+1004274394
1128+1005621896+1008741881+1011833857+1012906639+1011944495+1011031605
1120+1012007864+1014345077+1015716250+1014839455+1013176801+1012986107
1111+1014429765+1015902607+1016739117+1018037291+1020648416+1024065027
1103+1027547948+1030963604+1034515481+1038292676+1041965114+1044846474
1094+1046471710+1046947563+1046413120+1044674894+1042135371+1040559610
1085+1041656578+1044804498+1047424518+1048083640+1047767164+1047792085
1077+1048474878+1049595003+1050486942+1050621030+1050285956+1049923241
1068+1050061372+1051304853+1053160921+1053980669+1052764462+1050616473
1060+1049531046+1050424529+1053195913+1057042137+1060490213+1062791478
1051+1064531027+1066050992+1066662109+1065868605+1063627694+1060151022
1043+1056896066+1055712646+1056846739+1059697591+1064327689+1069915080
1034+1073741823+1073710800+1070788199+1067592201+1065475528+1064011728
1025+1062462947+1060884024+1059615550+1058706115+1058593565+1059968782
1017+1062162056+1063096633+1061110740+1056141156+1050282133+1047150386
1008+1048571034+1052423433+1055403228+1056729338+1057352585+1057231508
1000+1056053822+1054245538+1052060865+1049312197+1046037907+1042781702
991+1040363991+1039451689+1039996644+1040978564+1041003264+1039143668
983+1035683168+1032428874+1031148858+1031524365+1031539876+1029519873
974+1025311889+1020430007+1017241214+1016893789+1017811605+1016937750
965+1012877454+1007175824+1002020986+997839835+993885251+990163485+987515457
955+986022031+984280424+980542337+974685005+968789520+965184640+964086202
945+963942998+963978946+964760026+966271390+967504798+967785693+966758122
935+963954760+959949305+956751176+955819760+956598341+957583201+957854172
925+957483884+957281355+957900191+958949375+959559904+959622317+959530352
915+959119926+958057436+956916360+956737282+957571292+958234530+957827045
905+956950324+956664503+956858652+956688101+955938778+955048824+954429032
895+954235324+954144829+953172614+950626328+947553686+946055040+946629180
885+947369093+946574266+945011296+944294981+944277191+943675115+942240206
875+940683779+939392148+938685242+939342232+941555428+944070912+945142077
865+944110683+941941300+940403031+940411485+941162131+941426559+941383186
855+942230944+944301891+946412389+946841708+944846038+941401344+938220123
845+936181594+935070806+934421608+933963473+933465419+932826807+932487102
835+933349268+935804691+938893579+941169115+942278286+942491622+941425604
825+939245562+937521671+936932093+936335972+935646049+936898277+940708259
815+944455020+945752238+945445614+945738124+947410261+949887444+952194297
805+952948545+951250972+948238758+946194495+946149799+946963079+947121941
795+946869128+947561037+949620958+952187607+954712647+957633337+960958645
785+963561389+964593665+964239992+962857645+960704877+958090811+954891653
776+950829813+946801570+944809061+945555296+947093344+947254486+946527144
766+946883022+948810251+951197381+953202901+954462334+954484829+953557677
756+953064622+953728890+954402200+953470049+951146509+949467388+949857965
746+951482319+952657799+953307952+954715147+957354868+960458165+963067085
736+964096347+962489048+958880861+955855635+954953771+954979060+954530701
726+953727861+952676251+951235461+950711824+952744104+956026333+957411841
716+956267236+954504237+953781379+954540405+956165494+957332888+957038907
706+955714121+953933478+951379914+948437391+946555152+946094738+945690046
696+944334899+942583294+941397742+940511464+937981351+932526799+925732979
686+920124122+916139031+912298026+907570449+902267335+897683403+895975685
676+898648120+904472150+908591404+905147665+892641923+878774637+875100214
666+879768907+883883382+886554567+891120268+896119183+895357657+887251254
656+878113678+874322368+876052434+878784047+879083467+878307606+879272618
646+881139639+881219916+879770598+879092583+879822572+880380465+878742144
636+874729706+871481734+872626853+877594820+882285346+882925796+877527702
626+866679320+854744042+847162378+846086729+849950817+855796093+860730464
616+862983652+862331293+859565937+855961131+852124390+847610737+842900068
606+840207343+840766560+843880664+847731519+849835034
##END=
