##TITLE=<SNM>
##JCAMP-DX=4.24
##DATA TYPE=INFRARED SPECTRUM
##DATE=2/5/2025
##SAMPLING PROCEDURE=Instrument type and / or accessory
##ORIGIN=Admin
##XUNITS=1/CM
##YUNITS=ABSORBANCE
##RESOLUTION=4
##FIRSTX=4497.3318
##LASTX=599.83466
##DELTAX=-1.4281778
##MAXY=1.7751646
##MINY=0.20500237
##XFACTOR=1
##YFACTOR=1.6532509e-09
##NPOINTS=2730
##FIRSTY=0.22252829
##XYDATA=(X++(Y..Y))
4497+134600439+134541249+134815874+135345457+135646319+135444918+134916732
4487+134430630+134302308+134658395+135297281+135741409+135563018+134659413
4477+133383768+132583328+133132596+134953029+136710089+137011204+135856805
4467+134509135+134109028+134754332+135684661+136056476+135656242+135022422
4457+134848935+135245851+135623236+135355074+134518671+133769553+133519994
4447+133570396+133561672+133337954+132822865+132061633+131437267+131445739
4437+132199067+133255879+133876450+133564691+132616948+131951202+132058866
4427+132406498+132269262+131760960+131444577+131330604+131008705+130437662
4417+129933893+129738846+130057528+130945675+131828451+131865748+131045082
4407+130177521+129748797+129510694+129167145+128799891+128583844+128510926
4397+128454008+128333672+128237275+128419866+129102998+130206922+131304718
4387+131892860+131770171+131151700+130375074+129553480+128610180+127547996
4377+126544722+125821770+125510605+125640008+126164102+126883638+127376249
4367+127305341+126893229+126706366+126847216+126803114+126245924+125509217
4357+125069695+124975588+125015534+125137979+125392775+125632005+125651626
4347+125551715+125606416+125860472+126109256+126144741+125854857+125313666
4337+124863643+124767400+124781271+124502275+124066412+123999552+124452657
4327+125061024+125459734+125523179+125215728+124675347+124306444+124324939
4317+124432612+124331925+124177113+124167947+124219421+124370033+124944555
4307+125959744+126840519+126976953+126303528+125343238+124892332+125437021
4297+126562289+127217345+126902314+126273315+126251620+126933410+127695435
4287+127947238+127484615+126484072+125443583+124921400+125160449+125981169
4277+126940341+127526851+127429850+126807837+126192656+126028903+126369126
4267+127007372+127733011+128325659+128429032+127741718+126504577+125584847
4257+125770962+127022605+128570152+129605252+129780307+129343399+128938109
4247+129005700+129306463+129311708+128984519+128785704+128972080+129276025
4237+129345733+129257512+129368023+129683253+129744669+129357207+128961769
4227+129011793+129449791+129911784+130047406+129760577+129436181+129586432
4217+130147579+130682452+131128076+131641949+132029482+132004822+131667330
4207+131324511+131229854+131542515+132092512+132351679+132123274+131994989
4197+132600210+133608567+134020689+133528953+132972827+133142447+133752365
4187+134073525+134012731+133976533+134082556+134093534+133976434+134118708
4177+134917931+136265105+137502687+137968294+137607439+136989491+136693253
4167+136731352+136636749+136103687+135394660+135009542+135137341+135618116
4157+136180795+136449931+136081893+135320084+135013679+135630501+136675812
4147+137429067+137706468+137578228+136971005+135910308+134735809+133898397
4137+133707948+134173004+134957716+135634827+136037999+136286728+136524795
4127+136714353+136641958+136094485+135086641+134014605+133514298+133931062
4117+134953056+136010986+136902441+137669252+138082212+137811400+136977648
4107+136027147+135218703+134685056+134766283+135722490+137195913+138417604
4097+138941535+138854287+138343011+137502417+136603057+136156973+136476331
4087+137267270+137880712+137976343+137797358+137804289+138206406+138862633
4077+139504151+139957689+140143686+139999709+139572670+139102215+138823741
4067+138735366+138650362+138379758+137868770+137303945+137020965+137154416
4057+137476288+137676923+137690091+137658734+137678383+137718582+137821666
4047+138191462+138865310+139413595+139286806+138455081+137400144+136489039
4037+135706635+135106858+135107146+135944648+137103590+137755347+137677031
4027+137390130+137494810+138083988+138743037+139068217+139129633+139307005
4017+139717026+139982124+139655817+138785336+137909924+137484156+137489366
4007+137682610+137981904+138435532+139040456+139740136+140426639+140931300
3997+141169439+141194631+141026823+140651502+140249385+140137359+140435779
3987+141019810+141700617+142228000+142313040+141909724+141353688+141081632
3977+141262952+141682329+141940577+141858106+141630269+141485903+141421062
3967+141458756+141834112+142646440+143602872+144300777+144548146+144326952
3957+143710472+142945752+142464021+142750003+144084477+146058496+147506384
3947+147717168+147503004+147999264+148892018+148963583+147984474+146831517
3937+146288424+146799232+148550596+150867208+152176139+151645295+150383206
3927+150027597+150765782+151382234+151148367+150922910+151795347+153448161
3917+154339968+153304057+150804034+148426871+147392997+147870222+149650014
3907+152953694+157922049+163566704+168118395+170535063+170347425+166948223
3897+161288876+156582554+155584824+158008919+160544616+160550817+159821501
3887+161239033+164073267+165520560+165649341+166277421+166261449+163730493
3878+160855843+161046924+164523911+169322385+173906180+176662125+175888464
3868+173186941+171939507+172331548+171622800+168681308+165685322+165209729
3858+168659586+176678115+187633358+193732173+188212207+177413650+169040558
3848+165197345+165441784+168632042+173454238+178814183+183838077+187121784
3838+187000754+183956620+180524338+178020782+176019859+174345594+173748304
3828+174482127+176094381+179213307+185089134+191765698+193855384+190726849
3818+187241210+184803234+181122782+176352033+173384097+174124463+178372696
3808+183682527+187217072+189795114+193942326+198216877+198641365+196110066
3798+194238122+192935365+190690634+188452626+188096801+189878072+193073304
3788+197307422+202230206+207077387+211848658+217795059+225266790+232339396
3778+237542888+242618663+250348894+261914677+276753350+292560173+305869352
3768+315010661+321016008+325293985+329175450+333984847+339532610+344200139
3758+347862330+353200372+363213587+378920975+397948052+413992896+423146968
3748+429846840+439568530+452444821+463253617+469435552+475001990+483872360
3738+497272393+513620083+528422541+537693821+542307919+546007966+550961900
3728+556782548+561429743+563021230+561859567+559444232+556526319+553626036
3718+551718869+551669079+553989522+558324534+562091820+561842153+557643710
3708+552453088+548861380+548294231+550030579+551146239+550041647+548816891
3698+550108706+554508830+561470699+570538856+580705873+588294307+588052392
3688+580508663+572377559+567706209+566634209+568873208+574349478+582511407
3678+591920590+598458872+597285780+591600547+588389848+587593906+583750260
3668+575195353+565633666+558093543+553538103+552269434+554261831+558470837
3658+562300999+563362327+563201928+566141473+573978781+583306267+586629164
3648+580628864+570979820+563404149+559143947+557580365+558261838+560856861
3638+564439447+567597292+569628879+571924661+577376379+586626604+594115784
3628+593327738+588034978+585613551+588164589+594277698+600780505+603593864
3618+602123803+600529396+601483250+603792156+606128137+609098688+612591358
3608+614586386+614353268+613744909+614461354+616496618+619037128+621687889
3598+624396262+626780086+628361659+629404239+631139902+634768708+639919672
3588+643771646+643481780+639784473+635761608+633652652+633968981+636108438
3578+638634022+639701768+638640295+637126863+638046430+642851285+649412065
3568+652422850+648737153+642241124+638719107+639311746+641267477+642078886
3558+641734724+641336627+641207629+640775137+639456968+637575578+636221211
3548+635660299+634394839+630968218+626306349+622719004+621290008+621467677
3538+622234092+622889319+623409563+624422076+626219822+627862108+628093641
3528+627023516+625757407+624577608+622891338+620897679+619565088+618995667
3518+618563320+618316285+618819657+619678655+619519662+617770659+615281560
3508+612987003+611387476+610930540+611512075+612348505+613237572+614586458
3498+615648868+614615517+611367070+608390463+607718435+608441153+608246539
3488+606406827+604245089+603054800+602602695+601758010+600151596+598682365
3478+598082227+597902791+597680019+597792793+598174306+597816155+596498238
3468+595477686+595839009+597243958+598357816+597967758+596055760+593868569
3458+592661406+592603830+592701930+591591209+589014249+586541050+586044168
3448+587647012+589659057+590023986+587835244+584335833+582059050+582156862
3438+583013229+582403897+580582752+579846982+581345561+583606661+584333057
3428+582699387+579547959+576204548+573588147+572095877+571708812+571983572
3418+572200106+571836980+571045293+570538099+570814662+571442092+571418802
3408+570307721+568576167+567003572+566293148+566782747+567931612+568521259
3398+567848293+566322134+564703427+563339650+562102420+560699237+559148886
3388+557801550+556976946+556982786+558035642+559635313+560759806+561106528
3378+561125816+560815760+559750791+558120619+556647205+555761094+555503532
3368+555823538+556434456+556700996+556304521+555758571+555616954+555364980
3358+553946078+551481388+549445295+548849519+548992974+548456866+547155245
3348+546573457+547643330+549412559+550487190+550853741+551385919+552288145
3338+552709965+551714434+549677620+548289003+548547755+549521475+549770745
3328+549116527+548358117+548153083+548610668+549290988+549435452+548559617
3318+546973357+545686446+545499330+546120776+546550239+546381223+546073294
3308+545960124+545916211+545924323+546089194+546051194+545266428+544076932
3298+543630019+544362003+545404547+545982585+546322024+546561271+546252550
3288+545622776+545781481+546980243+548035478+548009881+547250064+546394382
3278+545728664+545766123+546943037+548512207+549022645+548121465+546878249
3268+546296642+546336012+546420485+546385982+546610808+547281610+547849373
3258+547594118+546545264+545341851+544402490+543734789+543413737+543786453
3248+545033886+546524858+546820024+544865735+541244464+537711992+535526243
3238+534618068+534406221+534891782+536380014+538404498+539822967+540103135
3228+539779667+539387519+538598787+536886955+534555300+532467002+531088119
3218+530394748+530383391+530982736+531737290+532155576+532035556+531215711
3208+529543861+527316363+525296963+524067375+523549330+523192333+522560505
3198+521647535+520528125+518981199+517036176+515675284+515970918+517409217
3188+518074899+516843978+514622248+513061910+512719587+512768475+512164119
3178+510836972+509530952+508645058+507899374+507099971+506362218+505471673
3168+503942954+501833926+499753596+498239767+497633933+497993489+498534825
3158+497926395+495883740+493732350+492779000+492891161+493076185+492710860
3148+491816205+490706746+489659046+488540971+486981751+485225501+484140955
3138+484121523+484673458+485146545+485234947+484786628+483776423+482479489
3128+481171342+479694143+477752076+475687357+474412235+474355127+474947910
3118+475403800+475491337+475292144+474847322+474296937+473795044+473151390
3108+472048528+470600280+469229977+468140204+467348227+467013548+467151919
3098+467133532+466192080+464514138+463119968+462613568+462714769+462999047
3088+463459479+464163378+464745850+464553039+463292951+461368442+459459400
3078+457978739+457058306+456722437+456776949+456706249+456026325+454851214
3068+453879802+453609441+453760178+453672786+453033638+451978475+450754224
3058+449597752+448720583+448191216+447991951+448068023+448089547+447503109
3048+446259100+445144450+444882056+445213564+445334377+444939092+444354060
3038+443878773+443475124+442993817+442358779+441533743+440455506+439055748
3028+437391686+435709165+434285648+433171647+432181199+431218007+430498462
3018+430303559+430563177+430753681+430255068+428940143+427364807+426192580
3008+425548998+425140734+424762538+424350417+423812001+423131970+422440004
2998+421784489+420986023+419907570+418827026+418314424+418562613+419007363
2988+418846134+417822409+416360712+415090998+414311424+413796443+413223381
2978+412706309+412545152+412640332+412606370+412227958+411480723+410422604
2968+409250413+408191609+407367726+406880289+406725081+406546691+405882270
2958+404711341+403437264+402386644+401622465+401128502+400816933+400357293
2948+399430479+398274043+397533730+397425103+397437866+396992719+396084725
2938+395154738+394515770+394054977+393506431+392857549+392281638+391823080
2928+391430247+391123328+390854949+390400213+389634303+388799316+388319811
2918+388355684+388591362+388498922+387785181+386585590+385336822+384460590
2908+384018689+383710868+383326651+382989159+382768875+382390752+381629529
2898+380707546+379984755+379468729+378864156+377934205+376677109+375330025
2888+374232968+373472503+372769794+371989102+371508912+371701688+372287657
2878+372591115+372288955+371626661+371015383+370655718+370512083+370402698
2868+370008026+369021724+367540235+366168779+365493110+365485935+365576140
2858+365268211+364564348+363799124+363225340+362842854+362499738+362038007
2848+361426765+360817361+360362588+359975343+359409744+358566464+357612213
2838+356815262+356310736+356011965+355739693+355400759+355013153+354621221
2828+354220600+353733308+353097045+352388747+351732835+351096284+350348184
2818+349503571+348726809+348113511+347652538+347377922+347324167+347296767
2808+346943736+346168380+345254833+344509870+344016269+343733325+343531861
2798+343147572+342396696+341431485+340563690+339880774+339248296+338653314
2788+338261273+338036555+337608282+336739729+335659076+334682401+333813884
2778+332964512+332258486+331866662+331695230+331398874+330693425+329651205
2768+328641000+327933857+327468954+327031919+326494658+325822558+325032600
2758+324215351+323498113+322935217+322425176+321767245+320901216+320078594
2748+319623858+319514077+319393119+319014671+318464105+317917902+317376819
2738+316717879+315913644+315094052+314389252+313801083+313267823+312770292
2728+312324749+311918432+311449671+310749197+309787087+308831610+308208470
2718+307961471+307914747+307875737+307616516+306954079+306018287+305182615
2708+304671672+304432136+304289979+304063097+303669182+303179330+302632046
2698+301910445+300989183+300120864+299574698+299325644+299133193+298825949
2688+298407734+297947770+297494314+297122535+296925145+296856572+296696713
2678+296246970+295506784+294690094+294126910+294017417+294167686+294093128
2668+293507123+292618543+291849532+291371686+291029110+290615871+290070696
2658+289446240+288843596+288364884+288050899+287906128+287955737+288129512
2648+288156588+287796527+287137478+286496203+286102775+285994995+286067641
2638+286085794+285786662+285119502+284305227+283570196+282934997+282355535
2628+281907396+281668365+281533202+281309511+280955074+280641341+280575545
2618+280721812+280750077+280398506+279809923+279328255+279094506+279010917
2608+278929581+278719753+278297266+277692387+277044208+276530615+276274927
2598+276225408+276180396+276008946+275744191+275445203+275138519+274886238
2588+274740133+274652362+274549178+274429212+274314527+274195589+274080363
2578+274009393+273971934+273876700+273650720+273316022+272935825+272537241
2568+272131140+271789610+271645146+271759776+271997438+272087895+271861049
2558+271409521+271016562+270907988+271047513+271210815+271261866+271219756
2548+271080484+270804156+270453829+270118211+269771093+269369643+268950833
2538+268550176+268186149+267900159+267685085+267484720+267317362+267237180
2528+267209600+267192871+267252827+267454886+267704553+267773739+267509561
2518+267035734+266668913+266596555+266759262+267042999+267383664+267661290
2508+267670646+267287907+266645821+266081375+265830284+265816873+265823434
2498+265771284+265721999+265688740+265566953+265242116+264729839+264179760
2488+263737967+263465605+263364746+263365972+263323231+263128924+262801148
2478+262423745+262072066+261799019+261632148+261568694+261551966+261459364
2468+261210922+260892214+260662556+260562906+260486365+260295320+259948959
2458+259571665+259349560+259300474+259233199+258984938+258595854+258202066
2448+257876110+257639945+257531696+257572995+257742786+258024252+258353759
2438+258508498+258255063+257675494+257151355+256960941+257020339+257040186
2428+256850944+256522465+256180664+255840901+255535911+255443993+255667342
2418+256012747+256211724+256250373+256306111+256457155+256594156+256586946
2408+256466961+256413008+256537048+256742929+256874666+256935758+257050587
2398+257268978+257524882+257768258+258068435+258624841+259748613+261828997
2388+265274996+270458552+277706790+287330650+299593463+314580405+332113697
2378+351835370+373325226+396030537+419127095+441643488+462722772+481615299
2368+497570515+509995207+518603941+523220419+523555387+519502598+511448503
2358+499908047+485170196+467347579+446912092+426403923+410590971+403463979
2348+406399450+418329783+435392800+451465369+462051898+466848677+468026456
2338+467835015+467085762+465364231+462593414+459551912+456811596+453880451
2328+449657744+443501371+435671237+426944502+418082387+409521531+401246216
2318+392942346+384407412+375774126+367293957+359026861+350875099+342849305
2308+335114965+327779154+320800988+314129237+307792599+301858925+296420692
2298+291584092+287362286+283624114+280210598+277035537+274047339+271205389
2288+268527211+266074345+263911742+262145091+260895296+260126484+259600038
2278+259093548+258553690+257977221+257330106+256680809+256220034+256014081
2268+255881605+255633903+255319611+255116632+255055667+254960577+254657155
2258+254173432+253683201+253295650+252994409+252744363+252522998+252274755
2248+251982491+251756854+251712779+251767003+251693382+251414729+251121654
2238+251029358+251127062+251263216+251359694+251432359+251533307+251769040
2228+252234862+252847817+253361807+253618865+253717830+253889226+254239030
2218+254670224+255055270+255424669+255954324+256789870+257889216+259024452
2208+259962299+260667604+261325264+262153167+263179812+264228179+265146143
2198+265981148+266882888+267933364+269100832+270265145+271311169+272257650
2188+273205195+274149279+274992774+275710590+276352982+276924079+277370109
2178+277676776+277915086+278136325+278256364+278162914+277895437+277573502
2168+277226762+276831982+276403600+275934082+275335729+274507231+273452933
2158+272310954+271213339+270163926+269142527+268230963+267554807+267194926
2148+267110382+267104884+267137872+267680614+269328651+272095574+275537463
2138+279402723+283678950+288219320+292810453+297497414+302543067+308107450
2128+314081756+320248729+326552450+333098196+339907525+346872387+353946922
2118+361159684+368443362+375677612+382955233+390742464+399862682+411359729
2108+426148488+444662566+466896123+492470639+520143115+547579769+572523610
2098+594119534+612561289+628077489+640739661+650544561+657363985+660961642
2088+660974549+657091064+649134673+636553404+618608098+595656942+569360212
2078+541577305+513779653+486977064+461709070+438399944+417584207+399583812
2068+384322435+371477907+360560195+351099745+342945423+336100653+330406119
2058+325676976+321821108+318656917+316029663+314073211+313024141+313018877
2048+314251061+316989574+321466635+328053841+337381400+350124692+366886089
2038+388160312+413990084+443644465+475720310+508337670+539381354+567142989
2028+590855368+610578447+626853994+640329955+651451078+660495909+667532011
2018+672166119+673849794+672542801+668752694+662932875+654957953+644301336
2008+630803023+614921246+597178955+577882383+557376305+536167770+514835465
1998+494018935+474389882+456357544+439707442+423801366+408380671+393906727
1988+380928082+369539373+359553415+350794412+343131312+336415252+330417007
1978+324872777+319704184+315048877+310968796+307406327+304479113+302354744
1968+300688951+298689254+296019115+293181745+290771133+288846246+287222960
1958+285898084+284894621+284009466+282990482+281816272+280687363+279839523
1948+279443841+279652642+280494858+281445720+281438960+279987286+277926587
1938+276377300+275601691+275245001+275053506+275011702+275107693+275243793
1928+275445384+276074923+277393904+278877340+279751319+280201369+280818488
1918+281118521+280184766+278518379+277585381+277992005+279111216+279966700
1908+280096292+279756817+279466140+279457451+279639212+279908690+280348717
1898+281127696+282157478+283030195+283690127+284731157+286287601+287271649
1888+286745744+285356262+284289508+283855159+283743305+283732110+283762016
1878+283826515+283954179+284227154+285059257+287260960+291069346+294852639
1868+295831766+293336268+289671463+287114440+286145967+286117395+286285311
1858+286257100+286063279+285959699+286096736+286521513+287377303+288943120
1848+291634458+295564685+299315008+300056618+297147231+293518155+291705104
1838+291673377+292084922+292358150+293473810+296557639+300760102+303449691
1828+303562321+302632442+301571889+299775080+297418765+295864394+295775884
1818+296527282+297337303+298262152+299836857+301961838+303569027+303742117
1808+302867832+302204926+302843028+305177784+308558581+311346812+312241683
1798+311842648+312194958+314862627+319299129+322280459+320833977+316670253
1788+313803390+313776387+315451193+317419866+319367377+321089809+322031405
1778+322614238+324591240+329376049+336154697+341284714+341546026+338156900
1768+334103281+331109405+330401901+332520231+335882713+337935390+338516781
1758+339127483+339932185+340817286+343256560+348473392+354838404+358724304
1748+358780583+357064568+355943753+356465440+358513827+360941491+362401493
1738+363630576+367301059+373993541+379037607+377661969+372671045+368198851
1728+365203496+363899207+364444580+366294964+369423535+375333306+385057051
1718+395804593+400990564+398202117+392205603+387515360+385804610+387541066
1708+392489340+398992290+404706294+409777832+416770238+425810491+432297506
1698+433450841+431355586+427102089+422067793+419584607+421094723+425411564
1688+431743227+441248239+453203412+460320345+457521443+451199298+447957377
1678+449486348+454717602+460774613+465439834+469940438+475702211+480190484
1668+480380880+479198378+481527978+487904131+494520685+498093680+500180536
1658+504524417+513632016+528139741+543595444+548859073+545194142+544577419
1648+549139998+552271309+548219168+540885737+536276866+536227690+540859959
1638+549702749+559416291+562853512+558037769+552268208+551027625+554406439
1628+559963576+565762736+571591387+576875855+580117849+582209571+586370303
1618+593573727+600083024+601761399+600716294+601011749+603486787+606827493
1608+609680367+611622830+613015990+614369131+615870522+617504083+619398235
1598+621788549+624778424+628232877+631748405+634845069+637385146+639623677
1588+641748280+643632481+645160407+646540660+648255124+651091630+656137463
1578+663655738+670809589+673070761+672041376+673829749+680458308+688339060
1568+693116586+695682983+699410286+706070644+717363740+736462020+763364044
1558+785197737+792351156+795008406+800389892+807736988+814785132+820295905
1548+824349847+828558602+834634469+842812009+851576564+855841994+848561308
1538+834191882+823862555+819804646+817623945+813221442+808093264+806290037
1528+808590723+812528359+816210740+820046346+823275757+823175385+820362098
1518+818106262+816579346+814366052+812477452+813300614+818089029+826710165
1508+836300983+838539225+829250892+818217377+812734726+812295601+814250394
1498+816011799+815588826+813448215+812681512+815224113+819493942+821632389
1488+819659425+815514917+811904282+810064209+809917762+810736092+812242603
1478+815076657+819817481+825868472+830842631+831192489+826398667+820913204
1468+818790908+820240888+822371403+822545107+822313935+825351904+832618025
1458+839969231+840213526+833663562+827735873+825588556+826263901+827934669
1448+828781049+827852901+825974107+824578063+824257480+825457756+829089302
1438+834634541+838217776+836616879+832776586+830678879+829949526+827993219
1428+824448488+821550981+820688882+821291544+822554841+824133962+824651755
1418+822020824+816855800+811950718+808705876+806763052+805364845+804371729
1408+804246049+804898175+805082694+804096429+803404283+804880870+808520348
1398+812810438+816242034+817403084+815313597+811446264+808934020+808994372
1388+809755451+808694988+806281961+805556936+808279297+813475976+819176026
1378+824546408+829861485+834724746+837739209+838748476+839673091+841878020
1368+844603122+846768393+848588564+850310239+851028487+850097743+848451202
1358+847364277+847032950+846751880+845879182+844544644+843486416+843290072
1348+843912202+844839413+845662792+846604352+848255002+850614670+852743960
1338+853716382+853562435+852904252+852365909+852570113+853972502+856477248
1328+859454360+862189268+864360956+866284672+868643403+871790541+875394110
1318+878772564+881470121+883497093+885148175+886819664+888891486+891418008
1308+893942222+895927516+897276908+898187534+898939023+900078874+901896594
1298+903466486+903575870+902631138+901986582+901672921+900424262+897772564
1288+894712530+892313203+890645031+889125109+887418072+885528535+883355332
1278+880969922+879136122+878770905+879938806+881832742+883642819+885170456
1268+886569168+887730796+888400156+888918309+890025569+891687540+893168308
1258+894314721+895452121+896167773+895689927+894378319+893362922+892738196
1248+891580390+889908397+888995751+889212285+889193682+887926780+886184987
1238+885141542+884967117+885272703+885828856+886684754+888138195+890215496
1228+892024563+892393025+891307253+890004009+889604253+890101857+890667889
1218+890825513+891069736+892174544+894279029+896903975+899477799+901556110
1208+903060096+904490968+906427662+908896644+911648064+914681419+917836777
1198+920407211+922148426+924037459+926866466+929904507+932046416+933297599
1188+934111171+934576110+935239990+937278715+940894542+944622493+946967164
1178+947933672+948453557+949088522+949922644+951134169+952849282+954665271
1168+956240499+958014018+960284563+962308146+963462346+964292502+965383899
1158+966574296+968002500+970476673+974196621+978117961+980977612+982645856
1148+984247114+986465094+987992587+987019878+984239543+982653860+984303501
1138+988358814+992225714+993938159+993807791+993750755+994859673+996484221
1128+997553553+998089301+999181779+1001744714+1005208686+1007549462+1007713864
1118+1007417436+1008969085+1012289277+1015681215+1018127555+1019539390
1110+1020472586+1021826809+1023602563+1024688479+1024617094+1024319008
1101+1024743063+1026153961+1028590134+1031709151+1034230048+1034790528
1093+1033748092+1032984057+1033886103+1036462738+1039893974+1042558218
1084+1042477603+1039888277+1038026645+1039398894+1042923435+1045891461
1075+1047273805+1047946050+1048788175+1049907621+1051370940+1053651436
1067+1056815230+1059811234+1061077560+1059660677+1056095252+1052873557
1058+1052570567+1054638855+1056310921+1057490359+1061129909+1067517995
1050+1072031757+1070804802+1065922361+1062237385+1061808498+1063427854
1041+1065607979+1067991875+1070514070+1072714024+1073741823+1072100763
1033+1066679402+1059325673+1054074121+1053274033+1056091863+1059973617
1024+1062282811+1061694138+1058988721+1056390887+1055785485+1057193643
1015+1059034004+1059734009+1058657178+1055875113+1052681899+1052043040
1007+1055569167+1060183878+1060992691+1057411259+1053224785+1051545725
998+1052285460+1053536283+1053909071+1053531452+1053336116+1053502249
990+1052720331+1049339354+1043593948+1037932619+1034496336+1033036262
981+1031940034+1030671906+1030024322+1030198963+1030270420+1029760775
973+1029255023+1028806668+1026978637+1022767359+1017496195+1013531519
964+1011601314+1010049161+1006752403+1001855541+997816163+996065934+995331030
954+993975870+992134500+990493295+988377273+984415553+978534950+972534650
944+968776413+968041725+968849673+969178909+968245281+966563192+965277254
934+965360176+966572710+967384984+966639336+965077160+964618205+966280609
924+968908367+969783229+966928986+961198651+955692133+953297637+954804796
914+958270282+960437139+960100693+959306085+960002196+961130222+960664994
904+958930989+957823658+958030386+958770914+959348772+959559177+959171607
894+958253626+957299375+956172575+953880109+950348214+947376005+946464729
884+946695973+945956887+943788515+941839851+941695206+943227315+944976894
874+945579917+944844940+943762053+943378737+943455314+942684933+940949703
864+940470342+943261853+948052070+951070211+950115383+946800887+944370555
854+944522266+946585939+948805939+950171770+951123065+952378574+953021904
844+950700812+945064936+939606296+937998765+940166704+943534198+946319508
834+947870724+947770497+946635909+946128932+947117505+948537488+947937566
824+943825722+938262817+935380524+937247997+942762519+950014147+957402054
814+962322350+962480695+959343292+957067915+957832166+960047623+960736523
804+958457253+954094913+949879020+948155543+949991001+954025763+957676201
794+959665822+960195080+959222802+956447082+952763332+950258370+950381238
784+952940496+956885270+961195767+964763138+966033141+964315000+961323899
774+959281641+958113812+956626626+955260578+955801590+958919669+962846633
764+964519132+962521291+958657419+955681749+954497985+954539879+955842329
754+959033813+963002238+964409026+961368028+956257444+952944101+952534395
744+953199717+953677852+954956003+957876656+961291812+963803984+965223463
734+965047308+962106177+957186890+953520372+953678501+957334707+961663662
724+963688038+962967483+961261527+960003855+959630490+960460790+962763783
714+966187664+970057304+973416073+974404502+971481397+965310567+957990511
704+951787810+948781711+949667173+952635776+954712212+954235231+951526858
694+948369914+946175224+943503192+937940864+930805616+926352061+926665434
684+930822200+937335462+943194723+943083824+935084674+924099470+916569802
674+915163808+917814063+920281026+919785441+917584334+917290718+918493807
664+918678686+917573013+915774978+913038844+908246320+900824739+892266623
654+885350793+882502535+884245769+888378019+891245025+890750450+887821938
644+884711790+882720150+881383161+879625650+877770795+877145492+877187674
634+875337074+871146634+867862928+868553054+872800025+878018407+882048772
624+883345309+880373461+873194661+865408512+861550048+862298941+864902184
614+867184194+867956593+865481267+859840127+854913846+853600219+854545817
604+856721687+862772389+872368182+875461385
##END=
