##TITLE=<SNM>
##JCAMP-DX=4.24
##DATA TYPE=INFRARED SPECTRUM
##DATE=2/5/2025
##SAMPLING PROCEDURE=Instrument type and / or accessory
##ORIGIN=Admin
##XUNITS=1/CM
##YUNITS=ABSORBANCE
##RESOLUTION=4
##FIRSTX=4497.3318
##LASTX=599.83466
##DELTAX=-1.4281778
##MAXY=1.8060012
##MINY=0.26854542
##XFACTOR=1
##YFACTOR=1.6819697e-09
##NPOINTS=2730
##FIRSTY=0.28778774
##XYDATA=(X++(Y..Y))
4497+171101619+170589443+170815516+171009482+170837061+170579821+170449589
4487+170320101+170005133+169528535+169216863+169452451+170097182+170482617
4477+170321943+170215755+170821823+171917389+172653211+172418651+171303294
4467+169975490+169172708+169200473+169886364+170787998+171294151+170906979
4457+169804380+168831109+168585014+168746485+168557054+167906937+167718871
4447+168918268+171084007+172647417+172579342+171316919+169889589+168880881
4437+168451592+168632926+169302852+170213080+171099475+171629265+171412831
4427+170376623+168982533+167851460+167281006+167184652+167335934+167501728
4417+167465600+167250654+167262171+167900098+169048872+170086905+170467804
4407+170207463+169642768+168829267+167613994+166341667+165744511+165899957
4397+166088927+165905751+165712617+165900241+166456626+167194557+167866166
4387+168278870+168453931+168297121+167425839+165940338+164798793+164655023
4377+165000450+165065584+164814067+164569708+164435896+164368902+164208920
4367+163672344+162843020+162347180+162575113+163140021+163454457+163460428
4357+163504672+163754205+163958111+163709713+162891127+161876394+161259145
4347+161356651+161946383+162525873+162938666+163525314+164381234+164831608
4337+164195170+162792947+161600939+161190414+161499251+162273027+163165005
4327+163651170+163446466+162931348+162672903+162669590+162518927+162085599
4317+161524979+160945648+160540652+160696293+161476501+162361869+162869510
4307+163041275+163116402+163172305+163245536+163430502+163712761+163912946
4297+163918262+163917305+164209788+164696113+164867364+164488042+163909846
4287+163554532+163453855+163294865+162681691+161514844+160271593+159661273
4277+159935523+160738074+161518210+161942201+162110742+162416496+163030325
4267+163638962+163894749+163931250+164105566+164426559+164639183+164685889
4257+164617637+164306603+163791839+163574059+164051542+164996676+165845809
4247+166127820+165648617+164701854+163870120+163378391+163075277+163003817
4237+163290169+163657000+163713115+163469040+163169239+162993399+163084331
4227+163461279+163855715+163887981+163478962+163091011+163449283+164765907
4217+166302172+167079686+166959429+166634451+166637481+166768705+166531470
4207+165836383+165138567+164937725+165273548+165809734+166321149+166868993
4197+167456368+167778813+167569396+167055713+166754938+166796896+166744360
4187+166230925+165501765+165075506+165115054+165437411+165912183+166494508
4177+167029950+167337724+167423713+167478623+167706379+168110242+168400031
4167+168278162+167868027+167573081+167469693+167223084+166723062+166401361
4157+166623058+167088333+167250672+167112023+167125542+167449617+167788310
4147+167887606+167697803+167103766+166041034+164901065+164339152+164636064
4137+165557915+166722087+167758100+168306334+168277028+168005311+167909985
4127+168090379+168329546+168341116+167994432+167432289+166976156+166877835
4117+167154690+167601095+167936758+167974375+167631199+166904767+166011638
4107+165382128+165289300+165676702+166441087+167472226+168335358+168474768
4097+167916682+167297768+167006916+166714982+165956356+164865770+164130444
4087+164352530+165541490+167136989+168432438+168983508+168741807+167982100
4077+167191296+166815589+166862030+166894366+166651585+166440413+166608333
4067+166890132+166754761+166219798+165739337+165429260+165046979+164676888
4057+164723754+165179781+165528999+165441025+165142943+165118474+165683523
4047+166735447+167732142+168034423+167447562+166461640+165863386+165966013
4037+166281512+166209397+165910925+166100533+167075717+168297351+168926276
4027+168672740+168123832+168140665+168915787+169842954+170302329+170253142
4017+170039312+169875786+169635344+169127012+168530033+168303677+168556026
4007+168849838+168807402+168591552+168604647+168963982+169400659+169533302
3997+169289014+169052859+169204708+169666901+170174169+170644034+171033597
3987+171277832+171516184+171920684+172305092+172350841+172158717+172232923
3977+172901999+173878247+174462663+174234765+173416019+172520976+171919568
3967+171770465+172077672+172732856+173614362+174627996+175634773+176417461
3957+176774103+176727627+176672805+177176672+178431989+179797126+180147744
3947+179250504+178403019+178770877+179617530+179232077+177360468+175418622
3937+174734733+175807938+178488689+181791774+183936800+183853930+182668070
3927+182473785+183829248+185249437+185385269+184974284+185575674+187151717
3917+187862131+186303240+183315529+180798605+179595984+179488520+180728882
3907+184392543+190795870+198146492+203582697+205633743+204206661+199316600
3897+192429216+187134690+186325547+189455362+192535475+192434691+191424725
3887+193155434+196958719+199479452+200453095+201669892+201584700+198150142
3878+194373099+194268577+197632526+201975061+206079492+208861559+208404665
3868+205795568+204454333+204829491+204118351+200975000+197628185+197032056
3858+201001631+210318391+222934356+229655521+222801909+210021851+200055611
3848+195415118+196057032+200809064+207709773+215029936+221535624+225208835
3838+223937164+219052330+214274322+210950577+208129475+205665725+204725411
3828+205444808+206790314+209295260+214741440+221501710+224086284+221828939
3818+219369335+217258081+212691032+206712883+203274072+204436703+209697333
3808+216116606+220289538+222989160+227136754+231262395+231009000+227482039
3798+224741239+222708815+219800573+217063069+216437333+218194514+221720288
3788+226662265+232317473+237441190+242051952+247974818+256095548+264461310
3778+270974883+276872589+285047201+297140659+312876126+329470366+342412674
3768+349845564+353692543+355743412+356936376+358638754+361451917+364145550
3758+365783715+368241795+374891979+387530979+403839628+417269413+424656908
3748+430979650+440461743+450568988+455884989+458317732+464301728+476334322
3738+493432517+512731552+529526686+539030254+541093385+541126448+544639819
3728+553045749+562905322+569099178+570866902+571415863+572353183+572916035
3718+572612336+572623499+575426208+581964410+587655303+584968191+573999463
3708+562064250+554860534+554066701+557873777+561875298+562738483+561429283
3698+560566736+561400862+564523784+570938699+580834417+590776559+593723995
3688+587244548+577779359+571697732+570896528+574592933+580921239+588826970
3678+598280891+606000647+605652581+599407730+595045385+593658258+590479133
3668+583185512+574372016+567061917+563087931+562905889+565562986+569701685
3658+574062435+577527399+580488655+585119615+592399805+599309426+599539273
3648+591218180+580344354+572014153+566820801+563241410+560300035+558954582
3638+560765717+565659978+571879137+578063070+584480962+591004812+594417044
3628+591404475+585115079+581090665+581539126+586405142+593767264+599318073
3618+600621461+600951171+603618402+607005297+607894564+606501944+604980333
3608+603896657+602828857+602130386+602571723+604464364+607474347+610906531
3598+614284850+617369109+619804651+621766111+624639589+629593101+635252738
3588+637966393+635923285+631483403+627827326+626106202+626113076+627138777
3578+628006426+627771193+626555052+625272289+625074406+627109789+631604386
3568+636272485+637322495+634169204+630205034+627889837+626674051+625223385
3558+623457964+622166129+621725146+621499764+620386037+618347890+617005096
3548+617775222+619552407+619323198+615834953+611296200+608824299+609654598
3538+612484346+614699255+614641562+612964664+611526827+611200874+611329370
3528+611119580+610762371+610658398+610284958+608814590+606577780+604674579
3518+603266296+601661549+599812283+598567367+598550499+599187380+599382782
3508+599201626+599675920+600704668+600493178+597837569+593876978+590681410
3498+589225003+589009154+588881757+588157522+587135259+586551853+586675353
3488+587210777+587872074+588398886+588207099+586757638+584464838+582598527
3478+581779108+581175077+579673204+577428847+575599710+574858820+574835219
3468+574888658+574874696+574835290+574434174+573475131+572587601+572427282
3458+572609218+572130742+570538858+568215476+566108545+565622060+567670590
3448+571224891+573790276+573861292+571685046+568081416+564222353+561546297
3438+560485089+560093789+559473776+558470330+556931638+554797101+552874303
3428+552165519+552502352+552820863+552632336+552287459+551894317+550952639
3418+549219820+547288659+546087969+546040766+546638489+546689093+545405834
3408+543565498+542768688+543430765+544318154+544186078+543017105+541374616
3398+539675428+538338977+537549077+536806982+535598957+534187981+533187122
3388+532830586+532874387+532935729+532907025+533162032+534044034+535089544
3378+535353872+534696578+533998001+533952145+534449828+535074129+535558841
3368+535733796+535364396+534298297+532805178+531463801+530587824+529891408
3358+528897389+527620402+526584105+526255778+526667206+527528725+528457220
3348+529214730+529873866+530497529+530575598+529540648+528169894+528159511
3338+529726199+530984227+530380976+528668108+527782669+528609424+530214349
3328+530867850+529695014+527141536+524127017+521640410+520691892+521394793
3318+522375630+522227324+521340539+521201872+522130899+522834544+522270912
3308+521103179+520665314+521087905+521497881+521699165+522328923+523344347
3298+523711762+522865765+521443661+520380256+519978892+520008588+520193182
3288+520310160+520186874+519807587+519277798+518743969+518516354+518950392
3278+519911454+520794873+521258962+521377216+521112144+520486284+520104942
3268+520517434+521138687+520753447+519134808+517322822+516291133+515965393
3258+515575617+514516534+512876491+511448895+511069715+511728886+512588030
3248+513013244+513152832+513303937+513291782+512842648+512128443+511553046
3238+511147110+510508670+509455045+508343905+507469947+506619485+505579858
3228+504661108+504353298+504667912+504966862+504438809+502861561+500852862
3218+499322320+498742494+498877510+499112035+499090028+498895406+498518848
3208+497676536+496379882+495021389+493651804+491935287+490004869+488581561
3198+488116587+488380383+488825264+488871439+488075267+486585407+485198565
3188+484379712+483467908+481600569+479211344+477657626+477533241+478180682
3178+478644451+478510711+477969298+477395992+476889626+476178291+474967679
3168+473237376+471254051+469451279+468100263+466987600+465728721+464464492
3158+463764816+463705529+463556089+462656617+461216972+459942182+459148845
3148+458519654+457625356+456434056+455206398+454163015+453468123+453224845
3138+453213753+452987343+452368925+451480970+450391589+449206881+448219098
3128+447543449+446984636+446461828+446101111+445877607+445610799+445217125
3118+444710901+444111796+443351877+442262070+441006239+440264144+440335267
3108+440478683+439813168+438459353+437219929+436476488+435861188+434941694
3098+433947179+433470652+433494005+433310900+432523162+431452279+430513896
3088+429853414+429588165+429829990+430395075+430812492+430657241+429800080
3078+428462885+427131644+426301877+426091733+426085319+425767764+425125957
3068+424582596+424322981+424009856+423277011+422155133+420866664+419590138
3058+418583893+418149076+418273461+418588677+418727096+418481727+417755898
3048+416655602+415513773+414609162+413910230+413166754+412267742+411468310
3038+411060496+410899610+410626707+410195717+409760687+409284160+408688351
3028+408104414+407631502+407106603+406304725+405157900+403739836+402291155
3018+401211554+400734000+400622656+400397026+399795617+398860708+397764735
3008+396797613+396282849+396223810+396240714+396005693+395464493+394624768
2998+393503458+392266728+391119583+390128753+389361392+389009817+389108900
2988+389294734+389112975+388443031+387441889+386315015+385316141+384658671
2978+384275202+383924443+383546857+383216191+382838038+382269622+381592343
2968+380996604+380551475+380193486+379817425+379365137+378850125+378236562
2958+377407114+376400443+375513374+374989609+374746544+374535195+374217145
2948+373748131+373053735+372136331+371207162+370539061+370199570+370025396
2938+369811779+369437170+368844125+368009822+367013393+366158288+365841832
2928+366062537+366205420+365679671+364657408+363748722+363127611+362476342
2918+361634633+360803732+360169721+359709070+359327586+358959002+358587015
2908+358270737+358065129+357863525+357442139+356762875+356093143+355637879
2898+355218513+354587372+353844569+353209956+352643666+352018160+351406404
2888+350966024+350731216+350568806+350231513+349584780+348803173+348140316
2878+347609499+347134638+346792596+346650704+346577703+346380565+345977004
2868+345422302+344914484+344684283+344712987+344628894+344046409+342980842
2858+341806765+340863634+340232069+339818408+339522045+339341597+339334085
2848+339400920+339237624+338685899+337938063+337191504+336404120+335616842
2838+335152471+335219306+335598805+335914906+335961932+335656957+334945729
2828+333869495+332542009+331096978+329854791+329300089+329515407+329873147
2818+329685187+328927890+328024378+327271900+326778966+326593167+326608618
2808+326567475+326301198+325843772+325305549+324732845+324088310+323347987
2798+322583141+321888922+321277202+320708042+320120631+319420246+318626342
2788+317997186+317755184+317752136+317646746+317300912+316778777+316132505
2778+315432404+314817813+314295926+313673114+312871413+312095015+311525855
2768+311097239+310673621+310192664+309585196+308839664+308155864+307758079
2758+307579864+307344205+306881074+306232144+305555042+305025040+304707910
2748+304448579+303964611+303122051+302088873+301183447+300603089+300317676
2738+300129504+299775945+299115108+298282967+297539242+296966591+296479238
2728+296040363+295684129+295427775+295291925+295253245+295099624+294551620
2718+293655196+292871054+292581389+292595528+292360773+291659378+290836734
2708+290284177+289976757+289626689+289081591+288476107+288073946+287969086
2698+287936714+287664679+287110420+286492870+285971515+285501757+284998050
2688+284493563+284099499+283864903+283704708+283487991+283207025+282975566
2678+282812022+282568124+282167345+281737578+281388360+281064674+280741290
2668+280519629+280410783+280253459+279943612+279536808+279087905+278588096
2658+278078098+277670249+277434325+277306874+277102347+276656013+276012576
2648+275390525+274908134+274483842+274059939+273735847+273588037+273518261
2638+273366642+273060463+272608033+272067205+271582528+271348730+271424300
2628+271590696+271517358+271123667+270669430+270413147+270313957+270180854
2618+269972288+269780731+269612243+269364075+269003996+268641223+268387810
2608+268219146+268025126+267766362+267498012+267256187+267030699+266851599
2598+266779377+266803918+266845999+266832710+266720870+266510567+266260538
2588+266023940+265795457+265574771+265408924+265303338+265155688+264855764
2578+264434821+264049722+263792712+263607304+263454374+263424961+263577785
2568+263807437+263978954+264089058+264232437+264455215+264654940+264667272
2558+264488437+264308575+264270125+264307884+264248650+263965824+263462099
2548+262895154+262480713+262302339+262235008+262096572+261867611+261689733
2538+261610229+261466211+261137263+260755709+260502828+260328688+260042372
2528+259613402+259254474+259173570+259297761+259337557+259143750+258871839
2518+258731453+258710864+258653296+258532065+258505327+258652906+258806705
2508+258779560+258634567+258532330+258439803+258214297+257870679+257572721
2498+257447751+257516287+257695423+257828969+257819100+257709137+257564765
2488+257377975+257145523+256893457+256589120+256194861+255817453+255625719
2478+255613369+255599602+255474844+255311247+255196182+255076421+254840922
2468+254483093+254106659+253829379+253722234+253761694+253804325+253684812
2458+253371758+252989229+252683546+252498527+252378005+252262815+252157566
2448+252125052+252239781+252487630+252684999+252621725+252317318+251982364
2438+251738962+251554670+251401917+251304446+251274643+251304570+251340468
2428+251255596+250972451+250607038+250378998+250379795+250506360+250624615
2418+250724920+250865713+251029842+251147476+251211299+251235060+251169199
2408+251001669+250852584+250833040+250912579+251009784+251097881+251181549
2398+251285770+251485319+251912127+252782877+254416860+257183494+261513183
2388+268005529+277365115+290144093+306620184+326842434+350604456+377417072
2378+406664096+437696173+469554331+500746514+529707098+555411515+577268032
2368+594913487+608452136+618184736+623866770+624844134+620931206+612342950
2358+598817626+580042285+556213428+528010355+498913160+475875833+464761564
2348+467457252+482239541+503597241+523426030+536457463+542769220+544672634
2338+544400935+543275798+541678279+539807078+537905684+535894186+533309984
2328+529564710+524188289+516983261+508101265+498076625+487545690+476744475
2318+465627583+454458208+443710007+433388969+422940001+411866910+400177916
2308+388295399+376751061+365918661+355891079+346561331+337811268+329608961
2298+321948422+314772630+308024533+301743748+296003579+290741975+285793885
2288+281131828+276946422+273450132+270692765+268552009+266802110+265228034
2278+263753678+262419956+261237604+260158695+259170416+258305584+257587197
2268+257021581+256576806+256137931+255591415+254972714+254409791+253926602
2258+253440436+252931218+252461194+252044503+251637983+251226129+250801182
2248+250335729+249873359+249537873+249380726+249321227+249247836+249081883
2238+248802476+248509480+248370760+248427354+248541108+248570450+248514034
2228+248466193+248479146+248497538+248462720+248448971+248589817+248880598
2218+249170547+249331876+249361714+249364744+249471340+249720642+250038764
2208+250358037+250669957+250948991+251156920+251336729+251586953+251952773
2198+252407116+252897021+253373991+253815239+254227536+254628918+255037547
2188+255453227+255835898+256137169+256349156+256511087+256697860+256976185
2178+257302582+257505656+257447804+257175184+256861900+256637209+256497603
2168+256366254+256192558+255993630+255838786+255787880+255801612+255767628
2158+255657028+255561063+255546587+255581209+255607823+255652563+255887513
2148+256500704+257461837+258657052+260284267+262732531+266042456+269873134
2138+273978203+278405699+283297302+288688820+294453352+300415554+306552498
2128+312998563+319879869+327231253+334964794+342858335+350668456+358215029
2118+365324517+371823064+377556624+382323487+385911277+388247559+389418871
2108+389577241+388841206+387230540+384763069+381577140+377850826+373742532
2098+369468568+365227879+361062673+356904908+352612588+347969614+342853338
2088+337333111+331542037+325593939+319550301+313376042+307108901+301035603
2078+295482065+290546910+286156569+282221192+278729402+275796691+273545388
2068+271932348+270755702+269729453+268597972+267378216+266357140+265696747
2058+265254381+264832180+264355813+263851113+263429373+263221302+263273572
2048+263551082+263969120+264461399+265118940+266126797+267522765+269224133
2038+271247007+273690540+276582799+279824932+283190919+286441061+289497413
2028+292384853+295068492+297516526+299778035+301897759+303874564+305606886
2018+306746447+306864914+305928445+304351552+302526773+300534057+298281018
2008+295737994+293020990+290319898+287766703+285370656+283059358+280754987
1998+278492592+276581275+275481157+275212878+275010672+274004320+272183918
1988+270223610+268632683+267525937+266861043+266514713+266312170+266145366
1978+265979218+265797938+265629912+265543090+265649544+266161597+267171864
1968+268226038+268517919+267840568+266921322+266514731+266647337+266960267
1958+267299864+267659873+267921082+267981343+267952710+268061751+268455673
1948+269212651+270510334+272463413+274474238+275223916+274140240+272322727
1938+271171631+270972951+271238732+271595409+271979710+272409159+272848423
1928+273363010+274367093+276197719+278323963+279880091+281040577+282441311
1918+283464496+282961107+281487301+280828714+281781237+283618755+285129965
1908+285717712+285712556+285797606+286250904+286885942+287556648+288429932
1898+289714219+291172096+292173416+292645867+293433286+294872028+295768399
1888+294971412+293151559+291670098+290911490+290542037+290300389+290065244
1878+289767269+289454162+289355752+290128110+292752995+297321514+301631979
1868+302298202+298750244+293991036+290737226+289401112+289112758+289070304
1858+288928838+288690556+288533498+288600138+289018849+290040545+291977996
1848+295174291+299646669+303820239+304548442+301067355+296679991+294323580
1838+294049702+294405476+294749751+296177187+299896361+304768792+307608214
1828+307296152+305896197+304557868+302463588+299695041+297770577+297462201
1818+298138878+298985442+300036551+301863775+304372531+306288560+306447214
1808+305334160+304545784+305341460+308048382+311851879+314902756+315735748
1798+315058043+315290938+318330475+323602782+327324524+325850470+320989663
1788+317396593+317001147+318646116+320709601+322732793+324490666+325428942
1778+326038324+328272794+333730367+341493924+347355413+347521508+343375969
1768+338448327+334846610+334038496+336577232+340482753+342672111+343022516
1758+343444434+344171078+345007436+347711736+353865477+361534132+366092233
1748+365769398+363316705+361782477+362277928+364453714+366953043+368340559
1738+369562406+373707094+381402894+387143045+385263764+379018913+373236096
1728+369127199+367138062+367546974+369615385+373110966+379679112+390617931
1718+402788058+408231138+403815389+395456626+388934229+386396982+388259501
1708+393903298+400992020+406560831+410981400+417700722+427293628+434499471
1698+435539062+432256247+425836052+418336115+414093158+414806443+418934865
1688+425490856+435871926+449129769+456259385+451272917+442363457+437459912
1678+438315548+443420483+449233848+453230054+457046415+462296573+465730281
1668+463772399+460160796+460671059+465728615+470787624+472273585+472525474
1658+476276985+486551671+504031137+522977499+528863581+523241011+521505606
1648+526456070+530396320+526741837+519960925+516625910+518457741+525480124
1638+537517680+551320904+558347788+555074434+549966168+550314943+556724010
1628+566182680+576013123+585947079+595547604+602780308+608108960+615524379
1618+627051034+638406101+643264782+643502567+644920276+649029597+653743481
1608+656902584+658390318+659455991+660962932+662773571+664539275+666547725
1598+669475706+673546684+678170557+682466138+686103008+689392592+692633626
1588+695790816+698747500+701458533+703912290+706372071+709881296+716091843
1578+725442074+734342817+737325158+736653549+739695496+748774489+759870933
1568+767931101+773601795+780462973+790392251+805160649+827981914+857294036
1558+876000310+875011252+869016447+866386708+866345034+866550571+865852525
1548+865163338+866634982+871245814+878259941+886013645+889065019+879328307
1538+862181493+850329735+846032808+844131662+839802982+834575823+832771279
1528+834985480+838639856+842330237+846803855+850818275+851133526+848536602
1518+846179519+843401864+838592228+833844324+832881490+837760370+848389679
1508+860675615+863253758+850642222+835999202+829001448+829338103+833587616
1498+837281540+836310484+831328552+827952784+830135091+836551459+841497103
1488+840143323+833944258+827512652+823470023+821668669+820978702+821431805
1478+824270058+830168898+838179099+845139005+845955412+839283045+831024073
1468+826901215+827478206+829327827+829321448+829251920+833466420+843521075
1458+854690025+856229142+846174274+835265364+829676601+828725107+829504021
1448+829202307+826780940+823495396+821016337+819892475+820496258+823816743
1438+829476026+833406530+831751036+827260337+824574394+824249788+824094359
1428+822972765+821864212+821555694+821868961+823290285+826739549+830384783
1418+829494170+823225221+816046099+811205420+808838059+807847442+807575708
1408+808167371+809427312+810015644+809210790+808634082+810089212+813077082
1398+815798391+817203485+816701762+813985484+810802993+810076455+812381800
1388+814714503+813540674+809834347+808189059+811029509+816774054+822568141
1378+827315620+831723821+835990981+838750137+839156958+838637446+838940365
1368+840255943+842235193+845068839+848532066+851285482+852182970+851437934
1358+849845022+847901777+845974194+844650962+844519560+845486576+846639638
1348+847055744+846663027+846392994+847568240+850627268+854175544+856010635
1338+855661151+854951340+855566817+857352437+859225162+860808506+862632469
1328+865048308+867709445+870223658+872801446+875949492+879596994+882900611
1318+885285477+887306402+889790493+892657876+895246437+897197337+898738580
1308+900742495+904215219+908868859+912979457+915592966+917680016+920245189
1298+922633457+923438950+922277240+920096493+917946577+915881993+913494363
1288+911121474+909513466+908554530+907415855+905763479+903841496+901846937
1278+900125246+899475891+900399177+902164882+903321913+903285129+902847406
1268+903091286+904446696+906764161+909602272+912259865+914021459+914811784
1258+915371765+916388961+917705815+918727050+919383138+920140790+920978885
1248+921056847+919676560+917131658+914543664+913014044+912693831+912638337
1238+912002519+911151454+910822099+910666812+909754511+908077330+906412338
1228+905192866+904426780+904102670+904100615+904352362+905190882+906729716
1218+908156001+908524833+907911057+907147310+907026965+908037852+910089395
1208+912335772+913901609+914874153+916138064+918364455+921576714+925472561
1198+929443606+932407307+933787736+934685011+936842865+940441251+943763011
1188+944980995+944044101+942987216+944126954+947746034+951941115+954730322
1178+955745249+955916625+956215433+956884137+957792965+959065805+960883957
1168+963161590+965696286+968190371+970327955+972392113+974965932+977667397
1158+979531263+980519541+981255505+982027544+982957139+983895096+984287034
1148+984352380+985335768+987668967+990253205+992116645+993499696+994957450
1138+996658516+998573554+1000418567+1001467018+1001095492+999877650+999634053
1128+1001806366+1005977066+1010151663+1012193425+1011473337+1009804022
1120+1010132669+1013731621+1019237248+1024412668+1027642221+1027996241
1111+1025546027+1022153250+1020667289+1022312151+1025423556+1027574536
1103+1028655873+1030469417+1033353455+1035058278+1033841358+1031726737
1094+1032731174+1037740606+1042899868+1044265980+1042552439+1041692515
1085+1043933506+1047429335+1048756608+1047111816+1044467193+1042331239
1077+1040777734+1040219382+1041768564+1045575108+1049956448+1052802922
1068+1053679998+1054117154+1055346052+1056706494+1057350817+1057821709
1060+1058491973+1058733372+1058752650+1059383011+1061170261+1064308456
1051+1068142429+1071591198+1073741823+1073730058+1071388779+1068145902
1043+1065902572+1065240602+1065662448+1066293163+1065708730+1063324005
1034+1061116113+1061623151+1064727397+1067938451+1068751740+1066031635
1025+1061088684+1057429913+1057427645+1059551905+1060263985+1058568659
1017+1056623925+1056241272+1057285541+1058842378+1059892530+1059357850
1008+1057016501+1054246784+1053318253+1055595177+1060150868+1064235597
1000+1065244358+1062782734+1059004610+1056426468+1055542942+1054880121
991+1052988189+1050126618+1047807665+1047007488+1047100618+1046528091
983+1044020895+1039181775+1033093699+1028223749+1026691081+1028693082
974+1032285797+1034377313+1032812610+1028212125+1023363863+1020398106
965+1018832765+1016928430+1014330088+1012035303+1010613838+1009954206
957+1009459145+1007954828+1005094249+1002155779+999908339+997113532+992831985
947+988733719+987086660+987377813+986399670+982097427+976883167+975042335
937+977069213+979014443+978230214+976730148+976989125+978245310+978855755
927+979143719+979795130+979831772+978095197+975401883+973765455+974147470
917+975656253+976444239+975118171+971853536+968507961+967133202+967917574
907+968648151+967232285+964656127+963548354+964424225+965312995+964604247
897+962735562+961178725+960920103+961972027+963399375+963776996+962436753
887+960077047+957739667+955636740+953607452+952226457+952395989+954038655
877+955796775+956027189+954332927+952231631+951589930+952253673+952493796
867+951825376+951337332+951398993+951247463+950601864+949998790+949750728
857+949608979+949451424+949970015+952050687+955249197+957520522+957105195
847+954430309+951549035+950204611+950517169+951029806+950254436+948214304
837+946080264+944829394+944864193+946157163+948135208+950027282+951377022
827+951728915+950477904+947874460+945362443+944255237+944708198+946034620
817+947398393+948571301+950448349+953992444+958282072+961021029+961607589
807+961786619+962803814+963801519+963251672+960921166+958220765+956789165
797+957039565+958187737+959369858+960387054+961696466+963733054+965736897
787+965886231+963563379+960501871+959069491+960226310+962595017+963291787
777+960910606+957414068+955808186+956997962+960101216+964283680+968561542
767+970872983+969577887+966033934+963581382+963527800+963787415+962300532
757+960858088+962327181+965958877+968957449+970350635+970826985+970478919
747+969196297+967773414+966937800+966777836+967637122+969756704+971461527
737+970756819+968454450+966525025+965064650+963274635+961932337+962172816
727+962803105+962020506+960774172+961254420+963356850+964892211+964308274
717+962022277+959636419+958386399+958105735+958002187+958152513+959075799
707+960401370+961026628+959945787+956682427+952062311+948626370+948135066
697+949258432+949520952+948109551+946520821+947318588+950906484+953916041
687+952860077+948951190+946278004+945733898+944197332+940376613+937895427
677+940039887+944389687+945285970+940428635+931701961+921752200+914777480
667+914687115+917452721+917019180+913312569+909507087+906840281+903853332
657+900312994+898382009+899466677+902411455+905402443+908036010+910181319
647+910521448+908683876+907268435+908515265+909986059+906881530+898258971
637+887570765+878544361+873796316+874729879+879930106+886032285+891537132
627+896487525+898692370+895564806+888574281+881863641+877218435+873659669
617+871539591+872707608+876741731+880956940+884030001+885198514+882439641
607+877112123+875192479+878909792+883059299+882870914+879430934
##END=
