##TITLE=<SNM>
##JCAMP-DX=4.24
##DATA TYPE=INFRARED SPECTRUM
##DATE=3/5/2025
##SAMPLING PROCEDURE=Instrument type and / or accessory
##ORIGIN=Admin
##XUNITS=1/CM
##YUNITS=ABSORBANCE
##RESOLUTION=4
##FIRSTX=4497.3318
##LASTX=599.83466
##DELTAX=-1.4281778
##MAXY=1.7475553
##MINY=0.2261567
##XFACTOR=1
##YFACTOR=1.6275377e-09
##NPOINTS=2730
##FIRSTY=0.24263979
##XYDATA=(X++(Y..Y))
4497+149083982+149747977+150595011+151285494+151465704+151116078+150659568
4487+150504197+150632513+150840053+151271083+152360303+154026100+155325780
4477+155392800+154379269+153002141+151666442+150516300+149766325+149515771
4467+149576812+149758680+150135755+150849456+151736565+152427844+152801742
4457+152997060+152982978+152467744+151284011+149688657+148273826+147576120
4447+147643020+147979280+147960391+147344949+146497301+146069311+146326246
4437+146867720+147069089+146621534+145684426+144782622+144470011+144820654
4427+145363850+145652857+145644397+145406085+144756482+143523317+142039480
4417+141141375+141641209+143700397+146442001+148225255+147871627+145844851
4407+143782084+142856081+142939444+143220549+143227654+142993444+142447044
4397+141348979+140020458+139353955+139751667+140744047+141793211+142766310
4387+143601433+144080869+143913467+142950558+141551438+140463399+139975065
4377+139643584+139169789+138956352+139433142+140375377+141228766+141704685
4367+141788231+141507436+141060329+140917217+141308218+141747891+141613358
4357+141114686+141052776+141628126+142138919+142021141+141623548+141554441
4347+141698304+141409333+140525227+139687742+139562502+140098446+140775497
4337+141280211+141600165+141734286+141736282+141798943+141974676+142109988
4327+142168016+142209317+142090752+141671231+141256581+141337819+141885198
4317+142344665+142396678+142292368+142303913+142260928+141916492+141447787
4307+141272484+141565126+142071250+142371564+142425134+142685585+143392428
4297+144034697+144006891+143530203+143344141+143721656+144354531+144999675
4287+145634326+146059249+145951404+145367247+144719961+144278924+144070010
4277+144043047+144012568+143763498+143466919+143602880+144352233+145434834
4267+146474137+147237388+147583591+147362766+146560429+145644095+145408584
4257+146122414+147101848+147404790+146736345+145660978+145198105+145956687
4247+147393492+148326645+148316546+147946795+147784035+147834318+147955164
4237+148057579+147995650+147804233+147784447+147981358+148052543+147921828
4227+147988866+148474673+149028260+149169560+148912295+148819374+149391437
4217+150465898+151499571+152289621+152923934+153245672+152952371+152058963
4207+150958481+150267560+150505396+151510851+152461134+152790948+152627034
4197+152244905+151809462+151626853+151908792+152405852+152829575+153266263
4187+153702942+153701513+153000933+151917224+150892707+150208378+150199808
4177+151119841+152666541+154128075+155090865+155708340+156226659+156476956
4167+156052372+154974661+153903670+153526018+153913632+154574706+154951974
4157+154858714+154609937+154664871+155044427+155285331+155100680+154772340
4147+154657583+154705943+154757801+154904016+155227925+155582010+155923296
4137+156487577+157340334+158096371+158314513+157925838+157165223+156362438
4127+155904710+156066399+156659319+157108769+157076267+156768051+156545367
4117+156605136+157093406+158001317+158828347+158868723+158010692+156897311
4107+156260828+156392267+157249657+158635419+160017976+160645303+160324398
4097+159767002+159746164+160247673+160802652+161192500+161396396+161282866
4087+160868701+160576105+160735981+161049488+161013159+160729407+160780202
4077+161378487+162113045+162456620+162187096+161478412+160852111+160802414
4067+161279606+161721641+161645521+161090268+160510990+160349631+160685734
4057+161243863+161679397+161805269+161668904+161577348+161924146+162795818
4047+163834819+164579668+164809786+164560002+164054537+163655662+163584284
4037+163665806+163630612+163615267+163995098+164705741+165150083+164954738
4027+164470990+164317084+164698600+165377070+166074382+166679516+167171375
4017+167492849+167516452+167207064+166760616+166391113+166125672+166026114
4007+166273829+166783725+167194979+167411363+167632472+167832358+167785170
3997+167566423+167491622+167616248+167723113+167749024+167894635+168334729
3987+169010562+169673651+170007081+169789176+169136507+168582828+168750175
3977+169820434+171257028+172072979+171628674+170271771+168974306+168367213
3967+168402554+168793610+169339140+169851545+170163221+170257103+170235166
3957+170222971+170329689+170580298+170998216+171785126+173025844+174199177
3947+174656447+174591387+174656410+174785670+174333124+173243547+172187572
3937+171789374+172420436+174206355+176571497+178147880+177965115+176615517
3927+175486058+175191997+175274947+175289212+175626671+176818993+178461644
3917+179280928+178357947+176156636+174085665+173223240+173712939+175338067
3907+178229841+182402747+186780447+189612344+190105394+188554134+185369470
3897+181533528+178973225+179151943+181537832+183620046+183533360+182675897
3887+183252648+184931281+186036715+186749006+187934809+188176976+186082292
3878+183712756+183718121+186137299+189789853+193872668+196698284+196152003
3868+193469215+191891001+192043699+191918889+190244944+188037316+187102982
3858+188994447+194699240+203019856+207770501+203634163+195434933+189084905
3848+186218308+186477834+188895420+192431148+196403435+200300976+203018848
3838+203263542+201513697+199662791+198325462+196697881+194683730+193514334
3828+193925276+195445645+198104280+202699316+207962312+210163019+208874453
3818+207192872+205359471+201685237+197393033+195253449+196370255+200055037
3808+204113443+206421581+207961690+210869835+213864281+213683658+211036357
3798+208767588+206955063+204775762+203045308+202699646+203283666+204192694
3788+205747140+208192009+210882378+213461652+216603779+220435582+223561576
3778+225024063+225909689+227934094+232111779+238501835+245780941+251921927
3768+256441448+260445780+264787718+270115499+277216527+285824301+294158504
3758+301123974+308253513+317975017+331292052+346619778+359765530+368446073
3748+375564406+384242312+393927412+401273171+405947202+411418324+420301866
3738+433252676+448992186+464535986+476793896+484126325+486971314+487815172
3728+489631066+493703755+498935292+503624631+507341751+510637161+514079758
3718+517842436+522238685+528446727+537501150+548163524+557445849+564020629
3708+568260097+571559646+576483480+583906000+590970314+594962470+597241567
3698+600265055+604746707+610442546+617002677+623876444+629920710+632995176
3688+631823473+628742488+627129629+628380510+631902578+636201777+640612748
3678+645027675+647486882+646130967+644171219+645154535+647131423+645927052
3668+642039418+639404349+639702530+642117204+645423492+649736827+656294981
3658+664278705+669405209+669704928+669449669+673349901+680829772+685241256
3648+682339062+677076177+674635940+675371541+677285731+678979379+680902212
3638+683799864+687099706+690338755+694918043+702329430+710770205+714807479
3628+711961611+707669809+707091539+709669183+711956703+711635303+709315629
3618+707697130+708938343+712866262+717885168+722599008+725900095+726365715
3608+723422357+719313376+717409807+718706759+721776758+724972152+727648751
3598+729260804+728830781+726421235+724158178+724827566+729626444+736932577
3588+742873714+744617901+742654271+738739463+734788618+733164552+734617077
3578+736971397+737614343+736032394+733658225+733218607+737426177+745355260
3568+750534574+747190931+737950832+729436812+725546980+726913442+731602086
3558+735980756+737292138+735847523+734110148+734150579+736194339+738757408
3548+739827227+738428757+735622514+733783840+734638905+738129257+742299032
3538+744112216+742123024+738298746+735852504+736163283+738587845+742040477
3528+745360241+747073373+746643423+745256013+743925075+742141848+740137860
3518+740079557+743045034+746941824+748915049+748626024+747879363+747583745
3508+746572229+743953494+741177429+740144012+740227219+739608810+738920232
3498+740675406+745036204+748823639+749844677+749763448+751114749+753483864
3488+754178521+751959192+748304404+744919525+741945111+738907341+735836317
3478+733185134+731732756+732401997+735465257+739803862+742799590+742146829
3468+739099609+737769623+740150971+744173230+746854369+747132262+745562764
3458+743560168+742721583+743311134+743974662+743520176+741968696+740216452
3448+739813164+741429392+742689868+740467683+735823133+733054465+734301757
3438+737512972+739520476+739711207+739835577+741216688+743096086+743786495
3428+743092351+742632957+743750678+745918076+747632160+748313047+748255623
3418+747143248+744159899+740229050+738537892+741074373+745684351+747991721
3408+745983338+741772033+739191459+740538657+744992404+749288160+750109532
3398+746862133+742696314+741730137+744683016+748602439+751266220+753099986
3388+754381337+754501313+753694957+752571888+751382680+751049048+752038224
3378+752630777+751370228+749497202+748661035+748870809+749677532+750785731
3368+751343420+750493630+748536006+746668913+745833844+746124188+747197303
3358+748914390+751188580+753586041+755695575+757496455+759052915+760471015
3348+761579288+761141941+757957387+752799608+748233356+746702239+748592624
3338+752041740+754712479+755522204+754670802+752835571+750599322+748382996
3328+746941678+746884839+747747594+748413613+748030687+746449397+744628302
3318+744090902+745186430+746442658+746721576+747012140+748428262+750202333
3308+751060620+750893841+750198598+749226488+747976119+746468294+745237116
3298+745393348+747469849+750494289+752796751+753478444+752891164+751814606
3288+750477809+748900107+747975680+749009682+752027017+755612808+758391438
3278+759578669+758556020+755586074+752491612+750970529+750922114+751495843
3268+752589394+754346619+756293622+757727104+758473765+758884158+759145936
3258+758610807+756221256+752069793+747907562+745477360+745142849+746280933
3248+747809853+748613133+748640746+749055094+750465503+751807575+751799664
3238+750925337+750848283+751951282+752549402+750927021+747526028+744231753
3228+742224468+741895524+743633486+746616249+748473015+748557247+749096917
3218+751544185+754834066+757507368+759033212+759053867+757528463+755256471
3208+752735811+749652555+746357694+744204432+743822971+744437718+745145633
3198+745396351+744631012+743059463+741815394+741225331+740166865+738204773
3188+736990075+738141050+740808566+742615305+742496940+741489673+740951394
3178+740745062+739596212+737254490+735321330+735064972+735727474+736116187
3168+736248174+736105932+734743572+731932935+728957129+727043013+726100641
3158+725295090+724352864+723835021+723886146+723270886+720945352+718277689
3148+717843052+720130133+722904441+724063765+723832750+723765511+724632368
3138+725556722+724719896+721373104+717344546+715326348+715697188+716551813
3128+716649961+716489481+716588216+716550934+715840968+714466376+713022933
3118+711936634+710701501+709039201+708183331+709277541+711296325+712206396
3108+711579271+710604597+709972345+709161228+707770595+706149606+704597321
3098+702907628+701054671+699688795+699155790+698785462+697905568+696882040
3088+696672632+697477596+698174304+697717767+696676514+696053197+695428855
3078+694090666+692852676+692902336+693938609+694662198+694290698+692937494
3068+691236814+689859804+688926734+688080752+687217924+686743735+687073045
3058+687948838+688295141+687531560+686769297+687072020+687292707+685948145
3048+684283356+684451673+685775946+685816744+684111303+682238570+680967034
3038+679568417+677556079+675621088+674856921+675358943+675765015+674959318
3028+673718764+673367627+673638194+673312180+672172705+670892818+669660322
3018+668202596+666707589+665533322+664435084+663070673+661818766+661299824
3008+661556548+662150713+662446038+661744642+659975258+658223160+657586366
2998+657637272+657056731+655602740+654248144+653542866+653073291+652465942
2988+651897853+651523204+651094646+650355676+649448021+648696013+648110345
2978+647236530+645587561+643380683+641673119+641301619+641804447+641882087
2968+640998530+640056378+640112923+640950408+641380211+640566604+638655271
2958+636414994+634665459+633892649+634037235+634469675+634437813+633800434
2948+633105264+632782912+632516885+631730818+630284885+628202597+625491134
2938+622874157+621601156+621823162+622309510+622220078+621787711+621026401
2928+619413542+617171287+615382274+614745407+615125989+615795230+615515214
2918+613532503+610956727+609730309+610108438+610589732+610146269+608982769
2908+607334093+605198264+603102646+601829755+601439688+601195635+600319879
2898+598583052+596296191+593915174+591891336+590904174+591527710+593259629
2888+594560830+594341204+592875715+590991006+589020711+586966696+585299599
2878+584813068+585445394+586020332+585703546+584923485+584215973+583177943
2868+581311839+579096465+577450756+576593567+576025514+575430947+574939545
2858+574406466+573316908+571762095+570516891+569846478+569316732+568792113
2848+568548390+568502319+568222705+567552255+566573334+565224414+563518350
2838+561902635+560831168+560136327+559381389+558554525+557841849+557130821
2828+556243236+555244282+554222292+553195138+552315280+551777221+551498963
2818+551051984+550003443+548429807+546851483+545449753+543883478+542138265
2808+540766896+540068320+539864186+540059421+540550932+540709655+539781858
2798+537841630+535835664+534593865+534008124+533310500+532094374+530777608
2788+529948839+529534857+528884147+527652713+526271638+525267850+524469880
2778+523360215+521885643+520412170+519208935+518319226+517617390+516851282
2768+515880418+514844767+513946452+513257801+512784783+512417642+511836624
2758+510731355+509097548+507228184+505503480+504206344+503384717+502825233
2748+502225795+501458442+500622201+499771422+498742474+497451198+496127181
2738+494937460+493673138+492170916+490716523+489644983+488797683+487709552
2728+486222016+484674638+483491362+482758508+482287285+481895716+481418670
2718+480632456+479435813+477988122+476544496+475293652+474339340+473632707
2708+472969802+472187690+471286188+470322208+469292857+468137195+466811896
2698+465405479+464183127+463394276+462971798+462574480+462021149+461433173
2688+460805462+459825625+458413421+457063183+456285319+456014129+455824167
2678+455438129+454796611+453862002+452601819+451134278+449741668+448685436
2668+448054941+447752731+447499413+446950514+445999718+444886464+443878721
2658+443020690+442278643+441689093+441238635+440758403+440076637+439212673
2648+438298390+437379566+436470776+435716900+435195212+434645067+433772387
2638+432730108+431930015+431508672+431279085+431044920+430700961+430166783
2628+429436639+428657054+428015865+427520801+426971206+426225241+425404162
2618+424705989+424137606+423586363+423020654+422473915+421968707+421564943
2608+421334843+421171177+420754155+419868291+418707062+417702358+417045605
2598+416548270+416026801+415587257+415347452+415085015+414452616+413514125
2588+412804526+412711248+412936587+412841332+412263281+411606858+411124465
2578+410630829+410036115+409621437+409577966+409701238+409749653+409748261
2568+409705596+409353763+408501738+407460704+406783369+406643361+406712725
2558+406602930+406234983+405825689+405670299+405895821+406292297+406410991
2548+405978771+405220464+404620183+404357489+404196679+403957314+403770282
2538+403753216+403753729+403613098+403480854+403600024+403809432+403566514
2528+402670726+401698616+401396736+401839723+402435169+402577448+402136585
2518+401470677+401055523+401042193+401230616+401439584+401667450+401895902
2508+401987202+401832362+401479906+401082221+400732585+400380862+399932748
2498+399389781+398857911+398467808+398288174+398291360+398425215+398645647
2488+398804882+398682416+398244959+397658485+397033008+396481801+396326155
2478+396774306+397447722+397664491+397223921+396578045+396176735+395929569
2468+395476145+394796686+394261117+394121219+394258444+394443607+394571530
2458+394592368+394458952+394246981+394121695+394042700+393728112+393121385
2448+392612258+392482541+392456466+392163595+391719070+391483001+391546211
2438+391726248+391819635+391710171+391406203+391030895+390696128+390404612
2428+390093320+389731635+389387053+389182516+389132892+389088872+388941576
2418+388802630+388850789+389064701+389261255+389360978+389427118+389455501
2408+389357279+389165450+389010939+388891879+388726528+388599118+388661963
2398+388827790+388840644+388640209+388422524+388350304+388382496+388353893
2388+388069848+387385812+386342910+385146047+383864806+382258320+380069717
2378+377401798+374601085+371835128+369028482+366217332+363649466+361416733
2368+359326132+357292553+355520569+354219332+353557196+353934994+355880386
2358+359564765+364607293+370449292+376868280+383775520+390407615+395380194
2348+397665883+397276328+395246668+392815807+390409922+387798036+384753673
2338+381160448+377095743+372915970+369054264+365929149+363915053+363001246
2328+362653478+362285384+361679903+360970267+360506552+360634511+361380001
2318+362474723+363678544+364874675+365965955+366898878+367706553+368442484
2308+369175705+369976824+370735388+371159331+371162297+371057886+371191669
2298+371593785+372115254+372642765+373048287+373191811+373125744+373096336
2288+373239640+373440222+373558880+373636226+373766676+373886469+373824174
2278+373527787+373107250+372658184+372213915+371880137+371800043+371944629
2268+372132430+372264344+372372308+372478440+372538684+372476536+372238196
2258+371893394+371625939+371520686+371473882+371400491+371366468+371420816
2248+371441947+371283848+371037597+371015111+371374012+371859884+372119941
2238+372188645+372376776+372753842+373076670+373209463+373307612+373541264
2228+373856914+374085586+374182709+374289464+374556992+374953761+375300503
2218+375480577+375539283+375582534+375691779+375960113+376464186+377111124
2208+377629371+377823837+377773883+377723234+377859214+378220459+378716915
2198+379213884+379650059+380067446+380537241+381135837+381938311+382872993
2188+383645986+384018767+384114828+384250552+384548477+384920013+385306015
2178+385698865+386051871+386399346+386939712+387798548+388843427+389880030
2168+390859904+391803229+392754683+393886175+395398871+397273545+399327303
2158+401505944+403915015+406591028+409438068+412374797+415366313+418311282
2148+421051824+423517220+425741053+427741489+429531967+431242242+433043964
2138+434946654+436865019+438910866+441410614+444532104+447997590+451284577
2128+454124440+456717429+459384689+462089780+464398578+465852055+466289109
2118+465837552+464665080+462799635+460255830+457261384+454184464+451242132
2108+448387767+445466383+442403526+439242667+436041486+432787569+429465204
2098+426148956+422964072+420008666+417334704+414913182+412636648+410468151
2088+408537189+406960513+405625546+404276333+402783853+401269216+399973985
2078+399027364+398340837+397744035+397178106+396688975+396291986+395953667
2068+395653508+395361150+395015762+394605369+394196771+393854240+393598614
2058+393403636+393168006+392799400+392390435+392163448+392186960+392300160
2048+392351322+392372234+392468148+392627493+392735823+392785776+392940433
2038+393308344+393795644+394271664+394731022+395220702+395744185+396278070
2028+396775697+397145549+397296068+397197956+396904646+396538639+396209549
2018+395861121+395230883+394093605+392587355+391170207+390186121+389557971
2008+388967541+388245234+387489490+386877124+386471419+386195101+385895932
1998+385479826+385104041+385110707+385534137+385850849+385553620+384750926
1988+383843199+383016590+382359874+382001266+381892423+381812110+381654157
1978+381457969+381232521+380934303+380555882+380218514+380185261+380583239
1968+381059516+381033221+380413383+379701843+379297823+379118225+378973420
1958+378907719+378962982+378915043+378511609+377826473+377203267+376936435
1948+377137602+377847348+378997993+380077005+380196431+379061680+377512947
1938+376541057+376295210+376351279+376407311+376387682+376205301+375799157
1928+375402973+375541810+376468471+377690787+378533070+379025753+379460207
1918+379443544+378479161+377094461+376288105+376380943+376982835+377522396
1908+377607946+377224215+376669419+376224748+375978168+375926127+376087303
1898+376483193+376986278+377326026+377521480+377996073+378785253+379124415
1888+378464659+377309253+376405590+375914664+375666070+375553016+375568105
1878+375743161+376004280+376209916+376665501+378212549+381131516+383996281
1868+384526723+382327719+379343088+377315845+376498392+376377208+376525236
1858+376726441+376862494+376917318+376971226+377202351+377828048+378999239
1848+380897058+383572851+386074577+386488998+384419126+381859133+380470222
1838+380242136+380434295+380778987+381885355+384388472+387540359+389370536
1828+389165487+388139724+387013726+385443606+383676896+382663439+382682556
1818+383118694+383467817+384033380+385404273+387391342+388887668+389105352
1808+388572201+388472221+389588368+391964405+394856088+396991771+397593297
1798+397299327+397673061+399876422+403553696+406383268+406101017+403720732
1788+402074364+402434657+404186132+406347707+408549640+410593108+412184982
1778+413655599+416160584+420674501+426627686+431280000+432109209+430030328
1768+427476854+425923214+426331629+429026539+432620131+434953026+435858227
1758+436656453+437697780+439001068+441618081+446338440+451854462+455474678
1748+456238369+455657864+455458820+456405697+458428400+460744669+462471350
1738+464219200+467914200+473844642+478462751+478397123+475920154+474107409
1728+473531739+474209440+476229066+479197327+483103309+489131974+498099344
1718+507803232+513105597+512080165+508396262+505767712+505768371+508802443
1708+514456751+521143194+526900704+531982382+538639892+547099674+553748945
1698+556393023+556617849+555083399+552786430+552663195+556078325+561852975
1688+569035654+578639635+590396255+598624106+599112322+596765473+596908118
1678+600969160+608069731+615717956+621807707+627145084+633050037+638005952
1668+640033232+641200541+644888509+651254174+657320633+660963336+663894241
1658+669092012+678306403+691885766+706296096+712656415+711630176+712793163
1648+718407553+723784555+724060982+721434996+720639041+723428656+729769565
1638+738912907+747663729+749863867+744639582+738859731+736648752+737177070
1628+738404146+739793607+741608989+742282332+739715748+735652178+733815116
1618+734305932+732832825+726749080+719355199+713871113+710257342+707329586
1608+704379489+701435033+698830801+696720241+694967996+693447207+692323552
1598+691899390+692079207+692121762+691263621+689566018+687734522+686209265
1588+684866534+683550391+682455376+681789284+681522086+682005211+684323274
1578+688951637+693552973+694250926+692161974+692140440+695790393+700409527
1568+702996181+704417577+706928202+711501997+719332639+732409394+749126728
1558+759419946+759783535+759425733+763162336+770258402+778616336+786526962
1548+793755309+801786790+811789298+822909381+833411861+840857966+840916636
1538+834674242+829698184+829438017+831837310+833364252+833884220+835966580
1528+840321299+845495192+850707685+856439780+861878601+865177930+866978663
1518+869077284+870915152+871463392+871840604+874088426+879415401+887836473
1508+896793260+899598843+893392633+885945942+883126881+885011333+889554439
1498+893748384+895064381+894155188+894185805+897018049+901582030+904619800
1488+903769936+900430029+897717028+897182338+898186749+899443490+900959739
1478+903871820+908512049+913641849+917226834+917695164+915761491+914202174
1468+914911774+917572405+919990155+920202566+919532372+921296483+927011877
1458+934111899+936451570+932224590+926554827+922948015+921457988+920779665
1448+919620999+917768922+915953979+914621283+913848620+914231326+916468746
1438+919649199+920996763+919483518+917879522+918252340+919727498+920700853
1428+920973398+921204267+921484943+921789496+922903775+925417769+927845627
1418+927455011+924138835+920417760+917973056+916958171+916857019+917014057
1408+916870203+915934642+914045869+912275679+912591439+915599766+919453561
1398+921602428+921260812+919057231+915467704+911233913+907649807+905262453
1388+903120471+899974664+896433186+894693247+896034000+899791331+904450238
1378+909114271+913739265+918258566+922007474+924236544+924934058+924787275
1368+924801777+926129126+929374401+933633901+936651236+936774654+934814174
1358+933161909+933561608+935822394+938167045+939023281+938395497+937459570
1348+937495021+939125898+941733353+943745251+944334802+944489496+945716939
1338+948260304+951057831+952789859+952718812+951324077+950152520+950419206
1328+951911283+953517843+954503943+955009262+955461697+955854438+955945408
1318+955978295+956389494+956916566+956924916+956489107+956375724+957065181
1308+958368505+959732916+960474158+960089547+958825262+957603459+956962344
1298+956523679+955733949+954536830+952962205+950770490+948111104+945764768
1288+944176519+942868287+941056641+938448819+935409730+932624289+930582067
1278+929238091+928178527+927021106+925462302+923225394+920479726+918057361
1268+916604323+915669422+914263920+912230853+910303480+908784887+907040627
1258+904545310+901675198+899155197+897317622+896014371+894868743+893749263
1248+893210252+893809544+894783339+894632820+893502574+893416291+895465398
1238+898241170+899745187+899719624+899332963+899555409+900557256+902157224
1228+904341981+907139068+909921360+911379012+910915663+909778312+909808269
1218+911223512+912679480+913489132+914476111+916388909+918802631+920969003
1208+922759189+924497883+926655173+929691040+933459065+936774874+938302549
1198+938150418+938086842+939824950+943107945+945793553+946239616+945204881
1188+944925231+946916328+950940272+955410132+958611020+959999529+960331110
1178+960529604+960853128+961173063+961699403+963105271+965819444+969455335
1168+973180219+976259007+978070067+978637571+979277294+981482853+984999061
1158+988062761+989362496+988787082+986931928+984891244+984175199+985868774
1148+989405198+992624544+993788336+993433830+993343225+994206786+995590095
1138+997294144+999467328+1002155866+1005447431+1009428380+1013827632+1018165651
1128+1022079873+1025055312+1026080818+1024568232+1021815092+1020286685
1120+1020757358+1021435682+1020918351+1020376776+1021414734+1023773009
1111+1026252358+1027877009+1028038515+1027280940+1027279549+1028873071
1103+1030912070+1032080550+1032793958+1034304201+1037244336+1041179653
1094+1044479787+1045338660+1043513830+1040522277+1038541874+1039476116
1085+1043828491+1049929156+1055120701+1057676298+1057534129+1056144961
1077+1055327618+1055427012+1055349665+1054594654+1053964013+1054315810
1068+1055627484+1056661193+1055477551+1051920546+1048947011+1049543813
1060+1053385010+1057940128+1061753125+1065116544+1068058363+1069226697
1051+1067470717+1063850061+1061078391+1061132226+1063914664+1067816215
1043+1071340626+1073651951+1073741823+1071086172+1067360190+1065547738
1034+1066655498+1068832125+1070070994+1069950140+1068319629+1064613203
1025+1059293186+1054422601+1052259451+1053654918+1057670439+1062415701
1017+1066492455+1069591824+1071341212+1070858014+1068401956+1065747258
1008+1064191164+1063198765+1061650216+1059820551+1059165739+1060333780
1000+1061822415+1061528336+1059676624+1058223513+1057460591+1055861649
991+1052835891+1049152171+1045760772+1043856617+1044072911+1044781558
983+1043491856+1040149239+1036672584+1034103436+1032218105+1030559101
974+1028886475+1026917205+1024193436+1020586990+1016736637+1013543587
965+1010969971+1007898215+1003400448+997616642+991488364+986071957+982029995
955+979738299+979510214+980846572+981682519+979794771+975450380+971495580
945+970407376+971838147+973133269+972334237+970223018+968789903+968645170
935+968941520+969049777+968849524+967883494+965691925+962843566+960753442
925+960301958+960959261+961453153+961249531+960915826+960765307+960001433
915+957997518+955617856+954174486+953908386+954617986+956535398+959064847
905+960002239+957699264+953361025+949846209+948799755+949742860+951107711
895+951515979+950432024+948156076+945675116+944281186+944297593+944356995
885+943180458+941641943+941697902+943706725+945863136+946038558+943623738
875+939839965+936798605+936214329+938409780+942103461+945251026+946351315
865+945143648+942297414+938843098+935838361+934037482+933707952+934841714
855+936922976+938529023+938214801+936439704+935650267+937665096+941825862
845+945951177+948211450+947827645+945195286+941925328+939603090+938446549
835+937893474+937621735+937429393+937474292+938617503+940759338+941658716
825+939880177+937532595+937546732+940059334+943263298+946132898+948915849
815+951927764+954697970+956227182+956217075+955563068+955043028+954318633
805+952823772+950797371+948972028+948001675+948306082+949619881+950821102
795+951026848+950569212+950124907+949522099+948621256+948540540+950068581
785+951932305+952689587+953009229+954135666+955651622+956210043+955148501
776+952620224+949307417+946394603+945233594+946833195+950939466+955153188
766+956337490+953850889+950162262+947722904+946532670+945661492+945433406
756+946310957+947095633+946542045+945945463+947486176+951140598+955105506
746+958165396+960369051+961814691+962258923+962307924+963596160+966660299
736+969148951+968069243+964225190+961276046+960556046+960129979+958825042
726+957881278+957854178+956871227+953406144+949312691+947887559+950020825
716+953789143+957123996+959457295+960484412+958823724+953864439+948747165
706+948010245+951709273+954807471+954079707+951887259+950789094+949409594
696+945571547+939300514+931600541+924240499+919869593+919224010+919983270
686+920312360+920667526+921227632+921003062+919784043+918837129+919525121
676+921655311+922474705+918281784+908384896+896681707+890102459+892457145
666+898163311+901454437+901648390+899237671+895128397+891902020+891673568
656+892799273+891549198+887046817+882268008+880819511+883980920+889263875
646+891749670+888633527+882123129+876568874+873990790+873040287+872195477
636+872642200+875984231+880068309+880537224+877107153+873411640+871284014
626+870200425+869592417+868440636+865476990+861273303+858384000+858910340
616+862780835+868374496+873321402+874687571+870953532+864825840+861417376
606+862787061+867130720+872833956+879725009+885968135
##END=
