##TITLE=<SNM>
##JCAMP-DX=4.24
##DATA TYPE=INFRARED SPECTRUM
##DATE=2/5/2025
##SAMPLING PROCEDURE=Instrument type and / or accessory
##ORIGIN=Admin
##XUNITS=1/CM
##YUNITS=ABSORBANCE
##RESOLUTION=4
##FIRSTX=4497.3318
##LASTX=599.83466
##DELTAX=-1.4281778
##MAXY=1.804204
##MINY=0.23903768
##XFACTOR=1
##YFACTOR=1.6802959e-09
##NPOINTS=2730
##FIRSTY=0.26223782
##XYDATA=(X++(Y..Y))
4497+156066450+155036784+153920635+152820786+151970399+151584119+151537064
4487+151509875+151446432+151671506+152384773+153185002+153419938+153017252
4477+152533262+152436191+152863726+153814856+154989091+155740030+155648954
4467+154856849+153747564+152712754+152128926+152157216+152628648+153358836
4457+154364257+155544860+156386787+156324585+155437289+154466738+154065736
4447+154321069+154940298+155470934+155417122+154587292+153313201+152167893
4437+151602778+151800662+152507172+153019061+152727138+151722622+150667823
4427+150136602+150313770+151103428+152079389+152451639+151660066+150090452
4417+148804052+148554909+149314930+150575506+151771255+152452420+152392843
4407+151724147+150907637+150381452+150188960+150096997+149943684+149644276
4397+149156704+148723218+148771045+149387081+150244545+151021593+151446148
4387+151158730+150117535+148866236+147924879+147242730+146610287+146239278
4377+146551074+147510486+148388409+148344432+147326915+146161078+145622301
4367+145752672+146161654+146532007+146709193+146657430+146425412+146106202
4357+145905719+146103266+146638354+146941602+146564110+145730138+144978258
4347+144633464+144804770+145381450+145872809+145816931+145461494+145418359
4337+145606196+145325705+144508626+144023590+144418907+145110811+145252755
4327+144860400+144550254+144572468+144648965+144536295+144269585+143897618
4317+143355400+142705416+142259275+142271753+142632023+143067849+143584970
4307+144399353+145421445+146184951+146404776+146330301+146399375+146659789
4297+146650876+145995412+145092534+144839542+145502252+146316954+146508134
4287+146225984+146091614+146234586+146217604+145675705+144701899+143775219
4277+143461871+143950845+144839223+145575220+146010940+146342140+146735257
4267+147202894+147637771+147852399+147685119+147097052+146266379+145637590
4257+145630885+146237841+147052880+147624700+147724103+147532808+147504651
4247+147740172+147842378+147707928+147803837+148314839+148770220+148793924
4237+148555566+148341532+148165490+147840303+147231698+146549992+146343142
4227+146991388+148253427+149404268+149821391+149525868+149168623+149298506
4217+149704261+149806936+149490342+149050392+148548152+147823897+147058156
4207+146779376+147267215+148254278+149213017+149781467+149971742+150100225
4197+150445356+150826103+150698294+149916511+149122118+148971731+149318850
4187+149631435+149778062+149841132+149608076+148927071+148313065+148544888
4177+149659068+150836017+151402073+151505565+151654639+152027829+152346321
4167+152126266+151169922+150039016+149705591+150493972+151711821+152448145
4157+152449245+152135986+151973893+151969175+151805770+151384816+151001072
4147+150958983+151235298+151548114+151615690+151339836+150869184+150563924
4137+150762908+151396592+151971215+152148277+152110942+152171015+152328212
4127+152346126+151988455+151234695+150475863+150251267+150633575+151175704
4117+151485895+151535238+151449500+151287603+151002579+150563729+150156733
4107+150092988+150426556+150940538+151560051+152357442+153094760+153288689
4097+152874403+152365370+152218140+152390414+152558891+152468205+152091911
4087+151681030+151593058+151935175+152431048+152680172+152546139+152300810
4077+152276919+152365654+152144144+151565638+151092627+151048321+151307095
4067+151668934+152022881+152159007+151947377+151642188+151591728+151768063
4057+151881504+151776807+151514309+151279799+151303281+151626633+151944380
4047+151917438+151582186+151238863+151073170+151114850+151402321+151883331
4037+152231744+152059258+151365944+150622880+150350094+150692424+151398987
4027+152103865+152603427+152943185+153275812+153640383+153924874+154027355
4017+153924466+153553351+152827544+151882338+151142076+151028474+151641195
4007+152662826+153527119+153862957+153846976+153929858+154224016+154430413
3997+154368797+154265182+154426299+154856352+155306306+155559049+155604844
3987+155653903+155944158+156372793+156458566+155954215+155309782+155158562
3977+155558304+156076223+156377865+156430347+156338366+156245800+156302947
3967+156585345+157059562+157651122+158307297+158965918+159430256+159390970
3957+158789193+158062943+157780740+158161326+159106213+160319841+161214303
3947+161307667+160926424+160817824+161047262+161009093+160523649+160129725
3937+160296127+161021757+162087251+163190381+163833004+163564316+162575781
3927+161727007+161757798+162553309+163390837+163967659+164692845+165765948
3917+166397858+165548731+163489646+161732186+161375739+162228485+163584855
3907+165383924+168034321+171258258+173847021+174851750+174189971+172089383
3897+169254582+167182373+167091900+168598266+169799070+169527420+169168880
3887+170414185+172626263+173893791+174097653+174348818+174108437+172398049
3878+170549300+170516843+172429496+175269884+178186929+180058859+179830131
3868+178562709+178172350+178585394+178340277+177052139+175769553+175565709
3858+177228687+181382098+187164007+190199797+186958868+180934006+176320320
3848+174334824+174815780+177094121+180229181+183452781+186327206+188217866
3838+188333170+186994749+185523607+184461235+183508633+182710072+182493865
3828+182740064+183117210+184401783+187697570+191724627+193136831+191885921
3818+190984293+190688380+188954439+186071040+184527587+185686782+188991614
3808+192333338+193795062+194384831+196216606+198648598+199359151+198858348
3798+199220276+200192192+200435216+200262517+201059199+203418861+207030089
3788+211395945+216081819+220736903+225552713+231500493+239420413+248889763
3778+258720155+268582082+279051497+290701922+303744527+317259913+328717668
3768+335979534+339143877+339728361+339737336+340666650+342425954+343861286
3758+344647219+346180917+350460096+358715411+370120951+381125401+389162452
3748+396348477+405450845+415847825+424433213+431394696+440207961+452434127
3738+467083220+481739088+493653874+501999360+508900008+516484995+524950273
3728+533976019+543375329+552403594+560299641+566552806+569750138+568935366
3718+565786276+562874995+561205614+560025686+557766464+553826121+549437615
3708+545859412+543495830+542507347+542697836+543198427+543296615+543207117
3698+543646873+545500180+549489901+555520226+562511010+568395294+570412485
3688+568163160+565289800+564763917+566018764+566708105+565994856+565957077
3678+568601638+572108648+572526977+570375416+569188251+569488704+568778115
3668+565554958+560934319+556754854+553989650+552171248+550406055+548766152
3658+547647236+546929517+547107838+549745589+555786165+563430782+567073616
3648+562898053+555128466+549615794+547913388+548240943+548187698+546953745
3638+545609507+545326612+546236735+548422563+552714761+558648316+561938303
3628+559394130+555576309+554981502+556981099+559449644+561927697+564833869
3618+567597229+569801467+572290020+576079214+581125242+586016787+588613211
3608+587872329+585617399+584824123+586482224+589462144+592482397+595425851
3598+598427694+600539597+600595786+599255769+598674513+599994878+602269459
3588+603487095+602782252+601645636+602034630+604259903+606959731+608912291
3578+610388168+611700942+611628010+609150384+605863695+604645917+606637994
3568+610166464+612296458+611804310+610007901+608463490+607215064+605503222
3558+603136625+600907591+599893000+600274048+601007127+601054944+600622887
3548+600330166+599708968+597768753+594933880+593257866+594147876+596358500
3538+597211264+595934317+594286113+593525117+592957554+591927639+591092293
3528+591110384+591667660+592112949+592083932+591370292+589765933+587484434
3518+585605835+585026034+584796561+583223169+580509259+578069020+576103052
3508+574391600+573884447+574866651+575363765+573611413+570330507+567396843
3498+566316948+567469811+569236564+569371183+567900556+566518362+565640661
3488+564541716+563329294+562438752+561325299+559663651+558520118+558657042
3478+559060438+558467263+557139378+556148767+555802589+555496211+554592012
3468+553052745+551308765+549706782+548509684+548233387+549003109+549566168
3458+548414227+546118646+544658306+544400880+543691107+541543660+538960112
3448+537350893+537158311+537829455+538423516+538569061+538781294+539529626
3438+540118757+539380854+537571107+536292139+536387418+536846506+535910204
3428+532997150+529453923+527198001+526671089+526572688+525736419+524499627
3418+523713162+523303984+522760259+522349307+522495278+522519009+521474160
3408+519802509+518804271+518741627+518618572+517757436+516635328+516047439
3398+516174680+516700988+517189483+516976611+515299816+512092835+508447376
3388+505819451+504802910+504966581+505682527+506599922+507322004+507282133
3378+506451575+505730450+505836195+506190248+505800864+504796702+503954367
3368+503203197+502029689+501032303+501526899+503593929+505765285+506731668
3358+506399288+505293959+503947734+502936797+502754893+503502481+504768608
3348+505660676+505294349+503757458+502259694+501748923+501644243+500525008
3338+497980054+495255325+493989623+494594291+495898835+496362676+495664147
3328+494811029+494686839+495168665+495746054+496189498+496494705+496791683
3318+497170248+497218526+496252143+494275746+492130498+490671754+490218023
3308+490441749+490609854+490524188+490890514+491958314+492685398+492194881
3298+491121300+490574275+490600844+490474136+489918917+489391473+489418397
3288+490113485+491215693+492252099+492793235+492871523+492987093+493474843
3278+494074296+494337078+494181105+493752310+492988228+491754842+490359630
3268+489436488+489119681+488769282+487950040+487252682+487418481+488003213
3258+487840252+486604737+484932909+483333763+481996265+481299014+481558780
3248+482510300+483579093+484381060+484706238+484420683+483572637+482310837
3238+480742198+479131525+478156557+478572368+480384563+482503560+483421346
3228+482282494+479376251+475851789+473025643+471652495+471560230+471882429
3218+471762708+471017391+470107339+469466737+469025138+468537601+467980537
3208+467212766+465778179+463587455+461371972+460038978+459849200+460355040
3198+460866770+460921504+460456705+459620471+458543875+457274129+455749548
3188+454002091+452560658+452200681+452919464+453611608+453235668+451948044
3178+450646799+449743983+448847694+447526726+445947055+444528537+443281565
3168+441916398+440415406+439034063+437851971+436740646+435649506+434600862
3158+433550018+432491477+431537935+430780806+430254284+429977242+429789166
3148+429249378+428039049+426475980+425320598+424905390+424726856+424153227
3138+423179005+422142528+421201295+420494714+420222390+420157865+419716939
3128+418838848+418119568+417862462+417715037+417380991+416909381+416147463
3118+414773179+413076023+411899393+411606956+411719192+411652822+411274861
3108+410653237+409763191+408604475+407382902+406491118+406222199+406374767
3098+406416909+406141073+405697913+405034999+404017641+403040475+402710188
3088+402969600+403172220+402909509+402311652+401745827+401514900+401591698
3078+401565910+401091852+400312375+399607497+399035925+398306039+397208442
3068+395854307+394562710+393600407+392960195+392411433+391872035+391563954
3058+391567111+391472115+390852939+389855908+388927658+388202880+387476966
3048+386588836+385627774+384858335+384488603+384420354+384296412+383884929
3038+383241348+382421609+381339088+380020142+378703360+377623145+376924829
3028+376644878+376504371+376010343+375069145+374183037+373823486+373892338
3018+373874921+373361667+372431927+371501584+370758857+369990979+369037721
3008+368025472+367068737+366152832+365343238+364773050+364460074+364319035
2998+364211730+363928374+363359214+362676152+362106602+361609700+361002833
2988+360295827+359674700+359218202+358789053+358214856+357551907+357093847
2978+356992041+356948835+356503404+355554048+354378092+353250415+352263564
2968+351408246+350670414+350119133+349897109+349991005+350069968+349758837
2958+349092482+348509346+348300483+348218895+347791201+346909811+345926188
2948+345206624+344748707+344266562+343613332+342948786+342371894+341703339
2938+340883920+340174146+339659012+339050832+338265467+337645297+337391738
2928+337273969+336981532+336396019+335588093+334810602+334321682+334035559
2918+333564552+332755207+331958348+331562331+331440624+331119525+330387688
2908+329494166+328848953+328729374+329085591+329437126+329219607+328407495
2898+327516172+326927538+326552237+326138767+325598127+325005981+324438737
2888+323831941+323061616+322197643+321482052+321036444+320819705+320768802
2878+320705022+320313474+319519666+318658424+318048577+317658590+317327630
2868+317046793+316875460+316753611+316553013+316256000+315924968+315513130
2858+314922226+314236680+313662129+313253483+312940472+312751722+312736646
2848+312706352+312341196+311602442+310809556+310267213+310018727+309964702
2838+309961084+309778435+309259647+308549022+307917182+307408894+306862330
2828+306167633+305392980+304755961+304455613+304434188+304390876+304095601
2818+303582736+303054973+302693719+302499435+302263648+301775934+301059740
2808+300322724+299719368+299224772+298721379+298192056+297765709+297514882
2798+297314886+297011843+296598958+296119208+295551520+294909713+294314321
2788+293866726+293522074+293132229+292606576+292027715+291549649+291164185
2778+290701213+290089256+289451084+288918514+288495804+288079230+287527488
2768+286794089+286001221+285285630+284661577+284124609+283714243+283369004
2758+282911814+282298367+281721670+281363484+281134153+280781891+280219826
2748+279581069+278975781+278403482+277884214+277457212+277070861+276623231
2738+276076170+275470953+274881308+274340172+273814644+273312510+272897160
2728+272512369+271991683+271322491+270679743+270177538+269787409+269458329
2718+269161582+268862866+268520129+268096798+267600623+267107216+266701319
2708+266404963+266141968+265754287+265168189+264553394+264123358+263814284
2698+263412325+262923103+262541151+262340783+262225089+262081283+261812542
2688+261320358+260617165+259914929+259478331+259348270+259260564+258908568
2678+258283397+257673036+257310488+257112763+256821177+256331352+255801354
2668+255454148+255340617+255315573+255212525+254996390+254745669+254538295
2658+254371787+254155563+253795603+253323905+252884451+252554023+252263697
2648+251931548+251574586+251262426+251037352+250896596+250809138+250724004
2638+250554817+250207681+249704909+249234948+248973213+248880452+248762345
2628+248488532+248090900+247688498+247371407+247155893+247021558+246958895
2618+246950630+246934738+246826706+246596169+246321043+246132381+246073479
2608+246066384+246045863+246017290+245939569+245715293+245376458+245138188
2598+245169421+245376085+245460723+245209967+244747066+244431288+244434835
2588+244534602+244424849+244099884+243805177+243715537+243767912+243792069
2578+243741875+243701738+243678929+243583135+243440872+243402952+243509600
2568+243662310+243785596+243822345+243682583+243397010+243205617+243310652
2558+243619849+243863671+243906380+243828961+243753989+243714987+243668536
2548+243520082+243187987+242743106+242381834+242161265+241910845+241514562
2538+241104710+240851364+240722829+240591704+240446142+240344654+240257870
2528+240110197+239919088+239774342+239730409+239785888+239896545+239966657
2518+239882392+239588713+239155396+238782631+238663088+238789016+238987575
2508+239134911+239189787+239075991+238752018+238356657+238099001+238033075
2498+238052213+238044639+237976213+237863321+237719443+237543180+237363954
2488+237260923+237289851+237401218+237449124+237264275+236771382+236117939
2478+235624549+235477763+235511853+235410383+235078589+234696761+234456114
2468+234388237+234427842+234483055+234422894+234141081+233688059+233247577
2458+232953348+232787088+232639663+232420282+232125007+231827232+231589227
2448+231404610+231241559+231092982+230965156+230857532+230756417+230620681
2438+230402311+230122431+229907715+229877989+229971406+229978252+229816053
2428+229648019+229636650+229735672+229820824+229858887+229868251+229857202
2418+229838738+229804560+229707383+229548217+229423388+229412161+229482557
2408+229573367+229700536+229893419+230086657+230194653+230266220+230445126
2398+230769914+231105841+231342125+231637311+232394476+233994561+236658597
2388+240564390+245934355+252992838+261966138+273062817+286283105+301283466
2378+317536422+334571481+352011673+369504506+386667337+402896385+417253608
2368+428950556+437916318+444387320+448064421+448227383+444645313+437913906
2358+428746978+417166558+402759034+386233009+370611645+359643413+355276368
2348+357637041+366054253+378656429+391591658+400905124+405484225+406875039
2338+406998555+406676888+405944235+404881827+403565932+401705530+398964164
2328+395437929+391455408+387061120+381936874+375856746+369093413+362168821
2318+355336175+348596006+342032491+335769713+329692955+323513609+317080598
2308+310495870+304023059+297914553+292196122+286644998+281108737+275778625
2298+271015084+266964101+263447958+260175458+256974827+253857095+250948794
2288+248385288+246214164+244367614+242737093+241277161+240026854+239025673
2278+238218367+237482433+236753539+236064145+235471680+235034355+234805059
2268+234723968+234586494+234240316+233748806+233295997+233002957+232852056
2258+232734180+232553819+232275678+231895783+231461792+231091350+230849355
2248+230650478+230370775+229991129+229594171+229290986+229152554+229168127
2238+229266439+229359750+229383818+229361488+229393467+229521931+229670030
2228+229755661+229778559+229808870+229974847+230386206+230980303+231539087
2218+231933934+232247264+232604847+233028763+233525346+234176820+235037618
2208+236008701+236885019+237525337+237997106+238531414+239277210+240165038
2198+241053505+241871737+242598094+243272447+244012319+244863859+245703020
2188+246385461+246917126+247425769+247999257+248581914+249072022+249464013
2178+249762197+249860368+249683501+249327461+248945651+248636648+248447703
2168+248326953+248107377+247662816+247050486+246430281+245867932+245315037
2158+244787771+244400675+244186881+244081899+244074042+244200236+244499058
2148+245047484+245913231+247213022+249351795+252818650+257600796+263225810
2138+269367501+275980430+282991362+290258886+297728037+305465486+313584302
2128+322073772+330758910+339524535+348374798+357233574+365938719+374327482
2118+382177060+389252198+395324629+400011602+402954631+404219623+404207066
2108+403370335+402205554+401197242+400653871+400582003+400568807+399988226
2098+398507843+396168915+393111167+389530056+385585526+381179284+376101507
2088+370274761+363673964+356245518+347945365+338817848+329187859+319573726
2078+310270654+301388288+293214454+286065799+279981591+274848708+270552733
2068+266975736+264046985+261633369+259449527+257402486+255717124+254456903
2058+253372166+252299950+251296214+250501218+250095215+250144717+250520834
2048+251139301+252052687+253346271+255232940+258004671+261738244+266418956
2038+272227399+279246969+287135603+295371550+303507251+311149916+318046201
2028+324169854+329634318+334564067+338890176+342306695+344640905+345999510
2018+346392725+345641342+343702794+340723406+336855249+332219321+326918954
2008+321081671+314930065+308703718+302557079+296636684+291129759+286144265
1998+281646379+277580125+273989222+270926065+268236720+265603652+262894991
1988+260298974+258078649+256362160+255114851+254162107+253287386+252388490
1978+251535761+250886345+250514360+250298527+250071714+249870229+249840645
1968+249923970+249872269+249586518+249225708+248974064+248881693+248937669
1958+249144830+249461140+249765780+249961110+250077709+250250372+250599725
1948+251158154+251933836+252925955+253887070+254268313+253814989+253008712
1938+252519615+252549802+252891369+253285399+253604210+253870859+254177343
1928+254632405+255411048+256579076+257811061+258751265+259631999+260822818
1918+261935809+262256092+261928254+261790318+262318702+263333505+264372607
1908+265104019+265552039+265980549+266538446+267135257+267656546+268138496
1898+268683641+269260852+269694719+269982811+270412651+271036403+271322739
1888+270833092+269919226+269201613+268849830+268696428+268592121+268463923
1878+268301440+268166963+268172568+268565144+269710735+271606166+273336578
1868+273588150+272187014+270312565+269022565+268492460+268404222+268451046
1858+268485100+268484178+268490882+268565552+268809852+269353312+270312228
1848+271867476+274092413+276276307+276960541+275775859+274160857+273376467
1838+273420524+273703241+274029785+274900747+276798005+279171146+280631150
1828+280720914+280350632+280037354+279425716+278533010+278028943+278253911
1818+278871491+279470110+280097605+281058631+282333911+283427463+283902532
1808+283900864+283981192+284693431+286279079+288396977+290170985+290959490
1798+291149216+291842884+293824159+296715238+298750999+298385949+296555966
1788+295435330+295935672+297481786+299214024+300839561+302288089+303376569
1778+304314680+305935606+308950360+312934974+316025604+316653578+315467158
1768+313903059+312797446+312890704+314574735+316930265+318436933+319051852
1758+319801497+320896043+322208249+324448492+328247868+332622894+335504023
1748+336245331+336112309+336415458+337677045+339809061+342132737+343798641
1738+345187114+347902621+352347351+355808388+355461677+352888381+350583932
1728+349166620+348685539+349177510+350390464+352363917+355872167+361332162
1718+367123720+369860759+368495875+365580338+363477055+363042195+364445140
1708+367420875+370948423+373878575+376642644+380769042+386109848+390020466
1698+391179075+390720874+388888674+386206476+384727583+385604930+388387622
1688+392622389+398729831+406088680+410777427+410220044+407734046+406780788
1678+408268229+411604757+415219532+417964517+420620677+424044077+426868805
1668+427424910+427222858+428838781+432495947+436200610+438445819+440248471
1658+443663606+450078739+459869845+470578097+475821815+475694893+476895183
1648+481248110+485637574+486818354+486286973+487134912+490426389+496123874
1638+503894241+512151081+517499798+518906256+519932020+523470316+529597694
1628+536998791+544737942+552895139+561343213+569126812+576115503+583791513
1618+593172057+602572396+608994020+612748451+616229530+620202686+623942148
1608+626794154+628905702+630896856+633259764+636076723+639237057+642861091
1598+647412381+653245655+659951912+666480593+672246185+677616540+683051100
1588+688394780+693077319+696633458+699261915+701945283+705719012+711024948
1578+717571862+723791079+727692793+730546076+735893090+745267817+756933939
1568+767546664+776200585+784671042+794620072+807200397+823872357+843973534
1558+859561660+865507737+867403683+868440337+867938043+865808333+863245359
1548+861623192+861697401+862824369+863556809+863363412+861790056+856867863
1538+849339490+842978028+838898170+835450294+831133052+826888459+824536973
1528+824189837+824463474+824611537+825284099+826464489+826864550+826306210
1518+825662522+824659496+823038109+822088221+823231790+826624897+831239683
1508+834524598+832742236+826734720+822405205+821842679+823570980+825869896
1498+827425445+827214098+825484307+824252127+825181938+827646724+828898981
1488+827011762+823379783+820370278+818724912+817941391+817548637+817678609
1478+818774077+821108465+824445099+827516964+828217408+826102242+823470380
1468+822439614+823294577+824744134+825027561+824202678+824177493+826066344
1458+828393424+827901276+824333289+820938622+819483106+819576115+819834285
1448+818968113+817044925+815186793+813894026+812866807+812261572+812878868
1438+814701172+815826721+814466201+811831430+810001038+809153808+808322895
1428+807312562+806761600+806717826+806714208+806954075+807929148+808844415
1418+807995128+805306013+802194559+799485438+797430220+796243729+795835864
1408+795757185+795543001+794877462+793964749+793722755+794833405+796835414
1398+798610042+799447482+799136812+797754937+796123760+795447863+796010957
1388+796627757+795796560+794127853+794367152+798081712+803772102+808834412
1378+812547979+815957473+819584983+822815554+825186266+826945783+828334539
1368+829536922+831198606+833749306+836264321+837126237+836117748+834694512
1358+833880271+833414657+832887036+832593109+833077595+834205485+835091452
1348+835156721+834893585+835109188+835883344+836910492+838332025+840383057
1338+842526744+843851153+844335001+845036651+846924154+849824331+852705779
1328+854938077+856864812+859107184+861893636+865094409+868396847+871465875
1318+874215719+876849213+879707249+883322415+888246310+894349886+900547323
1308+905502363+908477388+909667498+909987816+910409090+911434393+913119063
1298+915169102+916879099+917520020+917068736+916136726+915193365+914235460
1288+912882176+910503519+906936028+903227215+900797973+899881429+899598357
1278+899269667+898929767+898993193+899806937+901038549+901597741+900967533
1268+900211822+900740791+902750107+905545711+908557841+911383171+913659738
1258+915511059+917340670+919008455+920071998+920732925+921553976+922399220
1248+922697404+922522168+922333454+921922680+920535697+917854670+914440634
1238+911421127+909626137+908648154+907296857+905342311+903741214+902875397
1228+901998582+900733200+899612475+898901886+898256992+897520224+896774588
1218+895924591+895211589+895487283+897028785+898843285+899988415+900932769
1208+902808140+905875891+909265663+911859285+913245346+913959624+914927887
1198+916760408+919422421+922324798+924828178+926745194+928133880+928804740
1188+928728970+928704068+929670557+931626168+934104788+937380621+942007468
1178+947251541+951242078+952964207+953010322+952195868+950867416+949717674
1168+949802809+951368361+953445714+954959192+955885456+956981846+958722563
1158+961215939+964814787+969777277+975352736+979892675+982081624+982037496
1148+981366069+981920011+984276888+987550381+990247087+991056645+989732378
1138+987719515+986766860+987101296+988133268+990051490+993379469+997752686
1128+1002096674+1005810808+1008987673+1011608538+1013116909+1012941886
1120+1011470691+1009545446+1007695757+1006715007+1007169058+1008217631
1111+1008886576+1009821636+1012023853+1015099124+1018154175+1020855493
1103+1022878147+1023961412+1024188792+1023032098+1019887726+1016410195
1094+1015856750+1019556340+1025610254+1030807219+1033186019+1033284775
1085+1033323440+1035066072+1038203491+1040822796+1041546155+1041068551
1077+1041246624+1042420841+1042641127+1040637983+1038176745+1037775478
1068+1039823814+1043190102+1046938716+1050003913+1051409200+1051683971
1060+1051905250+1052077647+1052046290+1053010296+1056232211+1060768744
1051+1063754057+1063133923+1059873484+1057108529+1057174295+1060031693
1043+1064392636+1069035517+1072553274+1073741823+1072661963+1069483821
1034+1063815708+1056895338+1051932777+1050666969+1051469361+1051989746
1025+1052227910+1053328131+1054816566+1055080483+1053732804+1052302828
1017+1052722967+1055164979+1057512988+1057839408+1057142370+1058072251
1008+1061078421+1063187770+1061027695+1054808053+1048339179+1045049653
1000+1044971045+1045491785+1044542393+1042661843+1041734090+1042304278
991+1042853608+1041831427+1039797564+1038793119+1039873475+1041828731
983+1042440706+1040567747+1036492784+1031483329+1027334725+1024954151
974+1023183283+1020030256+1015800845+1013134574+1013171821+1013555139
965+1011107522+1006024921+1001502790+999284398+997970772+995994517+993792087
955+992046192+990023893+986783177+982861953+979698000+977683363+975690649
945+972890930+970007140+968046209+967091426+966769688+966766212+966520244
935+965515161+963822545+961252263+957508616+954129982+953677918+956491897
925+960215822+962524669+962850096+961966258+961371452+962248053+964099729
915+965057492+963760751+960411135+956452097+953802002+953254658+953744820
905+953821015+952949451+951493367+950069067+949065189+948591558+948553176
895+948558639+948223209+947957518+948505714+949161533+948083730+944800447
885+940902635+937992455+936285650+935648986+936568935+939043298+941486162
875+942127295+940921933+939047839+937172680+935103132+933001232+932065249
865+933599869+937459655+941321213+942444705+940978192+940107976+941842662
855+944049136+943391684+940243269+937853685+937821405+938952985+939448113
845+938479069+936219032+933780071+932940644+934772313+938046302+939557581
835+937423756+933403492+930519206+929948309+930968220+932238498+932574069
825+931853406+931433267+932589677+934891430+936973749+938498153+940380903
815+943188781+946307612+948957210+951154106+952934694+953565683+952552937
805+950532624+948261803+945867325+944057436+944624999+947976035+951332959
795+951876047+950799876+951428310+954158361+955533637+952934623+948547713
785+946682629+948427248+951091390+952306827+952023684+950559938+947960285
776+945257194+943716260+943354012+943796144+945010872+946191403+946065262
766+944651249+943326911+943394522+945067131+947336179+948811417+949330809
756+950269913+952667372+955907307+958702414+960228166+960386871+960009371
746+960378287+961682760+962325384+960557211+956403854+951601275+948465984
736+948774952+952540876+957348350+960080103+960151758+959780997+960754298
726+962608740+964041624+964110370+962044014+957673138+952070153+946887094
716+943700723+943705121+946177924+948196037+947426634+944102132+939958636
706+936421865+934908316+936686704+940813599+944407055+945780700+945315653
696+943475471+940618641+937937543+936421794+935320650+933347445+931201772
686+930306086+929406286+926047233+920975346+917422612+916854978+917758184
676+917130814+912283397+903279502+893466474+887265419+888856654+897453606
666+905053492+907541122+906652105+904447263+901021948+896465975+892599308
656+889955243+886750426+882737754+880834075+883405847+888480927+891250139
646+889630313+886200812+884148716+883759438+883601656+882590471+880518865
636+877386341+873424252+869474366+866757796+866263235+867391693+867522516
626+864432134+859113356+854613430+852476342+851838188+851908566+853784788
616+858114019+862064331+861643624+857277502+854330145+858186738+868176562
606+875151915+870768269+859186997+851674020+853453118
##END=
