##TITLE=<SNM>
##JCAMP-DX=4.24
##DATA TYPE=INFRARED SPECTRUM
##DATE=3/5/2025
##SAMPLING PROCEDURE=Instrument type and / or accessory
##ORIGIN=Admin
##XUNITS=1/CM
##YUNITS=ABSORBANCE
##RESOLUTION=4
##FIRSTX=4497.3318
##LASTX=599.83466
##DELTAX=-1.4281778
##MAXY=1.7105684
##MINY=0.18036421
##XFACTOR=1
##YFACTOR=1.593091e-09
##NPOINTS=2730
##FIRSTY=0.20138317
##XYDATA=(X++(Y..Y))
4497+126410340+126225044+126431731+126671455+126473261+125434655+124000399
4487+123364381+124092701+125521652+126699357+127255832+127311093+127114115
4477+126790798+126331582+125939834+126039609+126587142+126835817+126177519
4467+124917231+123981243+124036504+124976458+126118254+126870051+127168647
4457+127239379+127123384+126604979+125592862+124482017+123965033+124407478
4447+125509165+126535210+126741467+125815777+124210201+122796056+122009856
4437+121672677+121569535+121589364+121382855+120619815+119594846+118986964
4427+119030037+119364541+119613796+119676466+119499140+119005699+118356483
4417+117951416+118041201+118566528+119364841+120184414+120506075+119897884
4407+118738261+118116320+118698901+119935823+120648119+120306104+119476064
4397+118961747+118827616+118526598+117754728+116814615+116225290+116288867
4387+116970268+117915685+118546755+118382898+117440792+116237440+115299058
4377+114774217+114543117+114425290+114237675+114029080+114262013+115315660
4367+116810331+117853259+117956803+117351082+116457017+115485522+114558008
4357+113831849+113390537+113216513+113325005+113761276+114460122+115223546
4347+115825619+116121530+116146738+116125188+116318957+116823426+117435021
4337+117676681+117197935+116312990+115773838+115841521+116068252+116159272
4327+116405534+116978836+117376851+116969473+115811655+114613625+114023627
4317+114169515+114862132+115861257+116776461+117131281+116839533+116303926
4307+115893050+115714162+115875250+116460608+117269827+117969001+118379783
4297+118403766+117993694+117387103+117075702+117424396+118410538+119630530
4287+120489978+120566762+119911026+118977713+118256016+117966971+118075099
4277+118496255+119181575+120009576+120738896+121133123+121074392+120600070
4267+119972611+119682265+120088165+120905868+121387392+121219186+120855489
4257+120813501+121143206+121655691+122085527+122144118+122018069+122369989
4247+123271229+123818266+123446459+122852168+122942019+123644531+124359831
4237+124837127+125051362+124863916+124309686+123730454+123341362+123098589
4227+123078011+123488064+124206749+124723770+124698048+124343321+124143762
4217+124325550+124810160+125531362+126416288+127106913+127153933+126545153
4207+125797219+125573593+126200538+127289112+127931237+127629789+126847874
4197+126265574+125876136+125322383+124743544+124682614+125300589+126131882
4187+126621647+126667629+126559455+126448792+126127439+125560694+125300617
4177+125897696+127171340+128483550+129429303+129937120+130071943+130016617
4167+129982747+129996301+129888341+129536000+129130567+129131325+129780223
4157+130725153+131322325+131270067+130813545+130428092+130422199+130790759
4147+131331427+131753349+131700801+131008166+130051487+129534616+129803504
4137+130575533+131344952+131844659+132083008+132156771+132181680+132249456
4127+132293988+132120021+131643884+131003620+130491238+130473719+131132737
4117+132114408+132765186+132867328+132807689+132923262+133064221+132929688
4107+132565075+132431215+133062135+134502835+136002678+136585652+136093165
4097+135313083+134951613+134891852+134649032+134184915+133950504+134240794
4087+134786147+135128246+135217751+135305610+135434269+135490138+135572309
4077+135855770+136237304+136461707+136448865+136284232+136047772+135801725
4067+135634118+135584759+135573965+135522380+135521098+135783467+136414312
4057+137232482+137804652+137789705+137376219+137179765+137555837+138266160
4047+138914066+139331247+139421762+139030453+138192612+137323428+136934130
4037+137138086+137579604+137918000+138253448+138887885+139701828+140098477
4027+139777414+139273797+139358522+140084269+140834644+141177389+141248308
4017+141372047+141610171+141734350+141551094+141172936+140887352+140844774
4007+141036663+141459475+142111141+142917844+143745882+144354999+144416780
3997+143869827+143187976+142941200+143118395+143227907+143018236+142776090
3987+142922399+143495897+144027389+143954674+143251235+142492273+142245385
3977+142660040+143620553+144830808+145729812+145831636+145254012+144639096
3967+144569833+145158578+146017716+146570843+146599689+146430819+146419557
3957+146522830+146544503+146491823+146594657+147134987+148108886+149013427
3947+149368808+149306813+149106823+148596116+147615342+146572928+146028623
3937+146257094+147391342+149356752+151511488+152768801+152464930+151106720
3927+149938051+149737706+150172162+150536729+150930984+151920101+153254553
3917+153761416+152686742+150665070+149043602+148617199+149209077+150391804
3907+152336505+155429297+159109907+161855605+162744835+161956400+159765633
3897+156801416+154648868+154675713+156476032+157891299+157505220+156813174
3887+157626947+159077712+159399271+159365242+160466275+161361828+160118657
3878+158172637+158027338+159880757+162606869+165498221+167467681+167074474
3868+165210242+164190866+164262908+163784451+162108321+160464367+160315308
3858+162608814+167901707+175073985+178884106+175092243+167965406+162436334
3848+159959365+160520358+163342231+167015415+170479583+173530863+175701931
3838+175845659+174007636+171855406+170333199+169076989+167931976+167475126
3828+167920396+169005153+171228302+175236570+179259915+179987066+178099674
3818+177075397+176849021+174914207+171652171+169738196+170623105+173924108
3808+177725623+180096222+181746817+184361434+186750085+186309979+183996493
3798+182346983+181304036+179852822+178513179+178405070+179577415+181319544
3788+183239935+185343750+187502079+189704668+192435419+195828462+198953935
3778+201023572+202683839+205223869+209521949+215683120+222629284+228691512
3768+233458264+237710062+242009471+247005480+253736398+262386753+271545103
3758+279689128+287224569+296128388+308124475+322809895+336544072+346369708
3748+354797541+365268539+377006205+385913616+391420651+397370336+406323617
3738+418683036+433670634+449036418+461248312+468176610+471275313+473684281
3728+477112755+480984478+483847059+485292080+486132783+487449810+489992497
3718+494073405+500322144+510140971+523669143+536992022+545213813+549176304
3708+552168077+555075181+558626936+564390185+572219348+579514420+584071390
3698+586017952+586956082+588677746+592533419+599063178+606884148+611707097
3688+610485477+606093880+602719095+602427936+605888362+612294167+619638177
3678+625796374+628161828+625199875+620462942+618468265+618817753+618264992
3668+616459033+616075834+618318981+621736867+624177824+625490735+627582877
3658+631296636+635037185+638274808+643886903+654240906+666945062+674423316
3648+671670060+663390464+656607820+654282137+656478441+661862831+668040259
3638+672610211+674695768+675000845+674996131+676564321+680936425+685969195
3628+687245252+685643614+685341081+688013970+692499216+695878191+696518652
3618+696786988+699394028+702761030+704194304+704968633+708049340+711979206
3608+712293338+709479022+709208216+714195040+720361243+721075859+715504771
3598+709471688+707871472+710806637+715839331+721166327+726000126+728721879
3588+726668798+720246530+714004975+711205325+711737508+714277950+717302236
3578+719121028+719376494+719499887+720808720+723582030+727722164+732791450
3568+737022427+737525203+733228002+726600703+721449854+719661667+719851508
3558+719721905+719667878+722015935+727058058+731489427+731636615+727882822
3548+723681103+721531941+721682722+722769687+723380515+724000174+726470576
3538+731096949+735282879+736479843+735861456+736227819+737122848+735059440
3528+728958488+722576254+720187116+722165368+725519650+727306116+726874502
3518+725528779+724610478+724169511+723761170+723734381+724521133+725582132
3508+726259483+726652784+726831476+726273327+725015228+724219871+724390481
3498+724602172+724641383+726088948+729749879+733604915+735184928+734559209
3488+733319293+732461155+732246770+732306110+731691091+730200873+728905584
3478+728983556+730697213+732658928+732787035+730657703+728201893+727424869
3468+728279415+729713587+731527889+733558222+733983400+731173499+726732776
3458+724509833+726285823+729320510+729243137+725637730+722559866+723337264
3448+727091581+730329803+730923645+729239171+726317401+723332774+722129450
3438+723926841+727391870+729969801+731049507+731580718+731703288+731303028
3428+730738219+729553453+727554922+726832823+728785783+730544263+728260409
3418+723047676+719762611+720978282+724457304+726192063+725284163+724418916
3408+726007011+729591316+733314654+736277730+738233533+738523421+736520999
3398+732789879+729039079+726788524+726237110+726363121+726512854+727260171
3388+729099765+731365136+733138656+734143534+733989686+731886020+728065405
3378+724373271+722617410+722894127+723756456+723875284+723551125+724260878
3368+727076316+731889013+737048617+739533536+737496169+733016461+730097160
3358+730372605+732805443+736222506+739783241+742054897+741951109+739861287
3348+736916395+734150418+732616725+732871816+734013855+734674071+735037141
3338+736197438+737669099+737460700+735070889+732492284+731605861+732366272
3328+733644799+734410673+734411721+734263934+734568413+735190016+735724220
3318+736103902+736254682+735763954+734624160+733709601+733864198+734923251
3308+735886524+735870960+734687316+732623010+730197056+728563541+729220988
3298+732425387+736178656+737864477+737156521+735913088+735705214+736539930
3288+737851232+739527849+741183140+741692875+740392722+738542352+738280601
3278+739902518+741322546+740464782+737613127+734961564+734465897+736415639
3268+739224792+740621250+739979143+738763247+738091209+737369110+735770315
3258+733847361+733259655+735121324+738494911+740905375+740933286+739490510
3248+738021693+736881300+735960455+735595514+736033264+736427013+735321566
3238+732679730+730614826+730976100+732779328+733278362+731318293+728480331
3228+727121288+728086132+730148642+731429713+731502522+731549215+732100555
3218+732029317+730519270+728794164+728694940+730374850+732368068+733306647
3208+732620915+730350830+727637608+726636097+728436781+731657867+734143609
3198+734992468+734232281+732185485+729685301+727606030+726052731+724674233
3188+723253156+721598539+719886079+718949071+719309073+720412725+721188477
3178+720813135+719149239+716941262+715149333+713907248+712590334+710748420
3168+708573218+706769017+706102516+706720004+707938444+709141019+710531116
3158+712268869+713350745+712315337+709263963+706341370+705535837+706619509
3148+707907390+708362350+708017613+707042966+705573027+704176270+703686589
3138+704295547+704946259+704410484+703196759+702925953+703593427+703464273
3128+701780697+699376368+696920932+694872415+694462353+696427285+699043454
3118+699267866+696180051+691796348+688461522+687003854+687226919+688708158
3108+690644281+692056752+692702301+693093732+693567773+693806253+693185921
3098+691589371+689698818+687846652+685337713+682151722+680070430+680444725
3088+682055492+682655096+681851359+681162858+681522785+682008948+681320073
3078+679623627+678237122+678031342+678692755+679092716+678219761+676217788
3068+674309202+673343160+672971335+672591578+672317256+672437580+672594497
3058+672215339+671347024+670454464+669698318+668911342+668077972+667397478
3048+666964293+666526469+665594924+664068339+662707874+662425246+663015945
3038+663361954+663048720+662698895+662518258+661820478+660387579+659106882
3028+658732139+658870572+658476673+656818838+653969128+650814340+648498834
3018+647427733+646931168+646286816+645729939+645833278+646439168+646969181
3008+647220082+647061445+645888801+643409644+640726129+639492200+639902786
2998+640416711+639754475+638259618+636753461+635270052+633756114+632857792
2988+633061477+633694829+633435247+631828520+629991021+629345248+629859921
2978+630329922+630152502+629562850+628446253+626583275+624794564+624403134
2968+625514456+626513347+625563281+622618801+619372909+617184462+616010583
2958+615245046+614406999+613122523+611621081+610893444+611382826+612299892
2948+612647173+612022837+610535276+608762204+607510129+607022769+606758136
2938+606259663+605723701+605391797+604975374+604055353+602582420+600710799
2928+598815083+597826593+598420061+599618371+599398561+597059559+594045712
2918+592170761+591694213+591259307+589609553+587096012+585001401+583879678
2908+583314084+582891375+582610767+582442663+582071774+581275706+580316549
2898+579607358+579094256+578403697+577487978+576617680+575891989+575258637
2888+574782950+574437727+573835279+572557051+570759137+569156488+568140311
2878+567176178+565642484+563987006+563148474+563079743+562892559+562259581
2868+561564570+560824773+559585569+557904238+556477026+555652374+555154574
2858+554893271+555136091+555642982+555510161+554234627+552263259+550203443
2848+548253214+546667739+545843723+545561917+544979112+543744734+542428456
2838+541591045+541114535+540651306+540151262+539684591+539014648+537611643
2828+535233093+532546286+530824173+530639458+531107176+530927811+529913617
2818+528820816+528018163+527169977+526150358+525426875+525262214+525110573
2808+524218911+522568260+520819994+519470455+518444064+517466087+516470189
2798+515513389+514530810+513467753+512568122+512132955+511960511+511457175
2788+510364859+508987670+507768670+507001973+506728697+506620757+506230636
2778+505429256+504325005+502993350+501551359+500134174+498709244+497296025
2768+496213624+495678672+495395033+494872540+493897557+492519021+490830992
2758+488905943+486893045+485145266+484057328+483620589+483325689+482690166
2748+481755142+480833287+479905071+478669309+477160645+475831609+474953379
2738+474352391+473699882+472682434+471090261+469116012+467342903+466199966
2728+465581468+465015050+464094392+462830083+461551930+460419581+459320531
2718+458262563+457404537+456686403+455865306+454871802+453828350+452873832
2708+452105863+451446957+450583057+449308496+447815733+446417331+445189051
2698+444075035+443101174+442281274+441504437+440706050+439997009+439435492
2688+438839592+438093099+437455481+437197845+437059225+436480648+435341265
2678+434100938+433223195+432721579+432221984+431313486+429932593+428470510
2668+427396566+426785138+426320750+425714561+424962605+424204364+423497754
2658+422823882+422206356+421674772+421128595+420391456+419449958+418520583
2648+417800092+417223648+416577500+415787531+414954049+414157458+413377029
2638+412561544+411685260+410793561+409998541+409348390+408756119+408174698
2628+407708626+407388957+407007928+406368402+405543189+404725234+403973278
2618+403262516+402663435+402287308+402066263+401716325+400997070+400009066
2608+399183479+398887231+398982451+398867289+398091799+396841146+395660046
2598+394889346+394538248+394424733+394256705+393881288+393553163+393585414
2588+393738739+393408706+392391182+391071873+389980568+389436038+389406032
2578+389516142+389367270+388874709+388213296+387618443+387315798+387355981
2568+387463996+387297652+386823461+386263553+385816525+385570189+385495210
2558+385396847+385040998+384426017+383839882+383618052+383856195+384309508
2548+384561083+384339140+383694078+382893670+382218376+381831735+381727274
2538+381758590+381768280+381727424+381756196+381968373+382261216+382351984
2528+382111745+381717247+381398401+381237369+381207026+381152139+380813351
2518+380123653+379362007+378851112+378660934+378653564+378661683+378655360
2508+378779950+379105418+379415173+379450679+379223349+378882391+378462488
2498+377956981+377467002+377071718+376631424+375953661+375170539+374686172
2488+374677566+374926036+375189284+375398244+375456835+375206270+374669260
2478+374133747+373937620+374159301+374479606+374454613+373967739+373257351
2468+372554670+371966028+371651484+371785915+372296547+372840067+373082475
2458+372938729+372574799+372220558+371959592+371690246+371300088+370836223
2448+370461330+370255663+370113413+369867039+369495551+369153695+369000333
2438+369047587+369156987+369122529+368795751+368212609+367575852+367076781
2428+366786856+366706115+366788203+366902728+366911558+366824420+366758234
2418+366721942+366601318+366394640+366270536+366315247+366409980+366464418
2408+366593012+366909014+367248588+367289145+366959748+366575314+366468309
2398+366631735+366873770+367166276+367580866+367984156+368109756+367897055
2388+367443517+366670497+365395487+363673112+361667248+359252443+356154002
2378+352442263+348515428+344629562+340759858+336892288+333191324+329877937
2368+327102270+324969533+323547297+322757141+322483305+322959853+324731315
2358+328017016+332503946+338018276+344897524+353084332+361196536+367264938
2348+370117641+369929933+368046938+365991986+364106409+361622238+357919067
2338+353244840+348460616+344289539+340947904+338438328+336744838+335632244
2328+334737963+334002470+333680855+333906277+334473144+335125053+335918427
2318+337086619+338593000+340107874+341419962+342567202+343578327+344439870
2308+345325209+346494261+347882151+349051764+349660909+349804805+349827777
2298+349972459+350278734+350662232+351016061+351318894+351639872+351990034
2288+352249691+352305139+352190463+352052404+352008143+352048887+352084730
2278+352065836+351994748+351839703+351553782+351167964+350774251+350455480
2268+350283860+350300621+350441936+350571951+350630018+350680715+350794904
2258+350931766+350975504+350886158+350781771+350818999+350981976+351061894
2248+350903032+350613968+350461167+350588077+350894127+351162763+351254990
2238+351195575+351146712+351328060+351860954+352591247+353154709+353349227
2228+353356036+353466184+353717235+353958035+354148026+354393277+354724433
2218+355007398+355110962+355075268+355078935+355286922+355749776+356394652
2208+357057599+357554725+357818684+357996926+358317643+358812000+359279344
2198+359570279+359770821+360064524+360544664+361199081+361952982+362676653
2188+363233754+363593681+363878255+364229016+364631558+364955343+365179269
2178+365489771+366106736+367016693+367927286+368593862+369152535+369914293
2168+370892869+371869573+372872992+374199746+375954821+377907744+379865680
2158+381973199+384550233+387724064+391300550+394937910+398338623+401343640
2148+403984839+406414011+408747700+411068108+413477038+415978494+418446465
2138+420858687+423389551+426169296+429117406+432098741+435158570+438518539
2128+442275213+446151276+449702395+452725895+455216501+456977039+457650948
2118+457214247+456094993+454675862+452961831+450826288+448269272+445350382
2108+442182799+439034970+436162737+433544922+430961790+428263159+425443044
2098+422534818+419522355+416338758+412937185+409349662+405675936+402050437
2088+398598316+395379587+392420178+389797499+387600185+385804628+384262029
2078+382823630+381486886+380395207+379621439+379014688+378378904+377703274
2068+377082269+376543014+376081656+375727977+375457284+375147641+374708545
2058+374185192+373700637+373354890+373188321+373154760+373125427+373022201
2048+372931209+372983402+373176535+373408879+373635611+373954158+374589455
2038+375758320+377472352+379504556+381577542+383552801+385445935+387279206
2028+388914331+390087349+390616464+390469126+389703402+388522751+387240258
2018+385955296+384434734+382510883+380379568+378349197+376558429+375036782
2008+373791741+372749636+371783632+370853509+370026088+369328420+368618481
1998+367697337+366646851+365908215+365774159+365896317+365607066+364703993
1988+363597909+362767682+362349987+362160146+361928887+361542209+361113888
1978+360835113+360758825+360742923+360624058+360456029+360496100+360856327
1968+361216104+361043923+360170744+358985978+358018701+357523222+357460478
1958+357622445+357724362+357593000+357306068+357027779+356791619+356578507
1948+356522011+356897989+357785871+358670424+358685502+357637149+356360717
1938+355671430+355564275+355616394+355612615+355574602+355529667+355458916
1928+355430743+355703682+356460127+357416890+358108234+358524246+358825769
1918+358664812+357698172+356510487+356058221+356542215+357337347+357706702
1908+357411016+356760640+356194110+355880278+355745436+355720668+355831864
1898+356125417+356547378+356926424+357233709+357706253+358364748+358671023
1888+358162523+357130744+356201294+355714681+355700052+355970709+356206120
1878+356212107+356069932+356061962+356668675+358390676+361057616+363299154
1868+363448737+361493420+359056841+357436420+356768609+356601591+356559051
1858+356539109+356612404+356814218+357033953+357202804+357489287+358222386
1848+359759260+362172867+364536002+365056362+363284376+360973546+359707553
1838+359559878+359819497+360167639+361153734+363369606+366146096+367768162
1828+367681473+367005469+366363698+365361627+364072511+363265257+363280597
1818+363760699+364301488+364929115+365931898+367298910+368444466+368787819
1808+368540958+368518435+369379042+371256986+373706025+375824432+376901070
1798+377216961+377900037+379890187+382910020+385106960+384798440+382997682
1788+382039086+382820300+384665507+386739091+388832019+390794931+392280735
1778+393535129+395665209+399669343+405155388+409759275+411144920+409855730
1768+407885334+406580655+406910089+409249690+412458841+414729525+415928172
1758+417117391+418425999+419703927+421943408+426129450+431276071+434811139
1748+435640094+435196134+435251844+436614180+439196713+442089450+444170592
1738+445921028+449411797+455258480+460178894+460564263+458256876+456422444
1728+455945111+456869959+459066225+461988931+465558158+470851557+478716189
1718+487456358+492739093+492736287+490449814+488977517+489465365+492177053
1708+496985335+502816267+508073747+512925917+519241329+527059156+533093772
1698+535606078+536386918+536204036+535466036+536097929+539287661+544501367
1688+551273983+560427095+571642268+580066508+581884327+581073070+582187871
1678+586364447+592761310+599480013+605109692+610435304+616543814+622041570
1668+624784387+626189188+629502837+635568994+642151770+646803809+650213688
1658+655075324+663578060+676516730+690682070+697205207+696067283+696522243
1648+701241853+706368757+707586000+706443511+706726589+709772800+715479329
1638+723111430+729971372+731587602+727836952+723735204+722062628+722318618
1628+723121383+723776435+724172804+723450854+720727755+717477037+716076314
1618+716356474+715340372+711162373+705792200+701236915+697465761+693864245
1608+690401312+687475202+685141512+683038445+681059519+679559573+678762870
1598+678422099+678167531+677823841+677275196+676315964+674875956+673182278
1588+671482988+669887635+668578503+667735705+667356996+667758153+669842887
1578+673878786+677723870+678224326+676639973+677184428+681139062+685903719
1568+688529017+689834333+692218532+696829117+704739058+717614423+733838531
1558+744159835+745472559+746210447+750508246+757373351+765092853+772840116
1548+780745269+789603517+799817366+810693451+821141291+828907261+829775501
1538+825008599+821383512+821277479+822282207+821826200+821090931+822794336
1528+827368853+833413983+839898733+846488542+851708832+853716493+853887477
1518+854914055+856640283+857727323+858545278+860788200+865953491+874490574
1508+884198580+888599194+884152261+877504010+874265713+874946731+878315978
1498+882156349+883825109+883089391+882914964+885808823+891201445+895437136
1488+895052740+890994318+886912849+885154744+885680866+887111894+888686968
1478+891081419+894943639+899540755+903237977+904611986+903553082+901899886
1468+901976885+904581530+907917778+909032430+908119292+908508927+912077443
1458+916626967+917202327+913318855+909644007+908275610+908426615+908915323
1448+908805848+907698904+906231059+905361772+905377860+906329010+908514464
1438+911525954+913432670+912764822+910834460+909628966+909551892+909790522
1428+909704768+909732529+910611470+912345256+914635246+917363733+919519330
1418+919259075+916819053+914302257+912539063+910993172+909397071+908345351
1408+908464478+909236862+909048743+907197026+905093285+904226243+904365499
1398+904502661+904255800+903503919+901884846+899572632+897313472+895222153
1388+892490074+888788362+885612772+885082983+887720254+892142868+896611052
1378+900587013+904504008+908243957+910805576+911900398+912538315+913454146
1368+914669667+916527071+919424896+922642540+924745906+925154172+924421223
1358+923464460+923270878+924408502+926385333+928146581+929193139+929830232
1348+930550535+931564692+932975816+935225173+938706215+942539701+944735556
1338+944482933+943120074+942177230+942136223+943047116+944726501+946397506
1328+947227958+947249059+947162183+947544484+948443628+949413336+950044144
1318+950529410+951275754+952004064+951864133+950578498+948995192+948216972
1308+948518158+949409745+950469322+951471581+951853358+950983621+949173285
1298+947745474+947748692+948831916+949579606+948875541+946717999+943804010
1288+940820431+938227834+936130304+934181010+932084828+930008998+928027454
1278+925641608+922483453+919070805+916312686+914540437+913291094+911817039
1268+909720631+907235937+904903819+902932675+900965497+898561618+895684745
1258+892521652+889271083+886337714+884224096+883036038+882440474+882097832
1248+881780333+881306068+880730708+880366740+880440521+880998072+882164879
1238+884062092+886258770+887609582+887185526+885558072+884543915+885333061
1228+887432536+889722301+891912095+894410932+897208038+899534843+900709732
1218+901000442+901372716+902550150+904555041+906956152+909325834+911626973
1208+914183354+917026629+919529507+921137805+922103921+923070262+924313544
1198+925681642+927108405+928997461+931922973+935694051+939097495+941139876
1188+942051367+942611911+943304677+944512940+946600517+949289644+951584124
1178+952876793+953722360+954878542+956249258+957733640+960260463+964633241
1168+969995856+974476612+976807832+976723351+974705589+971962285+970052352
1158+970312008+973135453+977066591+979475933+979244786+977932811+977729201
1148+979419661+982281419+985000926+986945206+988603116+990536696+992774230
1138+995270972+997889162+999982351+1000898108+1000787061+1000639574+1001517167
1128+1003381680+1005069970+1006196295+1007942203+1010879239+1013649780
1120+1015120692+1016293710+1018638400+1022089360+1025561423+1027866228
1111+1027855378+1025435411+1022453553+1021183032+1022264535+1024566198
1103+1026206523+1025878697+1024521824+1024922309+1028468900+1033328890
1094+1036535159+1036747823+1034795312+1032814965+1032601029+1034672817
1085+1038981691+1045134649+1050713745+1052144623+1049894892+1049017747
1077+1052312689+1056983211+1059268187+1058945750+1058086714+1057994973
1068+1058707794+1059703018+1059809051+1058094271+1056047850+1057007381
1060+1062468920+1069707272+1073616410+1071860624+1067489791+1064979954
1051+1065392262+1067202074+1069453976+1071745013+1073336849+1073741823
1043+1072824645+1070708408+1068506866+1067555491+1067279672+1066438744
1034+1065863160+1066700795+1067513587+1065876180+1062158679+1059103115
1025+1058285833+1059109700+1060409403+1061668849+1062580415+1062611170
1017+1061458206+1059855295+1058958096+1058590761+1057236956+1054595271
1008+1052785608+1053307315+1054928409+1056018517+1056534313+1057025565
1000+1057601149+1057919246+1057107951+1054256894+1049661949+1044681336
991+1040361163+1037253442+1035595308+1035172151+1035672382+1036523411
983+1036409372+1034361379+1031077212+1027893840+1025268617+1023289766
974+1022326493+1021986022+1020454498+1016230106+1010300886+1005271559
965+1002419005+1000557411+997694531+993368297+988969778+985628143+982879452
955+980014551+977133488+974106583+970426571+966862095+965108704+965131003
945+964929414+963372224+961218198+959230218+957335849+955487799+954136314
935+953907711+954978439+956703395+957964562+958062513+957432453+957361216
925+958515901+959710096+958981337+955976956+952336005+949842780+948775570
915+948225876+947649394+947319399+947548899+948312378+949291889+949531491
905+947999145+945506518+944446117+945606190+947126041+947251828+946166809
895+944642693+942851214+940848941+938975449+937679412+937350240+937900756
885+938411688+937961068+936517693+934466183+932234560+930817600+931394755
875+933577440+935209384+935017822+934314281+934937007+936761785+938199174
865+938006639+935843036+932131296+928244083+925952597+925708580+925895203
855+924834503+923407665+924222702+928097194+932755744+935406409+935558985
845+934599529+933843756+933639324+933561352+933376150+933696718+934884028
835+935652746+934273499+931098208+928374510+927542413+928201506+929583596
825+931402987+933058053+933537931+932629956+931546583+932095004+934948082
815+938755602+941421008+942320302+942666910+943580646+944897037+945672863
805+944992668+942894989+940787357+940231303+941304350+942655611+942738746
795+940971885+938563741+937886614+940150937+943958981+946719645+947388915
785+947162407+947440023+948145959+948390126+947831154+946556144+944176584
776+940577612+937034088+935192623+935560033+937464130+939654148+940774786
766+940041238+937794724+935736479+936306152+940260711+944927791+946957601
756+946327466+945225910+944716549+944837173+945761909+946950492+947245617
746+946520600+945813466+946052171+947393629+949581402+952568423+956329250
736+959569343+959996691+957111886+953132334+950299760+949145524+949052661
726+948761651+946931785+943476484+939874295+937637882+937142964+937697895
716+938097033+937490694+936395348+936276595+937764867+939818322+940529272
706+938657352+934782261+931332572+930576726+932133018+933036876+930161500
696+922799755+913949214+908484907+908496131+910804154+910916398+908827174
686+908090483+910342310+913475098+914299488+911828263+907477784+902604401
676+897290050+891255172+884697464+877741517+870931411+867301385+869545729
666+874065022+876954242+878596961+879753292+879027901+875555764+871634354
656+869633728+868403016+865186944+859705650+854370497+851380259+851067474
646+852665894+855555638+859277030+862799153+864708712+864511014+863062775
636+861071054+857862165+853006216+849079943+849557950+852976509+853367116
626+849012597+844941379+844653063+845734566+844835721+841960718+837456765
616+829827133+819663943+811583092+809624745+812752968+816136956+816457524
606+815386273+817297254+823384288+829217876+829829977
##END=
