##TITLE=<SNM>
##JCAMP-DX=4.24
##DATA TYPE=INFRARED SPECTRUM
##DATE=3/5/2025
##SAMPLING PROCEDURE=Instrument type and / or accessory
##ORIGIN=Admin
##XUNITS=1/CM
##YUNITS=ABSORBANCE
##RESOLUTION=4
##FIRSTX=4497.3318
##LASTX=599.83466
##DELTAX=-1.4281778
##MAXY=1.7777481
##MINY=0.21866319
##XFACTOR=1
##YFACTOR=1.6556569e-09
##NPOINTS=2730
##FIRSTY=0.23765643
##XYDATA=(X++(Y..Y))
4497+143542072+143757140+144269654+144523935+144450791+144214807+143807343
4487+143274129+142963237+143226518+144048970+144998981+145398155+144821777
4477+143671684+142928559+143134816+143927720+144617752+144820364+144486557
4467+143757032+142999129+142695023+143081661+143981478+144908151+145363559
4457+145300162+145203734+145358447+145267518+144386314+143143015+142435963
4447+142323452+142093831+141501765+141048941+141012319+140980207+140677631
4437+140607655+141224246+142013703+142164041+141750026+141503754+141677223
4427+141788060+141413186+140776065+140420046+140470627+140481769+140078428
4417+139450685+139019542+138934590+139143195+139616486+140219757+140614261
4407+140508293+139851624+138806121+137773084+137267762+137474315+138048714
4397+138495679+138577734+138363215+138137257+138195290+138561587+139023664
4387+139343727+139225933+138409881+137136639+136110342+135675581+135430957
4377+134942132+134402663+134231336+134399432+134597696+134791118+135125339
4367+135524910+135847862+136165801+136468269+136375406+135563205+134288352
4357+133217910+132871053+133308056+134187541+135064237+135712824+136169275
4347+136431522+136234392+135339399+134072618+133262209+133394250+134067254
4337+134540113+134545207+134262819+133868837+133518758+133494233+133977991
4327+134765171+135320624+135100328+134039912+132885409+132590672+133168760
4317+133657874+133367286+132604541+132070346+132084053+132529687+133148285
4307+133723782+134164420+134514184+134884477+135354231+135861875+136142527
4297+135875448+135077143+134252513+133865372+133784965+133652824+133571076
4287+133850423+134308836+134425271+134091960+133748487+133835239+134403446
4277+135139109+135587848+135487217+135010110+134611646+134607335+135002190
4267+135647807+136312693+136636383+136322971+135448039+134475411+133970728
4257+134286237+135425224+137022022+138404373+138943482+138638314+138169739
4247+138061233+138134341+138143107+138312355+138732986+138917327+138506731
4237+137814350+137294177+137010240+136832686+136749704+136868308+137263883
4227+137831963+138337097+138648682+138754884+138612879+138308323+138249255
4217+138764352+139572169+140038476+139958627+139760929+139874754+140172956
4207+140221818+139968761+139874565+140259952+140820436+140977795+140540909
4197+139863666+139414955+139362052+139602140+140006885+140420739+140553357
4187+140242977+139765429+139553269+139696560+139949510+140083198+140056260
4177+139985663+140073838+140450971+141073376+141852420+142738638+143505271
4167+143664790+142949188+141801911+141041741+141034379+141473343+141877630
4157+141943052+141530035+140802247+140290723+140332151+140636095+140843548
4147+141130383+141728830+142332704+142569336+142591954+142698767+142822708
4137+142758978+142540293+142349760+142304705+142457032+142842437+143413577
4127+143931914+144014067+143442567+142494824+141841197+141974426+142713123
4117+143355940+143407610+143038640+142711701+142529736+142236529+141767963
4107+141450447+141591155+142148453+142912548+143717710+144286646+144238675
4097+143569532+142825292+142528683+142708011+143095881+143417033+143442918
4087+143197556+143105376+143483788+143971029+143955566+143502706+143324053
4077+143823948+144613000+145014875+144755446+144093890+143459613+143045165
4067+142732383+142355403+141908779+141481524+141119646+140819950+140601327
4057+140524295+140603649+140751819+140920239+141217847+141698959+142158398
4047+142412527+142587355+142776925+142686428+142069594+141255188+140798638
4037+140853845+141211691+141652050+141983507+142081447+142090825+142272457
4027+142631779+143028659+143498215+144062614+144484496+144641990+144800680
4017+145132084+145347233+145153999+144693120+144230332+143767175+143249649
4007+142916319+143138128+143965989+145027646+145858288+146241812+146285498
3997+146209321+146039596+145617984+145027079+144724143+144994418+145609866
3987+146264420+146869644+147237417+147084613+146554486+146252540+146638097
3977+147614289+148656786+149230635+149194302+148833153+148459620+148130637
3967+147921276+148258079+149475602+150984864+151584184+150932294+149929191
3957+149384700+149272423+149420908+150054437+151392588+153058102+154089664
3947+153909084+153190765+152952639+153058300+152630163+151661819+151023258
3937+151285019+152539748+154670101+156948687+157979150+157125000+155642063
3927+155320362+156465721+157775099+158151917+158086738+158612383+159661260
3917+160028863+158809414+156542870+154546547+153569905+153613988+154860490
3907+158136329+163889423+170709485+175681978+177058119+175177987+170815561
3897+165265726+161134963+160711956+163598070+166322722+166124214+165074113
3887+166450326+169579930+171440387+172081378+173348851+173692243+170856313
3878+167365677+167025183+170004809+174429283+179210703+182887498+183280265
3868+181563468+181130129+182013026+181018599+176983742+172658071+171146298
3858+174035886+181944678+193054410+199133291+193137121+181770795+173142747
3848+169586086+170744927+175141465+180870798+186756105+192367644+196339231
3838+196480425+193091544+189080987+186013898+183434113+181111192+179753412
3828+179551610+180164053+182577947+188303158+195383343+198462420+196808120
3818+194488188+191826033+186631273+180612728+177538835+178886715+183721272
3808+189137148+192305273+194446391+198394721+202578981+202784652+199987387
3798+198060833+197103505+195564264+194140350+194509122+196889464+200586833
3788+205277190+210730813+216231435+221588090+227982445+236317988+245487881
3778+253969370+262341670+272326599+284855114+299448911+313610666+323930310
3768+329708550+332679788+333888868+334442125+336266420+339807367+343350654
3758+345990326+349858807+358036523+371734824+388731931+403317143+412421731
3748+420254921+431381267+444661025+453508280+456580356+460524365+470193551
3738+485927973+504302104+520045923+530138907+535638467+539463711+544404289
3728+552282589+562471407+571675968+577476277+580003663+579032799+574125953
3718+567556204+563598478+565185060+571051322+574525416+569379310+558499676
3708+548642208+543230058+543045555+546916843+551178630+552465004+551476643
3698+550948478+552655195+557836257+567184785+579037623+588408364+589940189
3688+584395989+577933269+574537440+574675970+577426884+581887971+588336398
3678+596857921+603135849+601100771+594669300+591972603+591888542+587353690
3668+577669924+568779684+564109758+562744363+562082924+560900449+559972137
3658+559698496+559467157+560346363+564870019+573433302+582410447+585210898
3648+579240379+569971556+563466751+561263803+561527003+561667513+560677389
3638+559741409+560433377+563043672+567482186+574565053+583980002+590477282
3628+588015813+580223843+575030756+575909243+582010301+589320259+592944943
3618+592589185+592802597+595790287+598963416+599762593+599760469+601379776
3608+603452475+603561628+602495219+602863253+605312014+608491875+611848499
3598+616208532+621017348+623612919+623018045+622124438+624068759+627910239
3588+629096171+625304011+619937618+617195812+617878455+620135189+621905483
3578+622896291+624049462+625507343+626669010+628037609+631014067+635224337
3568+637208042+633757960+626654250+620603701+617971697+617784638+618088555
3558+618185469+618641596+619841208+620991427+620743887+619022194+617235989
3548+616330358+615758812+614573672+612715825+610884619+609828001+609788616
3538+610180015+610109094+609266968+608014075+606627980+604673219+601617164
3528+598273428+596451906+596697502+597664406+597947371+597161766+595417861
3518+593393043+592374766+592991816+594654216+596507887+597710055+597102401
3508+594401060+591305836+589775666+589811199+589903397+588854051+586566357
3498+584021258+582700144+582640347+581894271+579393345+576644447+574956775
3488+573338116+570920136+569128314+569579077+571657932+573366377+573525787
3478+572410021+570870059+569520432+568495999+567615209+566573603+565280102
3468+564481464+565171956+567010614+568164038+566973822+563617846+559787598
3458+556893474+555156229+554363891+554717417+556203450+557828517+558359958
3448+557606070+556360665+555187009+553855707+552020648+549943414+548168764
3438+546828606+545836465+545302000+545117461+544828844+544466642+544735963
3428+545746500+546339430+545494099+543710162+541971945+540155318+537709473
3418+535096766+533171022+531991426+531421393+531735498+532812636+533684174
3408+533418094+532053671+530401460+529120162+528200023+527361173+526709130
3398+526544103+526718382+526804928+526710138+526594216+526367592+525722029
3388+524635711+523608794+523171495+523103022+522583965+521318796+519910524
3378+518978865+518639307+518975121+520240398+522186554+523681659+523676763
3368+522421854+521062400+520236366+519720261+519233425+518984049+519338619
3358+520252458+521175838+521445338+520742750+519341715+517962172+517121234
3348+516606389+515911938+515010375+514258034+513828079+513643360+513465913
3338+512843967+511559105+510239395+509964602+511163674+513083623+514271102
3328+513744342+511927535+510145397+509149693+508609972+508025214+507544786
3318+507642492+508282510+508740978+508401204+507582731+507094491+507038762
3308+506808358+506268061+506044893+506514449+507284142+507772598+507736669
3298+507236405+506460952+505567885+504644866+503810948+503165529+502715594
3288+502589339+503156601+504556808+506231988+507259913+507135639+506188715
3278+505282256+505142106+505975628+507384835+508525730+508788715+508365420
3268+507761978+507033038+505956296+504513968+502774418+500865271+499256152
3258+498398437+498086276+497747079+497204658+496714437+496494150+496590559
3248+496952941+497308339+497103892+495977073+494373246+493240199+492959035
3238+493044248+493002631+492882677+492805204+492620449+492169866+491379832
3228+490210389+488906411+487987280+487572085+487140870+486342808+485507882
3218+485035698+484861060+484692397+484253009+483337334+482026948+480622313
3208+479186249+477561794+475877506+474657373+474414045+475166782+476137178
3198+476146178+474725990+472507381+470294208+468419945+467133176+466731949
3188+467025750+467315015+467128784+466542010+465715220+464659862+463619697
3178+463067376+462960922+462558147+461391908+459814578+458146706+456109072
3168+453706428+451853909+451374633+451883969+452225759+451714730+450470406
3158+448804550+447021692+445675990+445149229+444838328+443646348+441526308
3148+439610716+438701557+438555035+438649968+438707929+438370964+437334038
3138+435986428+435075901+434641733+434061116+433141300+432289994+431666644
3128+431033681+430288505+429544588+428916342+428434762+427829160+426644920
3118+425118675+424316941+424709636+425274233+424748480+423240415+421895613
3108+421388904+421349088+421050859+420222665+419142215+418270676+417889790
3098+417859153+417705503+417133633+416400733+416061247+416431622+417254055
3088+417733583+417104113+415401680+413578034+412691591+412923903+413323006
3078+412711535+411057848+409510326+408861487+408684112+408285262+407722716
3068+407405011+407321886+407126906+406615734+405835385+404946098+404090832
3058+403252774+402287958+401234004+400381006+399811908+399131281+398004174
3048+396746097+395960960+395769401+395750068+395484168+394871294+394036908
3038+393168177+392431965+391904376+391448897+390747749+389672483+388521724
3028+387639385+386994938+386389768+385793238+385213233+384514821+383593458
3018+382548972+381636429+381144445+381165469+381348964+381088860+380144924
3008+378930804+378023301+377533476+377141790+376586553+375853580+375011130
2998+374101107+373136795+372145915+371291584+370829157+370763383+370738687
2988+370452698+369982350+369562079+369207509+368685465+367812018+366695208
2978+365638050+364840097+364270171+363785711+363281019+362741838+362189336
2968+361594534+360924599+360263988+359765272+359424994+358968363+358082460
2958+356870212+355923108+355685216+355881311+355910688+355632079+355283449
2948+354767884+353672242+352126556+351011834+350915100+351316075+351313699
2938+350800870+350297438+349939088+349337914+348322481+347243363+346525475
2928+346201578+345913285+345320031+344461633+343599274+342776336+341830061
2918+340834716+340137420+339877388+339798943+339624520+339327479+338983313
2908+338665860+338545294+338761585+339097903+339078787+338510373+337649599
2898+336791453+335995443+335199830+334288079+333132999+331867614+330942363
2888+330648130+330778956+330946647+330977427+330841201+330436662+329663550
2878+328659673+327814235+327424204+327373695+327288230+326990181+326640795
2868+326435700+326332846+326135167+325751184+325285516+324877882+324531988
2858+324128241+323569800+322950590+322554799+322531075+322591880+322288574
2848+321578427+320830154+320303861+319927799+319541261+319087761+318545340
2838+317852832+317015998+316213257+315661008+315380527+315203224+314956692
2828+314516369+313809245+312971151+312361949+312192854+312251247+312167978
2818+311802895+311252878+310686373+310249002+309929316+309515813+308857578
2808+308059445+307305484+306691530+306281123+306064652+305861824+305510314
2798+305080179+304694469+304268906+303610275+302674439+301632276+300757047
2788+300233508+299973728+299668407+299110218+298392006+297718830+297164385
2778+296716916+296364326+295972027+295294784+294304137+293290451+292494279
2768+291881207+291372969+291021279+290847036+290732680+290534227+290144556
2758+289465675+288520731+287605200+287091057+286971013+286795834+286226125
2748+285451500+284845484+284418660+283889524+283144887+282366338+281745598
2738+281261084+280783734+280301110+279891693+279501626+278949611+278200745
2728+277449430+276874987+276462402+276102108+275761398+275490673+275266300
2718+274917076+274309566+273528821+272749804+272040196+271432524+271042097
2708+270926481+270908697+270706482+270228088+269638884+269131581+268728951
2698+268337030+267884017+267363376+266839225+266425596+266150192+265868505
2688+265451168+265001862+264741056+264717602+264738968+264550307+264026336
2678+263256859+262510405+262046879+261888044+261816115+261637894+261366054
2668+261107173+260907244+260762864+260650254+260475237+260101281+259484662
2658+258735400+258050056+257602983+257426292+257350853+257145001+256749427
2648+256284389+255827379+255340777+254854967+254547054+254516849+254599615
2638+254537406+254278669+253974086+253722946+253485360+253221584+252948231
2628+252645322+252249136+251770274+251346043+251148651+251225927+251432570
2618+251547070+251440922+251108997+250631611+250156979+249802715+249540072
2608+249294260+249119063+249115067+249230809+249336093+249433655+249585991
2598+249677793+249516402+249171030+248925992+248853019+248720915+248404361
2588+248111389+248086674+248274075+248397629+248301724+248091750+247925625
2578+247809344+247681703+247545279+247400719+247205541+246997332+246909149
2568+246979728+247073185+247075597+247101014+247385886+247947478+248476273
2558+248674492+248580908+248415360+248236275+247958782+247618702+247341750
2548+247061485+246578375+245951767+245505359+245387565+245437678+245469286
2538+245375271+245063416+244600412+244266146+244221218+244301301+244279305
2528+244121244+243891614+243613708+243325433+243131767+243091789+243107791
2518+243013740+242772085+242527047+242453588+242587618+242812190+242990753
2508+243060810+242987513+242724151+242305212+241909241+241730210+241790511
2498+241930877+242010277+242054918+242123931+242128845+241965042+241716296
2488+241524935+241367828+241125940+240752002+240287360+239839261+239537647
2478+239406785+239338906+239235332+239070594+238825718+238464506+237969101
2468+237391292+236903034+236698442+236747817+236756961+236467012+235922341
2458+235416209+235224110+235348402+235493862+235370812+235005910+234646642
2448+234435030+234324941+234239889+234146036+234013517+233827520+233613659
2438+233399347+233199634+233049349+232964118+232866880+232669633+232442991
2428+232371260+232498954+232650463+232659067+232555277+232485598+232552937
2418+232748132+232944821+232996410+232913141+232855522+232897319+232940231
2408+232913303+232890731+232944749+233024959+233058493+233091722+233262221
2398+233629265+234067428+234389238+234584289+234871286+235506804+236639851
2388+238391982+240965107+244568155+249283838+255086901+261954106+269872582
2378+278756270+288431935+298691999+309285373+319868542+330004835+339237945
2368+347232419+353811097+358726295+361497081+361743433+359671346+355949676
2358+351007694+344720441+336979916+328504582+321020957+316375872+315522946
2348+318579865+325147706+333827667+341885718+346879649+348566565+348335369
2338+347451446+346286647+344801622+343033057+340926338+338285585+335133553
2328+331698772+328011698+323943918+319607322+315318102+311178861+307019928
2318+302725632+298355213+294019949+289843177+285953222+282374114+278970780
2308+275567625+272120657+268750803+265568602+262511413+259466068+256505361
2298+253850172+251632931+249811481+248241999+246755822+245255623+243799633
2288+242522763+241465642+240551424+239715850+238965022+238308821+237734233
2278+237257657+236912268+236656645+236375607+236018355+235670823+235407785
2268+235125900+234675244+234157052+233874141+233912014+233986013+233817278
2258+233471996+233198356+233075378+232975656+232792089+232548833+232311247
2248+232120822+232010156+231973579+231943861+231872508+231782776+231705987
2238+231635606+231570427+231558510+231685106+232000454+232448751+232910333
2228+233314692+233663483+233973287+234258897+234558890+234935691+235428647
2218+236008851+236624497+237313800+238201305+239332066+240569425+241717988
2208+242729443+243730781+244846116+246073737+247354908+248643315+249871746
2198+250975758+251996087+253065953+254260039+255506866+256682988+257758884
2188+258775883+259711610+260498817+261144146+261693731+262143145+262482918
2178+262750493+262994847+263231947+263396362+263348211+263016645+262478742
2168+261827743+261067609+260191534+259261009+258343767+257411622+256394875
2158+255338311+254365737+253502263+252700025+251971571+251381107+251035987
2148+251045942+251393941+252193857+254118233+257913182+263461865+270005226
2138+277113545+284752566+292726897+300718346+308635275+316640188+325012884
2128+333928397+343261228+352744867+362231529+371657710+380909793+389734692
2118+397729273+404576912+410215542+414663020+418012444+420677100+423323469
2108+426628576+431182580+437263729+444504026+451898441+458300032+463048764
2098+466097906+467607484+467814379+467104411+465591486+462868221+458475067
2088+452130033+443598287+432859956+420107535+405578124+389851010+373874339
2078+358426194+344033909+331136046+319843450+310011578+301658646+294802422
2068+289169894+284465839+280494145+277002465+273893507+271291851+269162164
2058+267339993+265829138+264641172+263741787+263319482+263613067+264639444
2048+266457745+269310198+273427767+279089240+286622347+296128720+307619230
2038+321263529+336940747+353822437+370703478+386382676+399925274+411123693
2028+420406088+428154497+434481351+439345356+442639879+444485810+445123452
2018+444293243+441429935+436544545+430224244+422919578+414716265+405565380
2008+395506200+384763081+373682096+362605863+351806475+341449930+331613054
1998+322438121+314294245+307579053+302143646+297126765+291775941+286238545
1988+281130420+276793877+273304213+270613456+268443466+266474215+264685795
1978+263234287+262123056+261165836+260161546+259149209+258500064+258454505
1968+258580219+258138654+257040924+255926057+255264420+254909184+254573910
1958+254301962+254272657+254443588+254603053+254641214+254653562+254820533
1948+255290232+256245436+257810976+259483420+260035670+258848586+256901853
1938+255577121+255223685+255340741+255450363+255454863+255496786+255713725
1928+256216546+257276836+259023117+260851371+262006324+262781435+263831609
1918+264561305+263867574+262261515+261435499+262164169+263739339+264941921
1908+265175007+264802203+264534341+264666265+265020655+265414429+265938544
1898+266783640+267816047+268542324+268896623+269608247+270976468+271910054
1888+271294245+269650872+268214844+267440039+267160116+267190465+267351586
1878+267476994+267541993+267687183+268433728+270673163+274592981+278371586
1868+279112982+276303441+272486279+269991276+269175268+269235803+269397572
1858+269376385+269299992+269383730+269660556+270138230+271036193+272695497
1848+275491159+279481088+283266281+284055252+281178066+277517903+275608809
1838+275470459+275847961+276206131+277526813+280920572+285420773+288153075
1828+287998614+286790740+285741575+284239845+282196577+280724657+280434888
1818+280815756+281252084+281950459+283569154+286010499+288006858+288422593
1808+287650668+287078889+287838430+290294697+293758692+296528705+297282629
1798+296751728+297158391+300106876+304967461+308394539+307276504+303246525
1788+300383289+300342950+302017212+303947132+305818156+307500860+308472372
1778+309127547+311224330+316230897+323343644+328770375+329081816+325549221
1768+321392016+318459911+318007563+320568466+324362569+326450640+326652639
1758+326944424+327814127+329027347+331917043+337847242+345223909+349975269
1748+350367639+348680111+347595773+348175418+350267917+352837784+354569881
1738+356061710+359969323+366940768+372072041+370256639+364488803+359218783
1728+355512809+353647870+353805768+355371831+358258359+364002399+373672232
1718+384343998+389095393+385384919+378309145+372753677+370523367+371985928
1708+376674898+382687502+387595284+391765954+398051839+406628334+412694039
1698+413261481+410242686+404548831+397837059+394031328+394767180+398626624
1688+404564708+413810490+425830910+432946681+429350725+421703730+417280192
1678+417983211+422506759+427612364+431102622+434532904+439298519+442409079
1668+440649334+437300378+437452408+441554353+445849765+447325933+447731840
1658+450949898+459747940+475048808+492185202+498431162+494363922+493437591
1648+498697134+503551671+501646988+496506498+494319893+496981094+504437106
1638+516217835+529191839+535838162+533295620+529112386+529693004+535485356
1628+543696553+552011108+560549155+569340573+576665760+582530977+590043763
1618+600853015+611250313+615842693+616193699+617162547+620093572+623539046
1608+626068016+627702731+629404192+631876425+635139807+639124354+644162350
1598+650525528+657854531+665338119+672319212+678724295+684873773+690788024
1588+695922430+699864064+703035573+706317819+710246853+715167631+721862375
1578+730731483+739554798+744539801+747028235+752362012+762666104+775005886
1568+784819001+792149876+800484951+811961150+827552867+848836638+874111868
1558+891236849+894327789+893252451+892885029+892279715+890510357+887469170
1548+884161867+883112378+886230246+892968478+900264720+901528125+890640967
1538+874527458+863835568+859251612+856051014+850774334+845113240+842532212
1528+843607118+846459734+849704900+853489715+856904444+857635905+855976637
1518+854134846+852125797+849264397+846854661+847059792+851349408+860157819
1508+870547376+872838094+861629019+847891046+840426609+839283302+841576037
1498+843568094+842117774+837914487+835239499+837018792+842103013+845875732
1488+844503749+839165796+833494406+829787640+828546627+829330720+831819370
1478+836174506+842291152+849002240+853585549+852484075+845882356+839140164
1468+836410742+837302405+838317838+837125354+836278476+839921233+848858742
1458+858083104+858213930+848572321+838545578+832954757+831267697+831163151
1448+829751927+825753268+821031862+818139645+817797856+819600766+823152441
1438+827051954+827952977+824380350+820017149+818377969+818913802+819023244
1428+817799440+816614444+816197341+816106403+817010019+820310626+824261188
1418+823629593+817257559+810041814+805641029+803905656+803111627+802435031
1408+802369510+803078434+803383071+802436039+801566409+802607258+805431865
1398+808372754+810110647+809790602+806857057+802793453+800578768+801253492
1388+802648299+802047521+800122425+800156769+803871167+810197121+817100812
1378+823454990+829021403+833188545+834951638+834708346+834561103+835973335
1368+838589499+841582517+844698081+847310212+848009056+846481334+844436140
1358+843514237+843691936+843927740+843475644+842474396+841477971+840744567
1348+840227166+840027003+840549515+842292808+845538911+849838030+853705503
1338+855615911+855572350+854871130+854562965+854941908+856143752+858498839
1328+862108187+866347546+870227835+873357871+876282416+879833227+884287869
1318+889055069+893284347+896968793+900886090+905135169+908762734+911387250
1308+913929828+917315252+921543379+925998093+929755908+931810246+931992265
1298+931519002+931723485+932462865+932467617+931050130+928738963+926306691
1288+923983644+921657789+919192612+916520431+913857467+911769216+910727287
1278+910575076+910606181+910311552+909992658+910421497+911971467+914360251
1268+916989951+919174972+920517074+921370576+922322216+923319217+924151047
1258+925306954+927265027+929535440+931320350+932329879+932350687+931076770
1248+928778132+926426429+924958108+924484052+924203103+923411882+922349505
1238+921342928+919799006+917023864+913407819+909889697+906822013+904049967
1228+901584790+899807440+899088004+899112197+898990227+898429049+898242926
1218+899243095+901226584+903343635+904916214+905733715+906048000+906578289
1208+908093123+910563124+912985172+914565959+915818996+917778364+920510594
1198+923219135+925508269+927802372+930623523+933825704+936557214+938119496
1188+938914101+940121705+942277997+944639420+946323457+947597878+949530390
1178+952573089+955801911+957690502+957810096+957450594+958173342+960239705
1168+962644185+964279188+965031025+965990081+968428113+972246985+975621610
1158+976592762+975131569+973314691+973423053+976218571+980792880+985511767
1148+988986329+990665253+990853392+990157860+989419992+989904632+992359729
1138+995779066+998149201+998826157+999148434+1000279933+1001871448+1003244079
1128+1004414386+1005758000+1007853739+1011174651+1014809992+1016857418
1120+1017232112+1017933764+1019750354+1021505167+1023026625+1025662877
1111+1029282161+1031871108+1032524015+1032418461+1032968551+1034694419
1103+1037141380+1039073316+1039502156+1038097988+1034577993+1029403987
1094+1024975193+1024130187+1027377297+1033137609+1040019700+1046965944
1085+1052093510+1053861283+1053094830+1052228296+1052980421+1055279347
1077+1057522112+1057812781+1056245747+1055623945+1058252061+1062309328
1068+1063521972+1061028787+1058826126+1060407920+1064737641+1068133865
1060+1068460607+1066753386+1065365419+1065508558+1066763251+1068467879
1051+1070583058+1072722286+1073741823+1073210886+1072277103+1072224110
1043+1072447889+1070883519+1067192234+1064143487+1064129375+1066346652
1034+1068674234+1070165235+1070705892+1069865998+1067583488+1065314442
1025+1064915412+1066800187+1069353422+1070200732+1068615121+1066151744
1017+1064181359+1061922610+1058648499+1056091592+1056873958+1061088908
1008+1065489189+1066739634+1065053942+1063511388+1064070766+1065526774
1000+1065401852+1062980379+1059719733+1057329077+1056348421+1055788611
991+1054206385+1051684327+1049693494+1049067515+1049495994+1050365841
983+1050542604+1048648180+1045130490+1042046246+1039880810+1037049795
974+1033042856+1029457700+1026974091+1023870767+1019038406+1014181997
965+1011310013+1009944942+1008505422+1007185280+1007170088+1007802331
957+1006748233+1003097340+998577537+994704160+990927049+986978215+984155912
947+982566629+980039315+975706571+972020613+971307802+972498125+972764242
937+971265609+969719671+969460683+969742495+969645798+969578477+969745015
927+969297312+968072716+967095731+966677044+966109459+965718780+967112940
917+970490588+973307923+973107040+970713144+968440426+966651772+964564385
907+962342428+960491133+959040885+958366810+959222184+961356803+963331580
897+963645578+961614712+958153974+955689373+955965065+958019548+959335874
887+958635662+956386345+953264300+949811051+947033820+946019180+947130086
877+949842587+952862174+954601075+954458584+953354590+952504976+952182266
867+951740323+950387996+948196208+946421594+946041428+946373929+946183702
857+945381537+944670093+944318295+944253638+944883361+946768784+949585399
847+952077073+952909551+951366421+947929659+944584556+943437936+944237294
837+944655765+943500505+941715812+940454423+940198314+941142826+942881943
827+944373448+944865000+944219725+942965897+942458360+944063267+948024773
817+953157523+957479899+959661103+959869763+958479707+955336495+951300396
807+948447060+947701560+947711784+947048365+946405322+947527965+950788395
797+954920904+958567189+961233537+963542112+966420288+969183478+969867490
787+967890337+964820061+962457702+961440181+961854404+963513599+965259557
777+965295197+962763419+958598653+954930192+953648427+955397120+959727560
767+965104682+968829520+968844064+965908791+962676514+961342187+962362948
757+963812764+962668305+958742368+955526146+955745606+957879793+958348809
747+956151909+953662179+953635467+956586580+960360235+962394773+962812452
737+963971095+966816727+970184511+973508518+976859166+978882760+977915856
727+974005975+968822536+964839502+963954607+965659811+967521978+968044995
717+967217341+965391175+963580489+962775443+962606096+962427173+962357044
707+961699673+958867074+954116003+950052543+948852571+950256522+951793316
697+951084320+948771425+947188839+946836249+946528516+945849041+945209886
687+943736669+939594296+933318240+927823324+924565629+922919970+922749975
677+924727200+927866237+929423767+927382100+920408784+907877551+894673251
667+890129183+894233755+899820113+903621560+905395094+905951735+907185259
657+909396920+909877600+907477080+905901334+908052514+910057243+906153410
647+897881408+890640247+885575251+880547047+875208590+872025273+873364927
637+879264129+887081804+892211026+891347155+886136572+879782322+873426920
627+868056134+864766400+862333335+859063328+857084735+860192811+868154632
617+875445042+875603372+868268106+860370582+859061168+864561124+870817093
607+874200717+876694407+877844914+872029377+858550104+845949246
##END=
