##TITLE=<SNM>
##JCAMP-DX=4.24
##DATA TYPE=INFRARED SPECTRUM
##DATE=2/5/2025
##SAMPLING PROCEDURE=Instrument type and / or accessory
##ORIGIN=Admin
##XUNITS=1/CM
##YUNITS=ABSORBANCE
##RESOLUTION=4
##FIRSTX=4497.3318
##LASTX=599.83466
##DELTAX=-1.4281778
##MAXY=1.7226996
##MINY=0.19723251
##XFACTOR=1
##YFACTOR=1.6043891e-09
##NPOINTS=2730
##FIRSTY=0.2176713
##XYDATA=(X++(Y..Y))
4497+135672394+135999434+136321161+135930166+135060470+134542177+134798742
4487+135414278+135796376+136023034+136616484+137628551+138469259+138657671
4477+138319225+137863308+137542110+137454053+137569490+137545296+136952032
4467+135938060+135281565+135555767+136513074+137439443+137904416+137959529
4457+137696918+137006495+135969676+135037372+134503317+134189447+133915114
4447+133932027+134557028+135504898+135943206+135388709+134337763+133728579
4437+133971565+134762742+135539495+135795735+135271562+134202765+133218292
4427+132777932+132798811+132909372+132906586+132823841+132701949+132502169
4417+132242317+132127873+132475393+133346426+134170398+133988553+132374602
4407+130008428+128167113+127729512+128686363+130361669+131822566+132274304
4397+131530792+130096466+128587467+127342983+126687352+126912459+127717075
4387+128286535+128199806+127701425+127065976+126398819+125993306+126143480
4377+126647907+127052072+127187423+127028881+126483737+125837913+125817573
4367+126648529+127607313+127905858+127454446+126570865+125605784+124913327
4357+124692529+124973382+125834161+127100815+127929049+127587901+126593221
4347+126083908+126219370+126192956+125717897+125446862+125777896+126206813
4337+126180863+125895218+125878956+126251877+126702417+126922258+126819674
4327+126425530+125778100+124991688+124382774+124278900+124537313+124521440
4317+123889966+123132327+122933096+123334884+123930507+124538288+125202250
4307+125733862+125749856+125208222+124651645+124765587+125679826+126804860
4297+127395180+127205413+126627715+126322288+126632266+127222865+127441889
4287+127059428+126416215+125925218+125725206+125719178+125733556+125726850
4277+125905537+126441282+127093357+127445919+127456721+127377023+127241942
4267+126893558+126433462+126195371+126265948+126416038+126549680+126828442
4257+127234660+127447238+127350061+127244320+127375212+127689918+128131727
4247+128648673+128917535+128652361+128183692+128235740+129093427+130250680
4237+130885646+130635685+129873142+129159147+128638838+128232248+128112928
4227+128544994+129361276+129987372+130036616+129702601+129429922+129305568
4217+129096129+128882130+129099324+129812958+130520480+130865863+131018238
4207+131218110+131458617+131673990+131808412+131723095+131395850+131093432
4197+131058138+131191993+131296722+131449282+131896989+132655807+133344717
4187+133428381+132685881+131531999+130744807+130724485+131169758+131617883
4177+132059320+132769796+133802389+134955333+135972769+136576509+136612156
4167+136277007+135886801+135470775+134932708+134452225+134360926+134735483
4157+135339521+135867687+136115670+135984508+135455525+134657196+133939597
4147+133713422+134087458+134739198+135238377+135415448+135327920+135077820
4137+134876164+135058288+135707817+136428769+136778555+136734800+136511634
4127+136211854+135844709+135391161+134786472+134093709+133597473+133499887
4117+133733836+134206685+134880808+135543043+135887888+135908813+135924222
4107+136178446+136521247+136537306+136144267+135921268+136415339+137301362
4097+137748447+137483114+136975102+136699405+136671653+136631158+136443277
4087+136322954+136625279+137394491+138257295+138762446+138716945+138295133
4077+137903933+137803709+137880676+137890726+137729630+137396896+137030290
4067+137024160+137632610+138394326+138525404+137953669+137378618+137292465
4057+137514618+137651037+137482873+136922543+136031068+135159812+134838242
4047+135393390+136625279+137884651+138616470+138765325+138543868+138094638
4037+137568896+137263961+137423357+137974808+138559611+138822547+138706013
4027+138460269+138418353+138797711+139519007+140132361+140203663+139847812
4017+139589659+139675710+139829497+139667221+139099043+138381416+137975402
4007+138260007+139162376+140104804+140522270+140449500+140388842+140622605
3997+140974973+141219064+141323552+141284803+141112794+141021588+141284915
3987+141843786+142308127+142397252+142197009+141965140+141897274+142125530
3977+142688600+143386843+143825021+143730694+143238193+142796124+142710825
3967+142902376+143278102+144009392+145041874+145768826+145772810+145430408
3957+145256653+145239080+145280829+145732863+146911757+148290393+148774267
3947+148115097+147469468+147931803+149064054+149461383+148529246+147062572
3937+146298014+147036380+149249400+151916953+153438081+152973062+151447986
3927+150516258+150786030+151544161+152108624+152849275+154310006+155965101
3917+156413644+154780783+151754222+148985619+147704950+148161331+150223843
3907+154014971+159393785+164985455+168724052+169740466+168366232+164860869
3897+160146817+156553127+156136219+158561231+160794544+160451901+159545528
3887+161194326+164631907+166511357+166502998+166773086+166658995+164180114
3878+161077951+160690819+163523879+167813667+172046409+174757633+174425875
3868+172306150+171258511+171431245+170447041+167423136+164414221+163801230
3858+166879747+174190969+184149515+189640543+184685437+175074234+167598191
3848+164107280+164261122+166901703+170597929+174631004+179118676+183316571
3838+184884696+182783157+179062374+175758202+173115318+171128873+170395586
3828+170989724+172415932+175299517+180793220+186955492+188901368+186274608
3818+183343636+180988114+177171277+172627116+170313910+171674082+175920979
3808+180463691+183065468+185111261+189016852+193055648+193251397+190512904
3798+188405830+186954211+184646874+182213800+181369804+182385976+184650273
3788+187918650+191875844+195610132+198922978+203021792+208394066+213337972
3778+216476859+219279140+224134329+232105241+242798652+254464658+264822912
3768+273230404+280434985+286768374+293068235+301296009+312274889+324382211
3758+335936430+347990924+363104876+383004284+406558830+427543568+440585572
3748+449726796+460816145+473300772+481732004+485522371+490151608+498829745
3738+510922467+523618075+533297209+537858608+538496565+538207976+539153691
3728+541413438+543011970+541918320+538866031+536243283+534666817+533021994
3718+531281953+531490742+535843612+543827732+550693272+551412218+547608811
3708+544512573+544682390+548181568+553761944+558939492+561725556+562607261
3698+562953917+563588381+565791212+571365161+580608254+590311536+595000994
3688+593359366+590044308+588776605+590057237+593098120+596998045+601572670
3678+606623347+609149726+605741754+600269599+598153738+597275600+592038276
3668+583093767+575451993+571239368+569675051+569637975+571226960+575039394
3658+579772208+582186205+581980537+583480508+589921673+599345134+605181554
3648+603414133+597518605+592009447+588421144+586272591+584651173+583822929
3638+585190717+589193997+594435110+599872789+606672869+615499945+622235085
3628+621672285+616946828+614740170+617448515+624068227+631952262+637690827
3618+640425957+643176022+647887065+652161807+652525441+650149783+649168700
3608+650501009+651674534+651989203+653391356+656823959+660863015+664117813
3598+667013659+669916117+671614512+671306827+670753203+672509256+676503359
3588+679686456+679875480+678167129+676255859+675068439+676114908+680355991
3578+685514184+687816802+686853105+685514852+685657809+687104692+689216206
3568+690457420+688806356+685341803+683789189+685365134+687331313+686948658
3558+684969624+683575422+683114453+683130576+684630659+688751967+693940697
3548+696592609+694604288+688778047+681275627+674610813+671043872+671302518
3538+673860958+676012446+676296503+675858195+676475496+677923716+678626761
3528+678334012+678339287+679106678+679436356+678397540+676951623+676289370
3518+675714049+673759016+670644648+668309039+668181909+669740913+671471629
3508+673165417+675985772+679482274+680534316+677439044+672961755+670650889
3498+671025520+672288431+672567583+671356832+669916043+669981503+671585757
3488+673117566+673795721+674541192+675745628+675994614+674215155+671433958
3478+669395780+668851221+669419482+669890631+668989868+666867284+665396179
3468+666316929+669518601+673085840+674586071+672965322+669454033+666314997
3458+665099491+666079534+668413211+670468998+670948246+670164731+669596173
3448+670079804+670959540+671158520+670294463+668350723+665649474+663519979
3438+663101213+663491002+663160283+662562895+662908845+663507422+662757864
3428+660506811+657951937+656106350+655227358+655290515+656377998+658537808
3418+661355711+663995066+665717758+665994755+664313822+660731352+656634415
3408+654113125+654202659+655920075+657204162+656935115+655831136+655331083
3398+656196553+658219424+660487047+661581292+660313477+657017293+653608615
3388+651880871+652156011+653538028+654878733+655234639+654119441+652026503
3378+650271787+650273273+652546765+655681789+657078369+655749478+653506970
3368+652619804+653599104+655663213+657861660+659278599+659335143+658480893
3358+657895468+658226186+658988450+659181115+658246619+656400140+654376972
3348+653006397+652795900+653689604+655124227+656264316+656195216+654506406
3338+652157051+650915837+651576827+653611958+656118239+657915827+657585851
3328+655119100+652523286+651593174+652336193+654052866+656368785+658569015
3318+659386263+658378133+656750623+656226497+657437322+659596909+661484031
3308+662029853+660343272+656521847+652248740+649519554+648966376+650012176
3298+651968473+654248875+656105310+656864453+656425626+655549977+655511934
3288+657147247+660284202+663917346+666567847+666970786+665282868+663221360
3278+662404112+662905428+663709152+664144042+664241823+663961333+662996893
3268+661420577+659918488+659113500+658951670+658962667+658703130+657979206
3258+657126888+657042927+658370778+660368981+661121957+659511239+656621189
3248+654421404+653523390+653181899+652834685+652465925+652114105+652270139
3238+654105324+657949634+661916691+663299971+661357271+657753923+654398073
3228+651997302+650542989+650009427+650318077+651113183+651802408+651790222
3218+650889162+649728342+649170557+648951961+647931943+646195655+645527011
3208+646929312+648855666+649042609+647462281+646040066+645894509+646410462
3198+646794380+647041063+646879604+645555766+643416389+641821348+641190376
3188+640665952+639737921+638874011+638592184+638867993+639304369+639342560
3178+638604518+637328753+636121569+635195097+634313059+633470028+633121849
3168+633546708+634446579+635326463+635613715+634682191+632585983+630409530
3158+629042522+628082837+626708028+625004580+623619666+622691708+621893073
3148+621211836+621121373+621953890+623336947+624371230+624293659+622868881
3138+620423046+617856432+616266927+615972766+616075637+615506967+614127736
3128+612292997+610163577+608073313+606720088+606355971+606381048+606184557
3118+605962320+606361247+607436694+608163850+607388843+605445884+604049824
3108+604222130+605188093+605698399+605540767+605026560+603841035+601556881
3098+598873242+597261409+597361085+598324967+598831744+598374750+597385790
3088+596421945+595576165+594685991+593874167+593668573+594519368+596031674
3078+596802482+595724992+593490769+591851258+591525221+591786467+591772350
3068+591284334+590499074+589584193+588614515+587659103+586843973+586178488
3058+585427220+584467499+583567516+583032728+582838279+582703458+582344580
3048+581727762+581099761+580622668+580027249+578822183+576971357+575213633
3038+574358863+574298455+574172030+573467722+572406838+571460156+571008252
3028+571119965+571370623+571180261+570364945+569046419+567366563+565657803
3018+564412390+563870097+563923558+564269842+564440514+563953687+562575423
3008+560493332+558457644+557419571+557419162+557326062+556284757+554807410
2998+553943575+553992392+554520567+555087640+555381839+554949364+553511286
2988+551476675+549565108+548071044+547020971+546696569+547168683+547640835
2978+547211593+546123737+545464753+545846145+546836702+547345485+546449292
2968+544257383+542006813+541007563+541328325+541575267+540336096+537940043
2958+536134430+535881655+536321151+536073317+534680675+532584170+530601533
2948+529493839+529300171+529264023+528920153+528767983+529375922+530365921
2938+530710014+529657749+527228372+524264131+521970986+520940269+520727282
2928+520588821+520200853+519497882+518509740+517549684+516897312+516261436
2918+515228118+514088809+513449700+513282372+513079528+512576466+511807849
2908+510888808+510052614+509491820+509085908+508651464+508284747+508074175
2898+507759655+507041786+506069247+505369508+505237251+505230118+504526850
2888+502946744+501190282+499908981+499084155+498427734+497761543+496873002
2878+495621683+494318314+493461984+493066920+492746604+492406190+492261041
2868+492189785+491675318+490497706+489067282+488005841+487653352+487856902
2858+488006992+487482272+486293180+485101488+484439680+484136454+483681577
2848+482965231+482364426+482093298+481813291+481127186+480164195+479275841
2838+478431844+477440767+476514296+475984932+475625236+474864198+473521561
2828+471832491+470082902+468671833+468054904+468188202+468458512+468385288
2818+467902585+466946801+465445641+463775370+462597720+462089383+461747074
2808+461102170+460299077+459704847+459217797+458402667+457171521+455872796
2798+454819454+454106230+453697829+453415593+453062733+452676548+452387476
2788+452045724+451286469+449986705+448553011+447645635+447440450+447310756
2778+446578473+445335401+444097975+443078961+442270518+441703111+441206551
2768+440447668+439420183+438408895+437514857+436675282+435932336+435291370
2758+434557526+433565855+432392812+431271818+430415339+429852985+429317676
2748+428411192+427070933+425787069+425115008+424989660+424794915+424132289
2738+423189917+422339011+421732521+421271886+420684975+419745909+418570563
2728+417545233+416971584+416873283+416934768+416591456+415533841+414103602
2718+412839317+411826989+410868791+409990690+409349055+408847294+408234897
2708+407503914+406854924+406275517+405524695+404652093+404098543+404034309
2698+404016254+403587345+402818914+401984726+401082588+399991315+398843907
2688+397955441+397445543+397099965+396608160+395839060+394886806+393965647
2678+393294997+392960713+392783614+392393157+391562795+390468513+389515553
2668+388933954+388674491+388620585+388648560+388517789+387998046+387141344
2658+386222303+385410703+384663262+383931684+383316278+382914787+382583698
2648+382013950+381073733+379947835+378963111+378385004+378259100+378310256
2638+378103103+377403921+376359755+375347019+374668939+374338593+374152317
2628+373947690+373670246+373260136+372689683+372049274+371418265+370759689
2618+370056569+369420879+368992676+368797894+368699481+368467027+367945761
2608+367194308+366455747+365963756+365730002+365523517+365083983+364346425
2598+363472559+362718877+362239220+361988674+361846200+361749162+361625635
2588+361323634+360730704+359894881+359002812+358270789+357785671+357450495
2578+357157373+356899694+356640529+356275075+355810799+355393667+355101400
2568+354826557+354392448+353757649+353080201+352551282+352215697+351996358
2558+351785934+351484677+351091099+350748827+350569611+350453031+350201482
2548+349782121+349386798+349215717+349226974+349145651+348749695+348107095
2538+347465014+346933792+346409777+345863175+345530376+345653123+346115096
2528+346491770+346456588+346083740+345711339+345503442+345296436+344978981
2518+344754849+344792372+344875256+344681848+344218352+343736541+343385278
2508+343139338+342949645+342775667+342548155+342256222+341991596+341776751
2498+341489128+341088604+340726939+340492925+340258688+339930459+339668804
2488+339650340+339698934+339419558+338733156+338018037+337642701+337582962
2478+337563606+337405269+337172146+337031901+337009685+336965624+336780835
2468+336421436+335913916+335420886+335152061+335057029+334846568+334398156
2458+333924035+333707853+333812136+334054212+334227038+334288263+334261589
2448+334086942+333727395+333263676+332765890+332257590+331833883+331612686
2438+331577430+331614283+331673576+331795543+331986351+332132837+332086695
2428+331832471+331545108+331451562+331566396+331560786+331078195+330224502
2418+329504553+329263517+329459117+329917040+330466095+330830769+330744802
2408+330298618+329942898+329997658+330316005+330556818+330608420+330595269
2398+330630377+330687812+330631491+330361143+329964519+329618681+329345658
2388+329017726+328513327+327703176+326400773+324444922+321759314+318379354
2378+314534227+310572110+306688123+302905316+299364994+296307671+293673722
2368+291135492+288712170+286900372+286001392+285843389+286355924+287905232
2358+290866946+295247085+300959663+308194373+316797985+325276361+331391600
2348+333841448+333142415+331226539+329687967+328253308+325883780+322568537
2338+319089050+315875117+312771078+309662283+306874194+304862635+303756705
2328+303294528+303001184+302491695+301858197+301624294+302162928+303389728
2318+304982948+306554546+307746443+308505531+309158664+310064572+311332201
2308+312866036+314460816+315862449+316893054+317522244+317815476+317881308
2298+317847612+317842671+318012377+318474684+319155364+319779872+320155877
2288+320378189+320673056+321128899+321611230+321866903+321727922+321271373
2278+320749476+320344604+320030233+319691564+319354976+319210385+319329714
2268+319503172+319531852+319544224+319797222+320273646+320683310+320811444
2258+320732052+320671310+320744423+320900049+321059241+321158806+321127859
2248+321008901+321000580+321217356+321545027+321831536+322041959+322180458
2238+322258178+322377247+322705104+323316721+324104656+324875688+325545855
2228+326197557+326902052+327571178+328090029+328532274+329108821+329926402
2218+330938507+332105085+333420193+334802953+336171261+337606144+339243574
2208+341062078+342955998+344911812+346934795+348928206+350837395+352789643
2198+354884030+356984881+358959865+360944471+363113420+365365959+367451467
2188+369245712+370807837+372284811+373747929+375111147+376296896+377356553
2178+378324411+379160308+379846636+380314255+380402043+380063226+379412675
2168+378550029+377536736+376431568+375225052+373888843+372457043+370925494
2158+369170109+367042992+364522520+361760233+358892808+355880754+352722065
2148+349538077+346323624+343329440+341713558+342703520+346080322+350487656
2138+355020151+359558553+364027149+368310956+372528856+376845021+381301023
2128+385896860+390620906+395514138+400717543+406295207+412143330+418136379
2118+424174530+430170106+436155353+442247559+448433570+454612152+460896651
2108+467701115+475550042+484982902+496598828+510917154+528007242+547150814
2098+566695579+584380751+598408668+608441071+615371774+620313153+623768493
2088+625314717+624083459+619453071+611048662+598858530+583625397+566165063
2078+546724543+525919839+505234316+485949571+468573792+453251014+439930006
2068+428450572+418753272+410636374+403622342+397483140+392311053+387969663
2058+384186429+380970713+378368509+376235559+374480695+373044103+371755224
2048+370568696+369649469+369192474+369425411+370501601+372314978+374912130
2038+378972621+385474231+395194193+408637131+425891315+446462042+469505167
2028+493887177+517811598+539074114+556176350+569070493+578857959+586700311
2018+592800949+596666324+598256052+598103064+596356559+592538886+586309296
2008+577927661+567830876+556169143+542981024+528588878+513586825+498519311
1998+483756102+469679777+456718130+444964225+434003308+423449900+413437708
1988+404319108+396264513+389322553+383450765+378410044+373935913+369968038
1978+366527857+363539171+360899667+358583600+356650411+355223999+354322121
1968+353621974+352616779+351160906+349618434+348339771+347299655+346370397
1958+345610251+345076577+344620511+344051618+343347198+342643150+342137079
1948+342041638+342564687+343713581+344899701+345098459+343966765+342351923
1938+341183599+340578483+340239666+340037788+340010593+340165810+340393843
1928+340616266+341078239+342058876+343194099+343870024+344278648+344879342
1918+345067772+343903088+341923312+340648885+340755025+341668011+342402448
1908+342417755+341864279+341208267+340740053+340478250+340389793+340567710
1898+341154695+342005676+342640661+342959416+343580729+344756670+345547614
1888+345030547+343712281+342698282+342360394+342447290+342700102+342995787
1878+343276277+343492013+343678214+344338832+346432439+350224776+354002177
1868+354955657+352471073+348886931+346467361+345650894+345713308+345873354
1858+345820637+345719400+345850321+346247985+346842326+347766866+349323604
1848+351887580+355555646+359049994+359749064+356996472+353495103+351639560
1838+351452764+351788349+352179363+353456503+356488098+360379888+362725453
1828+362631089+361571394+360455750+358819323+356809603+355523399+355442112
1818+355976641+356444297+356962405+358159521+360052959+361615530+361900403
1808+361255239+360856832+361645176+363904922+367019178+369493435+370129868
1798+369493323+369549941+371878491+376086695+379169596+378128922+374278148
1788+371349015+370987536+372321591+374029942+375653589+376929428+377445753
1778+377722342+379419771+383816145+390103653+394895462+395258390+392276392
1768+388562556+385675106+384908718+386892135+390068694+391918256+392328514
1758+392809248+393501780+394250298+396489500+401440129+407497561+411077951
1748+410902338+409079636+407939101+408429457+410377878+412677933+414081869
1738+415361981+419129500+425966360+431365625+430582445+426147025+422063797
1728+419406609+418545635+419723544+422402688+426444196+433141256+443398199
1718+454561478+460401242+458588905+453674907+450106368+449562106+452461927
1708+458574677+466262146+472959615+478511979+485622828+495085965+502959338
1698+506253590+506463382+504342135+500960317+499750569+502635901+508613607
1688+516556564+527398300+540825226+550071699+549626333+545269673+543799460
1678+547244434+554597656+562783988+569303504+575229682+582003311+587349896
1668+588667753+588740457+591688091+597417629+602320185+604092176+604817400
1658+608044707+616144292+629671265+643675926+646788362+641366397+639822030
1648+643766203+646145872+641367958+633886417+629768675+630319178+635060611
1638+643327227+651851819+653592120+646920693+639382831+636197877+637001379
1628+639205993+641242907+643322991+644947901+644612131+643356279+644436407
1618+648637589+652127256+650962870+647376387+645375212+645696568+646799507
1608+647271845+647197245+647397786+647984252+648319428+648136943+647956017
1598+648286512+649022028+649727302+650128384+650201795+650024733+649729308
1588+649551727+649759549+650427896+651341141+652378397+654157409+657882465
1578+663776990+669039502+669694548+667560818+667980179+672007569+675674669
1568+675547390+673680181+673384162+675879074+682440682+694969928+710597270
1558+716762106+710229698+702071712+697380953+695927086+696793968+699193922
1548+703188248+709983313+720334471+733273492+746711526+756476664+756040289
1538+747879033+742530776+743686395+747434410+748229070+746504149+747279193
1528+752570163+760067308+767034010+773361121+779021000+782067902+782339327
1518+782100520+781935496+781352597+781385884+783735536+789401433+798832435
1508+809965845+814140427+805456977+793789931+788053595+788596371+792564320
1498+796353127+796971319+794750062+793478606+796123014+801868117+806173471
1488+804970819+799651392+794710161+793109177+794960931+798296495+801453215
1478+804950461+810171438+816893167+822383415+822894464+818304979+813470223
1468+812481487+815270263+818325858+818538585+817811985+820568218+828324602
1458+837080273+838558734+831381905+823293689+818977041+818708959+821033719
1448+823271398+823150434+821025175+818765131+817543607+818126580+821504645
1438+827371381+832167723+832112071+829078024+827185626+827208437+827414179
1428+827157763+827621333+829208944+831082988+833373421+836964808+840140846
1418+838770123+832753891+826593737+823112169+821882322+821300686+820702407
1408+820746691+821744121+822495388+822004921+821481017+822619324+825088453
1398+827230059+828294806+828335227+827058867+824996987+824185758+825859782
1388+828408637+828744408+826714626+825880363+828902002+834893640+841170374
1378+846280865+850636670+854589387+857417617+858813009+859797361+861183911
1368+862795372+864589765+866846762+868940146+869517844+868211541+865829939
1358+863106920+860480940+858386738+857056807+856332214+855775692+854926569
1348+853650284+852308019+851618348+852419917+855111284+858849565+861702241
1338+862250887+860777627+858556667+856783821+856307769+857400602+859510481
1328+861682774+863325665+864452306+865379892+866471760+868053426+870161299
1318+872267315+873759744+874834522+876091117+877196285+877211963+876448287
1308+876480534+878058708+880342008+882290132+883603419+884299183+884457744
1298+884402314+884469706+884654570+884689120+884229860+882871248+880244747
1288+876330221+871680477+867176440+863479693+860820648+859185336+858270233
1278+857324368+855748275+853925201+852751750+852392426+852229258+851954193
1268+851973808+852701373+853935975+854951237+855088473+854424436+853811891
1258+854037843+855007261+855986190+856601113+857238847+858409995+860211669
1248+862507303+865004147+867002870+867861133+867993985+868572797+870049252
1238+871931767+873970093+876420201+879120558+881411585+883178858+885133892
1228+887746795+890545677+892792792+894355288+895585803+896745806+898020679
1218+899690170+901733178+903577056+904747683+905539891+906642681+908505952
1208+911314418+914935748+918593784+921379291+923416205+925595557+928048117
1198+930000104+931221926+932415513+933922803+935239137+936237161+937780116
1188+940384178+943162032+945040460+946382280+948366217+951247128+954287416
1178+957064304+959600900+961600366+962884379+964036728+965514149+966875807
1168+967746180+968724812+970668477+973816949+977844340+982038390+985494546
1158+987586222+988183238+987838402+987549962+987615348+987466967+987261968
1148+988422267+991668893+995582601+998098095+999033779+999817963+1001274727
1138+1003258962+1005655647+1008165939+1009735791+1010036046+1010852996
1130+1013701734+1016723224+1016726345+1014279729+1013673499+1017588173
1121+1023867583+1028032209+1028351856+1026966050+1026537847+1028120405
1113+1031234996+1034346391+1035801893+1034987692+1032806483+1030968920
1104+1030630995+1031504861+1032653644+1034136785+1036438512+1039097855
1095+1041338654+1043022411+1044509119+1046229210+1048071231+1049076017
1087+1048753620+1048341541+1049195197+1050618006+1050786151+1049302415
1078+1048026798+1049606979+1054788947+1060979269+1065066101+1067143435
1070+1068656521+1068645004+1065168712+1059389280+1054945650+1053645143
1061+1053922438+1054321216+1056543217+1062362326+1069488926+1073501159
1053+1073306933+1071295579+1069294181+1068059727+1068710316+1071264818
1044+1073489791+1073741823+1073045242+1072825085+1072938841+1072588136
1035+1071243790+1068962348+1066863168+1066394026+1067676552+1069422203
1027+1070349120+1070029919+1068923116+1068188121+1068918287+1070830225
1018+1072038747+1071077874+1068646119+1066132483+1063395569+1059822907
1010+1056411628+1054728540+1054518340+1053942871+1052098473+1050344500
1001+1050590588+1052690288+1054540407+1054785455+1054026460+1053155641
993+1052029223+1049965783+1046559260+1042217721+1038325263+1036197254
984+1035979326+1036862628+1037608620+1037119193+1035403932+1033567930
975+1032455926+1031651533+1029633194+1025124029+1018919888+1013538493
967+1010191411+1007505914+1004129484+1000680460+998291205+997145246+996854279
957+996538719+994673070+990523453+985283752+980596188+976996034+974467240
947+972857265+971325158+968992225+966508012+965319329+965347935+965286116
937+964970481+965301571+966028467+965872359+964670375+963565802+963324989
927+963767532+964581956+965600933+966192377+965507387+963750368+962188243
917+961614632+961815396+962640445+964445092+967092100+969188902+968766495
907+965071978+959804784+955976375+955209950+956349965+956879515+955577522
897+953324685+951505699+950778505+951298322+952510559+952866019+951590774
887+950145229+949936069+949812208+948163893+946114644+945919304+947541391
877+949084568+949503632+949128258+948358192+947297457+946229663+945539695
867+945428465+945843516+946060329+944910283+942373316+940122486+939827284
857+941545443+944137914+946640479+948237154+947895514+945385444+942001583
847+939372928+937887185+937205316+937261785+937656255+937456605+936416452
837+935447703+935654411+937383864+939704983+940923387+940798486+941292817
827+944011155+948227569+952111706+954299379+953876749+951467062+950306316
817+953106238+957882889+959624751+956811678+953182174+952219964+953664543
807+955593051+956435709+954893052+950895233+946609421+944486687+945246128
797+948232548+952223976+955831709+957971531+958103566+956340083+954058120
787+953320376+954290908+954950339+954610704+955078584+957394799+959932658
777+960624335+959547105+958413108+958499076+959405040+959383269+957271458
767+954215418+952581666+952903765+953055712+951584013+950229191+951550131
757+955227634+958147404+958086625+956071481+955180823+957666819+962722846
747+966515962+965821759+961804919+958032905+955891225+954235033+952687249
737+952727669+955305056+959051511+961327529+960967462+959699275+959873959
727+961345882+962322358+962496597+962845296+962759626+960636298+958074960
717+958754451+962738747+965866414+964934519+961007288+956791096+953652283
707+951938805+951716939+952215431+951564917+948190344+943001316+938995771
697+937973896+938548696+937684712+933920945+928652563+924814197+924730385
687+928625592+934364157+937826926+935218332+926819533+917308211+911390949
677+909847920+910395080+911101023+910787617+907414679+899619955+890911837
667+888130268+891224425+895932422+901038826+905924850+907944898+904886702
657+898075737+891113715+886888533+885791687+886097886+885762709+884024489
647+881780792+880755053+881589687+882763436+882787361+882021233+880781504
637+878118521+873386525+868404132+865889158+866391142+868482892+870204543
627+869558933+865378555+858929886+853451526+850649375+848859886+846937694
617+847572084+853064041+860228164+863483334+861731591+857557677+851622880
607+843461847+834741841+827742817+823917082+823478106+824052089
##END=
