##TITLE=<SNM>
##JCAMP-DX=4.24
##DATA TYPE=INFRARED SPECTRUM
##DATE=2/5/2025
##SAMPLING PROCEDURE=Instrument type and / or accessory
##ORIGIN=Admin
##XUNITS=1/CM
##YUNITS=ABSORBANCE
##RESOLUTION=4
##FIRSTX=4497.3318
##LASTX=599.83466
##DELTAX=-1.4281778
##MAXY=1.7203656
##MINY=0.20080493
##XFACTOR=1
##YFACTOR=1.6022154e-09
##NPOINTS=2730
##FIRSTY=0.21845333
##XYDATA=(X++(Y..Y))
4497+136344550+137063700+138394924+139310199+139427160+139055927+138706922
4487+138517493+138066854+137165250+136516235+136870224+137981467+139034146
4477+139543600+139430648+138851478+138300878+138351286+139024594+139675535
4467+139609549+138812649+138056958+138219807+139452801+140927957+141517330
4457+140963196+140152104+139956629+140180172+140017583+139185435+138151320
4447+137439778+137134698+137018481+136856460+136510227+136103020+136069074
4437+136635577+137359869+137679513+137626222+137467781+137196360+136769641
4427+136218121+135392008+134281491+133415777+133220135+133277109+132874497
4417+132045473+131518832+131774963+132589609+133451249+133972320+133871801
4407+133114855+132208276+131832942+132077327+132416594+132378342+131937208
4397+131367617+130859679+130301416+129585531+129019847+129022786+129489068
4387+129853028+129692755+128999377+128030355+127088750+126350693+125810650
4377+125431159+125329552+125727858+126666570+127807649+128626777+128844833
4367+128600448+128197873+127853109+127653337+127453557+126894987+125970421
4357+125421663+125974150+127312498+128373528+128540860+128160876+128028960
4347+128559163+129277578+129323233+128672144+128259711+128576350+128944960
4337+128576062+127626813+126838813+126647133+126919242+127328597+127768913
4327+128236376+128383563+127702862+126359287+125340945+125488365+126659018
4317+128001468+128839067+129138008+129245036+129340941+129268408+128905239
4307+128470931+128279372+128365121+128546757+128718432+128909814+129095059
4297+129042623+128542413+127865925+127667046+128159267+128789142+129075816
4287+129228742+129497643+129550739+129052538+128285045+127737645+127620554
4277+127987787+128737005+129406267+129589382+129486101+129451615+129323001
4267+128825265+128276330+128269076+128895641+129719094+130349676+130753190
4257+131073382+131382126+131637123+131757618+131695715+131537256+131532615
4247+131880299+132424946+132741084+132613036+132333635+132418417+133023758
4237+133750729+134072019+133818324+133140357+132187592+131068881+130051330
4227+129551185+129795645+130552833+131338349+131907214+132358960+132750896
4217+132925407+132837277+132691680+132600444+132436135+132190354+132129111
4207+132436265+133018904+133745940+134550057+135256930+135632767+135617523
4197+135287659+134657439+133782834+132986548+132690285+133017741+133713230
4187+134421285+134909348+135052053+134818261+134409138+134236282+134544570
4177+135137653+135629139+135850404+135903165+135948058+136023409+136035927
4167+135983725+136093655+136489561+136897363+137024620+136990869+137064425
4157+137258282+137384785+137304393+137106481+137093517+137420591+137814256
4147+137869975+137425855+136495141+135250011+134198272+133901953+134433784
4137+135433358+136565164+137583171+138180448+138248220+138177928+138473326
4127+139072686+139375171+138909186+137743267+136372414+135410060+135236246
4117+135793691+136753961+137721885+138246657+138040450+137342013+136721716
4107+136523591+136750027+137288229+137939114+138395407+138430758+138074117
4097+137602283+137414183+137785351+138588817+139263799+139226905+138437408
4087+137495338+137123873+137598172+138590138+139398003+139469560+138982529
4077+138749053+139235982+139917419+139970086+139393809+138956665+139141593
4067+139696005+140206027+140528070+140570805+140231668+139698116+139329544
4057+139154660+138899616+138525063+138327254+138474265+138773745+138976679
4047+139101750+139348879+139745297+139994314+139846717+139560499+139624281
4037+139984000+140063295+139730286+139654163+140364858+141438639+141995405
4027+141741105+141230339+141168846+141615002+141981817+141808923+141322720
4017+141113043+141394760+141777990+141753186+141280840+140817953+140781477
4007+141135801+141622628+142232936+143128076+144104091+144502053+143840036
3997+142361894+140867551+140104207+140295989+141108040+142016117+142776392
3987+143532864+144438811+145251345+145474860+145000487+144372481+144202294
3977+144564449+145165986+145755842+146171019+146367908+146500233+146607522
3967+146446514+146048655+145982287+146596110+147448711+147829123+147479337
3957+146665240+145915213+145725133+146275658+147404292+148691683+149495857
3947+149419380+148927847+148884805+149403179+149744874+149432865+148789681
3937+148361140+148538935+149558904+151129017+152171344+151849887+150815902
3927+150469808+151268020+152406280+153029933+153213550+153525009+154107565
3917+154407036+153756337+152254833+150765373+149996904+150020424+150770497
3907+152566246+155604251+159038749+161329592+161861144+161141446+159542288
3897+157382022+155730931+155690577+156983614+157835879+157175740+156529831
3887+157639214+159690592+160650853+160614563+160982466+161274218+160217568
3878+158676389+158385753+159625750+161886664+164829332+167160781+166916498
3868+164740160+163416776+163980433+164889282+164541133+163315886+162841606
3858+164746838+169959516+177188937+180971872+177352902+170765000+165865279
3848+163643761+163736764+165531769+168196895+171006214+173723776+175943453
3838+176541577+175191892+173288334+172054996+171417717+170908821+170534798
3828+170373660+170414452+171345603+174032659+177392745+178648478+177766600
3818+177161910+176811417+174938625+171997613+170142695+170601779+173295979
3808+176841513+179428517+181292976+183833236+186115486+185831007+183872465
3798+182717678+182465434+182118550+181800608+182165795+183345005+185304105
3788+188138814+191638479+195194095+198640395+202648269+207511551+212143330
3778+215497835+218402817+222579995+229121153+238199353+248687152+258486501
3768+266672910+273867454+280521314+287262021+295628763+306464023+318463946
3758+329741400+340640292+353354278+369696478+389368687+408651322+423472135
3748+434964389+446470111+458200082+467076186+472494941+477554851+484126626
3738+492563419+503248738+515389934+525099832+528968480+528584673+527848718
3728+528416448+529179523+528759482+527774315+527319454+526681673+524998868
3718+523628331+524769410+529123386+535351681+540455675+542123227+541781533
3708+542432520+545164107+549419016+554022205+557567386+559594193+561083253
3698+563055187+565980184+570121927+575333023+580881202+585514747+587593040
3688+586723718+584720907+583394937+583676589+586085305+590740725+597221356
3678+603396044+603886358+595807331+586563120+583405949+584731472+584554728
3668+580869112+576290439+572399731+568923744+566122033+565769922+569210641
3658+574923473+579495711+582390649+586439314+592465977+596987918+595506558
3648+588837167+582224210+579239765+580381141+584000093+587891321+591181264
3638+594309826+597188991+598995602+600352635+603526807+609038491+613437295
3628+613532866+611658845+611355505+613786653+618901771+625551631+631283101
3618+634854807+637638290+640629654+642799909+643430398+643909403+645220678
3608+646455392+647327542+649223250+652608131+656050525+658556262+661200016
3598+665255266+670089959+673922595+675910935+676822518+677424809+677503452
3588+677187613+677782388+679930099+682626605+684554233+685112328+684667399
3578+684288094+684768066+685799958+686319364+685347441+682625192+679319029
3568+677820260+679475275+682536652+683993012+682902268+680575320+678276423
3558+676295002+675094290+675265789+676229453+677304276+680154275+686809084
3548+695040934+699145587+696331301+689355147+682520209+678472177+677925837
3538+680344746+684583250+689088115+692006937+692030002+689350534+685629948
3528+683308060+684270163+687973636+691162465+690420000+685302501+678519720
3518+673375437+671528016+672384541+673763001+673374842+670625287+667236389
3508+665621253+666725688+669496076+672084921+673579003+674425484+675026212
3498+674678825+672933856+671400638+672286180+675426647+678553871+680407096
3488+681860554+683565494+684527373+683320560+679780550+675646210+673193820
3478+673266362+675008132+676833158+677414764+676424017+674370500+671809928
3468+669348832+668395956+670122324+673042410+674018054+672437887+670720894
3458+670397391+670401334+669536997+668421402+668159578+668825334+670024038
3448+671728159+673873712+675900221+677023629+676504893+674043425+670615168
3438+668194622+667975580+669317658+670692621+671565366+673198879+676901831
3428+681219946+682262478+678201648+671876518+667233487+665197529+664412580
3418+664029628+663830006+663113804+661536986+660121473+660149449+661818601
3408+664289741+665937167+665210326+662598640+660578083+660687455+662036750
3398+663231435+664214073+665229001+665600346+664897090+663894067+663237090
3388+662505859+661336619+660070284+658923365+657760375+656720671+656121207
3378+655977535+656233183+656775282+657165897+657301905+657836043+659276555
3368+661504547+664253506+667085053+669223092+670147026+669832748+668353621
3358+665991853+663439317+661352839+660004586+659470002+659980703+661662950
3348+663747939+664872091+664763835+664317418+663717062+662569548+661586836
3338+661779762+662698637+663358143+663801658+664405362+665054527+665752276
3328+666739452+667881014+668883889+669664896+669963027+669379933+668165977
3318+667241002+667104398+667259081+666820849+665387330+663305540+661469875
3308+660662381+660849951+661623814+663083671+665197752+666685882+665937911
3298+663023777+659799458+658182611+658956698+661481407+664097112+665715670
3288+666956411+668743863+670302379+669936094+667714501+665862615+666277857
3278+668508007+670409072+670708469+670440842+671176463+672785795+674118126
3268+674668037+674171175+672134026+669327256+667950358+668863057+669998890
3258+668864694+665586804+662298201+660743034+661274344+663305987+665831366
3248+667690990+668141870+667545383+667133117+667470236+667649994+666633205
3238+664829682+663578747+663480759+663989302+664506104+665074839+665533458
3228+664801855+662098504+658356193+655361852+653953184+653671867+653719560
3218+653774767+654185619+655471001+657448479+659270677+660418266+660767959
3208+660095953+658787729+658030234+658187447+658178296+657158233+655505971
3198+653932352+652935503+652902989+653740764+654513586+654234576+652816012
3188+650743895+648429075+646501894+646058751+647546881+649692583+650615922
3178+650018542+649226375+649106810+649056216+648010113+645805782+643480025
3168+642286009+642435261+642896335+642417999+640637318+638232768+636220991
3158+635174293+634955474+634822070+633782886+631624015+629629276+629431960
3148+631196571+633470320+634585841+633970009+632266260+630398973+628787483
3138+627564152+627021979+627264756+627754698+627720696+626763206+624878361
3128+622393568+619992962+618452266+618229765+619144138+620276660+620550388
3118+619690626+618375259+617462263+617288941+617591761+617861248+617710024
3108+617040697+616083505+615300453+614959353+614711554+613906628+612402762
3098+610816755+609902121+609784193+609921317+609777162+609146338+607982269
3088+606434765+604922231+603873263+603441950+603611105+604306436+605168579
3078+605560570+605103402+604113993+603301329+603043337+603045979+602644873
3068+601487352+600029355+599147942+598992738+598784038+598095626+597286831
3058+596372383+594835482+592921768+591751115+591840138+592527880+592859195
3048+592335251+591096072+589834090+589228562+589392918+589899043+589974897
3038+588834897+586409924+583613347+581595208+580906164+581304256+582003977
3028+582195527+581510054+580016195+578118403+576601293+576168939+576628264
3018+576996484+576531132+575313344+573876552+572605306+571570140+570858923
3008+570729388+571064833+571041880+569947526+568073357+566314364+565272725
2998+565086830+565514422+565797897+565085490+563445318+561917903+561229008
2988+560982214+560403286+559446801+558775204+558725949+558635103+557602839
2978+555917802+554922665+555203275+555828667+555855304+555595936+555603785
2968+555352490+553965770+551690384+549640550+548416662+547830182+547663891
2958+547754886+547544549+546572403+545308374+544580975+544351554+543860235
2948+542785077+541525103+540459730+539488364+538253911+536610688+534962480
2938+534039960+534120687+534662153+534985619+535027136+534990009+534610443
2928+533277778+530764191+527682353+525243355+524306513+524570196+525071857
2918+525386023+525625525+525472181+524268716+522208429+520537119+520182887
2908+520686371+520832498+520045019+518707331+517389174+516459474+516228193
2898+516674610+517101868+516684096+515324534+513619333+512147126+511060808
2888+510228650+509555490+509117518+509019642+509182026+509281911+508906810
2878+507883957+506508957+505271266+504225498+502914595+501185512+499668699
2868+499034192+499133632+499187574+498607157+497520021+496672983+496732728
2858+497444242+497719160+496848759+495249248+493700219+492421830+491315387
2848+490565332+490353210+490266977+489674508+488547528+487333126+486197182
2838+484962393+483601268+482322173+481321604+480755957+480693979+480830285
2828+480590225+479762345+478695000+477747220+476909110+476024646+475062544
2818+474128603+473376242+472838198+472375115+471947448+471689010+471453711
2808+470693464+469162291+467376141+466066615+465440031+465075421+464390431
2798+463218029+461920891+460907972+460267996+459953458+459930691+459961531
2788+459578096+458500521+456944461+455450192+454462309+454025714+453807490
2778+453404190+452639627+451585340+450386450+449173276+448069547+447153128
2768+446455602+446032883+445898623+445886793+445748329+445353585+444669749
2758+443642433+442244256+440602781+439027860+437869483+437272922+437079437
2748+436977282+436651398+435848294+434537689+433010088+431656516+430690433
2738+430091899+429650914+429057515+428086707+426781273+425497081+424646434
2728+424266161+423982910+423516888+422968837+422501476+422044159+421415604
2718+420536870+419512195+418504223+417457748+416190929+414892042+414110887
2708+414040465+414201101+413985333+413222518+412168119+411130981+410191944
2698+409303947+408562300+408140436+407978163+407746622+407123796+406079851
2688+404987022+404321378+404104159+403876896+403330184+402602562+401884538
2678+401118784+400171414+399059166+397995206+397240316+396790960+396302134
2668+395508144+394596636+393963580+393735684+393666415+393379183+392698918
2658+391833428+391097547+390418399+389458156+388328313+387644737+387626769
2648+387699572+387278154+386437552+385565253+384860213+384376632+384116520
2638+383918757+383521520+382797135+381832428+380863741+380178045+379941221
2628+380038242+380098062+379734009+378866622+377831790+377079802+376757377
2618+376620699+376303892+375671692+374971189+374549809+374380059+374072180
2608+373424653+372671064+372079004+371599515+371067982+370509626+370037987
2598+369606972+369096940+368541561+368050019+367615990+367214736+366944617
2588+366859723+366788780+366497047+365969940+365411845+364942772+364405807
2578+363650210+362905959+362532606+362445368+362213194+361717784+361268539
2568+361023903+360730905+360156032+359441914+358869087+358491009+358172528
2558+357816101+357401492+356959874+356621341+356516322+356526552+356306394
2548+355686396+354915471+354349043+354024870+353753151+353484222+353302977
2538+353165964+352950308+352695255+352546263+352517246+352462560+352224546
2528+351737989+351061221+350364625+349873678+349744813+349912293+350070213
2518+349917464+349476702+349115737+349202453+349736554+350331776+350548846
2508+350218461+349515094+348794801+348278482+347863910+347378618+346915535
2498+346658771+346521386+346261051+345817164+345284514+344720355+344186515
2488+343847648+343841398+344080007+344266275+344132871+343691327+343247440
2478+343123411+343329916+343544531+343457145+343072966+342593812+342110082
2468+341601465+341180345+341069857+341285550+341536883+341498603+341062454
2458+340374488+339768850+339556355+339707058+339844852+339666546+339211945
2448+338673640+338169152+337790963+337678987+337854466+338021723+337775934
2438+337142022+336657660+336707324+337029748+337114530+336837380+336468119
2428+336252797+336198260+336187062+336158268+336116454+336033606+335871445
2418+335674055+335525287+335469150+335529304+335676436+335747528+335588454
2408+335307807+335194455+335346125+335534512+335474916+335130096+334722071
2398+334514004+334592090+334806295+334916411+334832001+334684089+334582566
2388+334331903+333524186+331924266+329576412+326477275+322369051+316991329
2378+310433411+303203823+296000294+289308246+283173253+277477608+272296979
2368+267756251+263825552+260530197+258039415+256493697+256200866+257866670
2358+262024502+268393920+276497649+286674053+299067995+311494674+320083918
2348+322265110+318683137+312883253+308525073+306289213+304603395+302396292
2338+299754621+296962210+293932956+290610295+287540994+285576147+284991006
2328+285287576+285822848+286324657+286947446+288071970+289963679+292505502
2318+295235303+297651570+299596906+301387223+303432518+305750016+308059163
2308+310270376+312526976+314776246+316698368+318136276+319232452+320071753
2298+320569061+320796734+321083519+321677068+322506250+323309837+323888207
2288+324250400+324581455+325037135+325546794+325847976+325745896+325330989
2278+324902391+324670664+324575093+324402330+324057250+323687059+323506930
2268+323540337+323633452+323708450+323859487+324160447+324489381+324640456
2258+324603366+324620777+324874788+325255135+325583214+325879077+326223227
2248+326557705+326797579+326984256+327226883+327568652+327902386+328016408
2238+327852239+327691566+327891635+328454157+329067013+329565102+330112633
2228+330876042+331742426+332483701+333067911+333694048+334559018+335646861
2218+336772761+337817748+338840042+339943584+341146938+342426368+343823095
2208+345461258+347443497+349739753+352214278+354711050+357071441+359203118
2198+361190231+363179017+365166688+367061801+368885971+370778592+372832184
2188+374946711+376865559+378433523+379722700+380830148+381784364+382706959
2178+383737400+384744181+385414513+385663391+385694379+385612648+385236096
2168+384433959+383408986+382422703+381478271+380426774+379102962+377341513
2158+375133090+372659941+370064623+367396204+364677750+361828681+358757334
2148+355504593+352131877+349004877+347278025+348111374+351286066+355497450
2138+359868093+364297886+368745908+373083516+377354459+381696867+386191055
2128+390823633+395530019+400372115+405533808+411055128+416840577+422862441
2118+429060230+435255639+441370767+447481803+453632755+459814065+466038118
2108+472371990+479101574+486885333+496604086+509009746+524375335+542122744
2098+560539331+577193651+590238283+599344068+605247557+608879976+610925420
2088+611494378+610098619+605979755+598257787+586389203+570963385+553348041
2078+534664646+515710535+497144213+479358375+462846090+448408787+436416694
2068+426466438+418015620+410700561+404226328+398561672+393861946+390018149
2058+386781479+384065182+381696160+379428214+377368038+375774516+374600663
2048+373695963+373077862+372808226+372960789+373632423+374864198+376865856
2038+380242813+385721499+393897808+405298882+420233084+438496066+459399604
2028+481855816+504316641+524984211+542319056+555581390+565202526+572313312
2018+577587391+580898873+582080054+581412773+579255910+575537445+569774317
2008+561627584+551336636+539502873+526639710+513080546+499139063+485157737
1998+471475660+458504352+446654630+435941930+425914927+416295316+407381155
1988+399554689+392836005+387061382+382084170+377752142+373946477+370621454
1978+367739499+365247638+363055769+361012854+359090472+357532143+356537489
1968+355841303+354883367+353464171+351997729+350958843+350299411+349651065
1958+348929284+348347975+347955388+347592637+347248153+347087629+347144323
1948+347279253+347493682+347952412+348485062+348456937+347585123+346449662
1938+345719361+345419183+345227261+345008926+344841594+344785123+344788992
1928+344816372+345002044+345482537+346110050+346685184+347306484+347945567
1918+347996347+346994216+345492098+344474565+344334167+344771172+345277186
1908+345569849+345675092+345696743+345650539+345555229+345503854+345568547
1898+345747486+345981296+346184081+346398250+346812599+347377799+347647993
1888+347378618+346951099+346820039+346992542+347230631+347375270+347397144
1878+347372145+347424599+347676452+348380675+349929480+352317438+354520132
1868+355029196+353630052+351717230+350522433+350143574+350103769+350082490
1858+350011174+349916348+349897971+350083196+350545721+351304035+352404117
1848+354032831+356280428+358409947+358920499+357468938+355590454+354644162
1838+354691556+355104045+355521966+356335858+358116056+360469230+362041101
1828+362269034+361914430+361396215+360440994+359305385+358745429+358924666
1818+359360294+359756786+360345982+361380255+362616011+363451220+363558211
1808+363236568+363118156+363761219+365395179+367660037+369607716+370406950
1798+370282140+370434628+371913049+374497950+376393622+375931543+373954624
1788+372617122+372873142+374227013+375851970+377367405+378591927+379366757
1778+380016368+381414768+384280727+388265107+391463758+391991645+390318922
1768+388125230+386576797+386531336+388292711+390786506+392387245+393042250
1758+393759902+394672973+395656429+397528441+400948327+404855590+407197566
1748+407471741+406981798+406925252+407733192+409345277+411185147+412526964
1738+413839615+416731614+421577244+425654071+426083821+424346851+422896071
1728+422364872+422834800+424338815+426585184+429666390+434540330+441705951
1718+449268623+453405269+453135336+451456102+450903103+452215234+455398445
1708+460172537+465652154+470689706+475523804+481765231+489687119+496589168
1698+500375340+502016256+502272053+501898625+502884499+506367926+511772247
1688+518476831+527154242+537650244+545722574+547882636+547611289+548959095
1678+552876662+558601622+564644914+570077992+575636401+581968971+587571836
1668+590671084+592705963+596246047+601510082+606490604+609678094+611998978
1658+615367303+621202603+630016320+639300820+642750208+641039316+640939616
1648+643864985+646382403+645336077+642531017+641005016+641510732+643916695
1638+648104753+652556867+653594861+650226274+646432476+645082140+645784726
1628+646845412+647553057+648459059+649341030+649071692+648207429+648787473
1618+651266872+653412946+653072255+651406228+650509228+650941508+652129274
1608+653142268+653431174+653233784+653106481+653202460+653268679+653198443
1598+653197327+653431918+653872755+654484420+655268775+656084155+656631685
1588+656701251+656434145+656279239+656538905+657143948+658210586+660378014
1578+663772269+666576585+666506572+665046714+665488072+668297298+671052805
1568+671695422+671242160+671627641+673870736+678833849+687075966+695901327
1558+698318153+694311265+690635470+689715108+690808085+692814133+695262059
1548+698693441+704064578+711469813+719906420+728301733+735046271+736853366
1538+734166532+732458468+734475899+738428845+740871712+741535161+743154538
1528+746861657+751513766+756460584+762428357+768654159+772132861+772177577
1518+771418371+771196130+771135864+771541806+773520920+777819987+784462668
1508+791971546+795773677+792638939+787080456+783779874+783515297+785593070
1498+788538155+790307081+790505365+791320224+794506226+799017193+801684905
1488+800751150+797886865+795395935+794267319+794712098+796602301+799540839
1478+803097962+807022561+811038153+813995515+813779227+810488466+807825143
1468+808624899+812176218+815371595+816192183+816256839+818143248+822428179
1458+827193454+828610157+825466788+821176872+818634901+818350906+819261075
1448+819711286+818989356+817894817+817432403+817912525+819410699+821895752
1438+824427605+825272002+824424629+824127315+825230783+826284847+826044377
1428+825313742+825586131+827086314+829174875+831622875+834349440+835912270
1418+834124222+829496815+824892548+822042400+820900392+820633063+820638271
1408+821078289+822225431+823486186+823959909+823836921+823994506+824712493
1398+825782256+827100971+828368348+828992811+828982469+828992067+829192582
1388+828901668+827593071+826175401+826506493+829475462+834154356+838941431
1378+843284619+847682717+852111989+855534815+857457085+858786440+860438703
1368+862384038+864337334+866187881+867360469+866910183+864923554+862744073
1358+861295674+860307010+859306888+858514051+858225369+857927460+857026665
1348+856002288+855743887+856258085+856969524+857682377+858489871+859301977
1338+859969072+860393317+860359836+859791399+859143053+859093798+859949430
1328+861520817+863368685+865040441+866344498+867546178+869015261+870713579
1318+872384666+873972198+875276479+875680486+875101260+874783560+876141262
1308+879057777+882006360+883668667+883969552+883744632+883973049+885160219
1298+886849163+887723247+886745594+884282192+881712245+879988482+878822441
1288+877138632+874091317+869757131+865054057+861040770+858248731+856564773
1278+855602670+855093607+854979770+855167265+855237948+854669957+853487697
1268+852302609+851560367+851248470+851302784+851627478+851876504+851914896
1258+852264441+853542904+855695302+858027085+859822871+860872397+861407353
1248+861630635+861760468+862467295+864341501+866811004+868532610+869020246
1238+869119648+869855566+871554405+874099278+877311767+880761824+883769706
1228+886147916+888463554+891042950+893418408+895257347+896982897+898831285
1218+900216814+900805712+901351531+902740929+904919219+907334259+909833523
1208+912530624+915252129+917650726+919549858+920982260+922380958+924633502
1198+928188616+932258672+935503155+937357049+938452704+940029448+942925725
1188+946850324+950626488+953226866+954669982+955859088+957472363+959241513
1178+960494530+961133129+961798067+963302640+965976156+969116920+971126168
1168+970856606+968937387+967366892+967875287+970695450+974616626+978148154
1158+980559623+981968514+982984335+984192711+985781062+987782869+990118670
1148+992155223+993209585+993741267+994993466+997374950+1000137898+1002349000
1138+1003638921+1004468959+1005614910+1007023876+1007928688+1008435892
1130+1009631098+1011631343+1012833543+1011927987+1010125951+1010132722
1121+1013156079+1017945908+1022581424+1026184007+1028681263+1030320430
1113+1031864660+1033954709+1036175260+1037419796+1037083867+1035903988
1104+1035064724+1034611909+1033818254+1032692019+1032420152+1034105747
1095+1037184013+1039889596+1041527574+1043389652+1046853176+1051336837
1087+1054749842+1055530327+1054187729+1053107698+1054171955+1056121383
1078+1055650041+1052085180+1048867855+1049288305+1052682337+1055475715
1070+1055601679+1055031233+1056663630+1060183329+1062886828+1063408541
1061+1062888168+1063487184+1066669689+1071335488+1073741823+1071325072
1053+1065977371+1061899206+1061599660+1064515059+1068121585+1070319072
1044+1070861393+1070355455+1068933766+1066725194+1064533213+1063077448
1035+1062502315+1062974698+1064849574+1067727920+1069799294+1069538289
1027+1067758797+1065548662+1062207233+1058401456+1057927659+1062895161
1018+1069524822+1072117982+1069757331+1065573215+1062183573+1060276034
1010+1059626498+1059776122+1059659831+1058172519+1056400319+1057436229
1001+1061904860+1065482890+1063300657+1055888130+1048573294+1045797773
993+1047507846+1050059490+1050094162+1047353833+1043544708+1040435266
984+1039388717+1040350521+1041381893+1040881906+1039222947+1037279770
975+1034830653+1031137373+1026341741+1021813365+1018720664+1016292008
967+1012601555+1007193068+1001716055+997972256+996277137+995428053+993765746
957+990480788+986045861+981502008+977708508+974960739+973111308+972123835
947+971799959+971081228+969092516+966594964+964891140+964246142+964558634
937+965909193+967407665+967402383+965614558+963520194+962703028+963728299
927+965847736+967408484+967097406+964933103+962159367+960449144+960689168
917+961920757+962108178+960576076+958859306+958623300+959617768+960218719
907+959597605+958594134+958236852+958269366+957733517+956217412+953808844
897+950646280+947363257+945344039+945725874+948205273+951012490+952325476
887+951983223+951255638+951060257+951426095+952246088+953129547+952875759
877+950777526+948175958+947262962+948557272+950468085+951124913+950140713
867+948392396+946413431+943952484+941195042+939216374+938679707+938937662
857+938927320+938364388+938090884+938988925+940624447+941804252+942136089
847+942098143+941816306+941207467+941075849+942381469+944547111+945695369
837+944678506+942172174+939945299+939818814+942319343+946008531+948609801
827+948654368+946697798+945069419+945711738+948151926+949864827+949210827
817+947202472+945718955+945806453+948003195+952056510+956088620+957976219
807+957803456+957643118+958778802+960024230+959503411+957270657+954914172
797+953213250+951604513+949853592+949326076+951628694+956027759+959004689
787+957886787+954688285+953459598+954987310+957045068+958382458+959240248
777+959312939+958294514+956968508+955699122+953837564+951730551+951132353
767+953092271+956672608+959959946+961729914+962204827+962174768+961438627
757+958925450+954746468+951226398+950919263+954160695+959094567+963271986
747+964810561+963090295+959590015+957329361+958264976+961568162+964785562
737+966324137+966619144+967138997+968444319+969380678+968401910+965388374
727+961973211+960229805+960663797+961347335+959803179+955725907+950632961
717+946000495+943375193+944286180+948257801+952652700+955739522+957846609
707+958758639+956966722+952834689+949673612+950090268+952970027+954336063
697+951373716+944925375+937859193+932808732+930292727+928224627+924349656
687+919093545+915093503+914513384+917108628+920289421+921167821+919067058
677+915695347+912973098+910890266+906571631+895918863+878695659+864915891
667+867456671+881484052+893472053+898993037+900299922+898812610+892864703
657+882572639+872796262+868353671+869085795+871360958+872998637+874161404
647+874595024+873835446+873495276+875832640+879572645+880857357+878990964
637+876901733+876666918+877644645+878488075+877573218+872607279+864204005
627+856101467+850671998+847611290+846810419+848533215+850638442+850306978
617+848659774+849251500+852467560+854980737+853921167+849933476+846453657
607+847508317+853965660+860258425+858513010+849499856+842713652
##END=
