##TITLE=<SNM>
##JCAMP-DX=4.24
##DATA TYPE=INFRARED SPECTRUM
##DATE=3/5/2025
##SAMPLING PROCEDURE=Instrument type and / or accessory
##ORIGIN=Admin
##XUNITS=1/CM
##YUNITS=ABSORBANCE
##RESOLUTION=4
##FIRSTX=4497.3318
##LASTX=599.83466
##DELTAX=-1.4281778
##MAXY=1.7240437
##MINY=0.17662703
##XFACTOR=1
##YFACTOR=1.6056408e-09
##NPOINTS=2730
##FIRSTY=0.19948459
##XYDATA=(X++(Y..Y))
4497+124239856+124647019+124834031+124773392+124431563+123693160+122421452
4487+120785335+119386104+118931415+119631880+120871653+121775185+122110991
4477+122231034+122350957+122480624+122824309+123617681+124669849+125445895
4467+125509605+124857102+124043666+123845304+124513250+125440688+125728152
4457+125090590+124112462+123514501+123250479+122657891+121583357+120831125
4447+121048020+121684663+121669239+120789595+119874955+119766113+120493157
4437+121348959+121493503+120601154+119138324+117966344+117638186+118109264
4427+118935916+119562991+119576512+118913875+117855303+116823895+116091700
4417+115528986+114823287+114125662+114069617+114835510+115709743+115939649
4407+115590108+115265188+115299628+115447030+115271805+114706232+114048281
4397+113466496+112875364+112335285+112148153+112449435+112989422+113364809
4387+113345246+113018971+112652641+112390996+112135244+111720470+111134109
4377+110573669+110283532+110317712+110523443+110796085+111260714+112089639
4367+113176795+114059409+114209140+113491711+112355266+111467539+111093433
4357+110921539+110643486+110518886+111021676+112056425+112965209+113296569
4347+113212683+113121066+113159125+113097967+112720603+112225729+112018059
4337+112070429+111873877+111170099+110361544+110004068+110226188+110781636
4327+111374242+111779903+111820830+111472746+111076663+111212799+112041177
4317+112915131+113131256+112872274+112805092+113041346+113186326+113103776
4307+112997793+112983937+112998572+112973877+112977543+113202883+113655400
4297+113927950+113656133+113086041+112797167+113049086+113719167+114644155
4287+115654579+116365680+116292911+115344620+114021832+113004011+112693995
4277+113124203+113996422+114862943+115530740+116123403+116595418+116577953
4267+115920568+115020934+114377943+114032235+113695873+113397421+113617926
4257+114564779+115737222+116507588+116752667+116763785+116931605+117492918
4247+118225827+118594690+118444587+118136289+117900889+117627077+117315892
4237+117167450+117188480+117167645+117057931+117064641+117324477+117690463
4227+117885789+117796530+117519312+117178717+116935586+117110375+117914383
4217+119045259+119924735+120268309+120108304+119531687+118751893+118098564
4207+117736680+117759426+118441293+119809267+121159655+121659531+121273369
4197+120633237+120213712+120057614+120134271+120520748+121134997+121581510
4187+121520481+121114311+120900868+121149382+121521066+121605417+121584090
4177+121893131+122413034+122613567+122376608+122098731+122076579+122216269
4167+122303441+122305195+122334187+122402816+122429154+122490870+122713769
4157+122916279+122830323+122605456+122628917+122986514+123465045+123877517
4147+124080222+123885266+123282544+122659209+122476847+122677046+122773972
4137+122644240+122698818+123115643+123525674+123706839+124002256+124669005
4127+125249315+125094173+124284142+123478845+123032777+122866916+122991822
4117+123497926+124247364+125038777+125761033+126213912+126260603+126112792
4107+125993370+125782842+125408132+125197780+125477421+126089971+126577875
4097+126753110+126895983+127252113+127563085+127436285+126968492+126625475
4087+126657354+126899742+127059951+127064434+127039033+126979656+126768024
4077+126561653+126648676+126875334+126825247+126516967+126321492+126363598
4067+126548837+126879510+127243288+127247390+126712127+126017342+125621807
4057+125566912+125721786+126126202+126772970+127388565+127704687+127702181
4047+127522139+127388258+127526037+127926723+128342926+128572915+128524165
4037+128123210+127507439+127154761+127477453+128321451+129037312+129111352
4027+128726767+128600970+129203591+130269800+131096628+131122465+130310412
4017+129233511+128638222+128730424+129067937+129205642+129143184+129049748
4007+128919059+128745625+128810589+129460503+130594766+131597664+131907262
3997+131530613+130899065+130379589+130084784+130008201+130083717+130189561
3987+130342355+130758372+131446541+131927614+131751461+131218816+131130660
3977+131783711+132618214+132906383+132505122+131875736+131573117+131789613
3967+132360596+133154312+134187696+135239753+135753930+135425614+134606015
3957+133916603+133701221+133937577+134525785+135482884+136672533+137584315
3947+137916177+138076303+138413937+138477388+137782816+136774545+136270428
3937+136608433+137801711+139734999+141778158+142781752+142178853+140867072
3927+140266772+140706436+141174656+140820994+140233547+140491536+141493330
3917+141893143+140702983+138568513+137013685+136819537+137626412+139096138
3907+141881784+146643742+152239062+156045750+156765880+155058805+151555209
3897+147071796+143769421+143744985+146681699+149345335+148975525+147351938
3887+147657832+149565617+150549750+150631196+151443574+151874152+150099061
3878+147876156+147887098+150055451+153000166+156177347+158531088+158243299
3868+156251072+155395056+155907396+155469690+153086808+150416287+149507270
3858+151833392+158470746+168158315+173641795+168782893+159485792+152517551
3848+149557905+150252736+153529034+157844906+162113271+166097819+169096129
3838+169454913+166944369+163479844+160424014+157881638+156162443+155951831
3828+157012908+158512453+161010524+165828425+171389435+173238056+171044218
3818+168705716+166813736+163268249+158688114+155845049+156356665+160103651
3808+165073381+168652539+171189588+174636981+177674732+177066395+173903450
3798+171492040+169916136+167913643+166105095+165877723+167278281+169500517
3788+172217145+175376934+178411772+181090349+184444584+189124335+193659236
3778+196357637+198062002+200965204+206338859+213950508+222176768+229160127
3768+234788643+240182437+245961947+252976581+262815756+275787993+289492351
3758+301311448+312151451+325325094+342955013+363410996+380627227+391103509
3748+399605901+410757321+422833154+430295536+433391142+437965318+447212712
3738+460553256+475069454+487193953+494871643+498533100+500270225+502166344
3728+505050391+508161143+510286602+511321676+511286484+509311666+505801370
3718+503810367+506705737+515500873+527761685+537757348+541212630+541225808
3708+543140117+547928599+553544159+557933950+560440764+562262527+564958589
3698+568606793+572385259+575980973+580375887+587230618+596161473+602607342
3688+602373324+597528900+592744056+590713481+591746401+594566191+598147278
3678+602447568+606036006+606286988+604829466+605009991+605356562+601996499
3668+595769427+590929494+589334546+590472559+593408503+597766518+603072369
3658+607479793+609335783+610803626+615938716+625284112+634619486+637795349
3648+633638499+627686650+624670411+625372166+627980062+630328625+631993028
3638+633885509+636077416+637704623+639127956+642302706+647981782+653004541
3628+653329656+650783085+649886662+652395888+657730918+664395510+670786215
3618+676183239+680455761+682637497+681806706+679596980+679359177+682224255
3608+686251030+689858771+693005383+694982057+694292923+690857057+687317620
3598+686711491+689219456+692375125+694215784+695754195+699446946+705257805
3588+709359567+708571392+704950138+702396810+702154404+702709452+701508852
3578+697419118+692224187+688817350+688591871+691410546+696634952+702658001
3568+706430119+705648849+701312847+696134102+691997074+690108008+691149801
3558+694543274+698669165+701934121+703516708+703548707+702731206+701568766
3548+699628027+697090291+695995117+697195569+698107212+695923397+691326205
3538+687647560+687464400+690590892+694950206+698412874+699929829+700016546
3528+699964352+700427635+700837314+700314042+699084560+698262456+698345832
3518+698520825+697565007+695515723+693701569+693254620+694524193+697073512
3508+699337361+699264751+696296399+692396804+690548424+692177933+696229579
3498+700404100+703183649+704707285+705775732+706481570+706095501+704204356
3488+701900192+701221082+702344394+702808865+700704714+697133055+694188907
3478+692442464+691643376+691755558+692426873+692997587+693378385+693892970
3468+694269759+694080511+693804843+694182968+695352980+697054060+698438711
3458+698168314+695948343+693579438+693081260+694401245+695959183+696628047
3448+696505990+696288826+696406503+696348593+694960823+692157367+689730997
3438+689978453+693423080+697821001+699944678+698205956+693342674+687762713
3428+684506369+685073964+687886998+690458589+692615973+695184594+696659601
3418+694786052+690693274+687870664+687852919+689518065+691539137+693369327
3408+694484176+694514022+693965878+693489677+693166938+693106429+693433177
3398+694180666+695984277+699377453+702574476+702042815+697090959+691711086
3388+690257165+692844496+695858879+696403607+694888435+693284243+692459540
3378+692077703+691512186+689999612+687663523+686231504+687001711+688768943
3368+689166891+687718835+686398478+687332097+690513010+693321959+692661633
3358+688519037+684482017+683735938+685793464+687991682+689108312+689697810
3348+689911856+689412416+688766418+689117593+690816891+693196710+695220974
3338+695819307+694491897+692142667+690283299+689528014+689546426+690172601
3328+691608778+693341857+694053857+693149787+691325166+689555410+688582070
3318+688641985+688697446+687288887+684831780+683275773+683461755+684899342
3308+687447918+690850523+693616189+694663253+695016506+695922506+696580011
3298+695520252+693128851+690993592+689717559+688946237+688584966+688603898
3288+688511687+688261930+688662625+689990629+691411883+692376461+693338516
3278+694597992+695700516+696061045+695213995+693006645+690300152+688467660
3268+687737693+687512882+688234385+690638705+693365169+693927865+691763354
3258+688152791+684343403+681659035+681588874+684085108+687222662+689245218
3248+689806132+689258285+688245671+687694780+687699977+687096150+685357577
3238+683955997+684557523+686628487+687899174+686765393+683589900+680080532
3228+677905404+677479094+678098884+679191237+680486647+681182908+680521616
3218+679328143+679296812+680480633+681123958+680367337+679412038+679457105
3208+680240305+681126705+682122392+682961573+682479951+680256639+677858630
3198+677155465+678099923+679067992+678929675+677821731+676313314+674930964
3188+673979452+673257132+672419510+671253730+669285298+666358523+663681356
3178+662674830+663147838+663950639+664551200+664922494+664724337+663744315
3168+662367088+660982065+659665718+658391170+657308840+656805243+657152334
3158+657963821+658421685+658239490+657728097+656931384+655471820+653265955
3148+651013019+649735872+649648784+649713302+648845983+647388647+646738566
3138+647551167+648931290+649619606+649052010+647168439+644308483+641290611
3128+638957046+637779016+637686136+637866921+637420417+636572401+636290868
3118+636644344+636672259+635892029+634853948+634161622+633714970+632912837
3108+631406425+629740834+629040045+629739869+630709497+630100547+627466071
3098+624498833+623125615+623499211+624354057+624711171+624555778+624130953
3088+623269500+621743710+619966307+618685746+617948577+617029881+615596970
3078+614323907+614134993+615179088+616568936+617276779+617316500+617391338
3068+617382874+616227599+613471771+609971238+606949654+605218951+605197494
3058+606672167+608422470+609055401+608399863+607235456+605993910+604775528
3048+603964894+603625859+602986357+601448986+599450336+598003431+597917010
3038+599107254+600366136+600497363+599493620+597932676+596176581+594807372
3028+594503937+594804551+594197680+592027935+589404744+587801332+587426325
3018+587286746+586591117+585665776+585301757+585563765+585607903+584657430
3008+582856641+580989514+579706837+579359040+579945420+580650330+580240243
2998+578569715+576823643+575864076+575360775+574744958+573993014+573251910
2988+572416256+571320933+570044678+568892336+568116374+567608174+566928061
2978+565909544+565171966+565518909+566782023+567759632+567376384+565578675
2968+563145549+560976472+559521919+558692836+558171086+557621717+556747011
2958+555584052+554627194+554215325+554007145+553364377+552015548+550247909
2948+548661944+547672902+547155421+546669308+545902293+544784251+543475217
2938+542328629+541531916+540798979+539766727+538660676+538186553+538532531
2928+538795243+537883712+535899465+534060960+533220591+533027482+532652624
2918+531863929+531100144+530718529+530514692+529998845+528874158+527157784
2908+525193101+523600640+522783102+522483972+522221668+521923541+521658564
2898+521176832+520306060+519382279+518760967+518263421+517470271+516248511
2888+514739686+513143365+511721851+510786413+510447675+510391323+510055703
2878+509164663+507995133+506971085+506207708+505728685+505745427+506199615
2868+506377430+505565311+503898124+502126475+500770927+499845957+499105262
2858+498202454+496888928+495405495+494434679+494349930+494757789+494977366
2848+494648020+493730809+492351837+490790484+489355718+488218559+487365012
2838+486589236+485658104+484603690+483661273+482909737+482231666+481537113
2828+480769689+479859383+478897885+478203407+478016126+478165505+478180873
2818+477772643+477035362+476110355+474991794+473812724+472889759+472315296
2808+471840208+471224911+470461979+469640357+468723109+467498119+465857919
2798+464153721+463025063+462754332+462920602+462762870+461841984+460307099
2788+458588127+457083608+456153776+455938059+455965975+455411892+454047472
2778+452549449+451615682+451139332+450491218+449366458+448025982+446799470
2768+445758049+444931044+444406213+444058602+443550402+442685532+441501637
2758+440112753+438717967+437589643+436825523+436212082+435434004+434371832
2748+433177059+432101374+431299278+430748350+430240076+429471093+428295401
2738+426877005+425473681+424188702+423073742+422237123+421629621+420953629
2728+419979398+418790083+417667958+416893667+416586111+416502030+416086560
2718+415028285+413639698+412392250+411343738+410388700+409651493+409105725
2708+408266842+406856687+405350015+404371293+403966997+403758371+403411800
2698+402786962+401894846+400770122+399376487+397810012+396468236+395720970
2688+395527527+395535657+395343624+394630881+393366579+391950040+390882485
2678+390280439+389862297+389360741+388791883+388307552+387905483+387399807
2668+386670768+385823198+385042818+384391735+383770758+382998508+381961504
2658+380764653+379660904+378770940+377996835+377273772+376734351+376491202
2648+376384551+376100975+375488982+374655295+373836495+373258839+373002066
2638+372870617+372480353+371606834+370405083+369220073+368251597+367484953
2628+366892188+366563287+366566999+366759662+366847048+366604158+366003338
2618+365228267+364547190+364047230+363569210+362978079+362318160+361679958
2608+361156835+360873668+360782162+360555272+359944912+359074920+358238412
2598+357628572+357303568+357160203+356919021+356331936+355472413+354727003
2588+354409646+354421191+354396208+354123992+353639624+353012113+352317115
2578+351706903+351258691+350878599+350523527+350338993+350408783+350524975
2568+350380755+349932284+349450106+349210335+349225295+349311678+349301024
2558+349094923+348660966+348113193+347678457+347465303+347347811+347107855
2548+346629723+346026342+345635892+345737978+346186560+346468799+346233148
2538+345670861+345277999+345277702+345419137+345413271+345333236+345333682
2528+345247299+344860524+344368843+344142436+344202648+344279824+344239992
2518+344141990+343966217+343591322+343060626+342632794+342478738+342497633
2508+342482747+342304635+341921982+341404463+340926220+340571779+340219046
2498+339752533+339283905+339008719+338930280+338868658+338711149+338532629
2488+338443054+338405449+338265685+337926241+337448554+336983750+336607406
2478+336259016+335878849+335532204+335318901+335224834+335168334+335145652
2468+335190384+335193354+334957518+334504295+334110802+333924597+333759219
2458+333402290+332923156+332549857+332400701+332405564+332382882+332191927
2448+331894765+331722890+331809904+332003644+332018752+331755335+331384931
2438+331107592+330928924+330758014+330616431+330585137+330583689+330410404
2428+330037401+329658682+329394522+329196328+329097212+329239983+329555186
2418+329737381+329651221+329488478+329455996+329541637+329630321+329677355
2408+329714514+329767933+329808730+329771608+329625829+329445899+329379488
2398+329481982+329623379+329652632+329587297+329529906+329496236+329428303
2388+329250080+328819799+327929353+326384074+324068402+321029815+317515844
2378+313792987+309933095+305913391+301860297+297995114+294368756+290876761
2368+287629939+285136155+283856392+283647358+283998031+284818186+286656209
2358+290155295+295471633+302245123+310085184+318610313+326759972+332842899
2348+335612610+335186672+333140877+331157002+329236939+326320298+322221989
2338+317727069+313389657+309198784+305258689+302084625+300018525+298819001
2328+298103678+297750035+297649527+297619699+297788308+298608537+300271307
2318+302371820+304263224+305613167+306582460+307538835+308706564+310101796
2308+311618008+313056932+314212392+315008103+315494550+315765949+315967150
2298+316259078+316675699+317129330+317581847+318046504+318428044+318586109
2288+318577831+318625756+318817528+319028456+319158680+319250520+319321720
2278+319278881+319094681+318898157+318780183+318693058+318621635+318617032
2268+318599362+318419543+318146770+317993122+317969364+317896011+317707208
2258+317543946+317568335+317739245+317797452+317583629+317296490+317220539
2248+317334503+317440858+317497320+317551147+317543909+317453182+317472115
2238+317800385+318352872+318885350+319333710+319817596+320377433+320917002
2228+321370744+321796237+322335397+323112732+324097283+325084469+325897107
2218+326593182+327440493+328673167+330270750+332017268+333754393+335489105
2208+337314358+339339105+341609860+344021307+346390100+348623955+350756727
2198+352892543+355166008+357648321+360230417+362684221+364901556+366994051
2188+369071474+371066597+372928119+374749919+376513067+377988890+379064761
2178+379919459+380826981+381900179+382943308+383617258+383873029+383986400
2168+384082768+383970140+383492046+382763229+382020454+381353334+380672850
2158+379979522+379438172+379100361+378862298+378645728+378321578+377723913
2148+376883990+375992282+375537946+376717721+380673964+387010434+394129177
2138+401054700+407841163+414584268+421168046+427556079+433758761+439898522
2128+446234213+452796459+459258588+465193175+470246931+474282615+477359586
2118+479422977+480339668+480238510+479409316+478170888+477224387+477709275
2108+480610028+486341112+494896514+505941580+518352588+529877827+537878663
2098+540523682+537311773+529254325+518486153+506765615+494686255+482462937
2088+470253316+457794792+444941401+432187980+420097855+408967000+399078583
2078+390577007+383401950+377589309+373082026+369422611+366150379+363148617
2068+360487747+358338271+356785939+355536077+354242560+352921758+351661688
2058+350484215+349611327+349200869+349005087+348753511+348489796+348429250
2048+348883179+350145810+352309096+355508310+360191254+366893525+376072280
2038+388118267+403067827+420428946+439410256+458854960+477020327+491995725
2028+502259075+506918223+506106402+501076144+493566692+485111185+476513575
2018+467684583+458310343+448604194+439118180+430187362+421815751+413837225
2008+406108530+398610808+391365962+384417535+377949578+372194884+367187271
1998+362809916+359068387+356084295+353729051+351469916+348854446+346027232
1988+343458871+341404278+339876484+338801393+337976281+337139811+336192048
1978+335227284+334407666+333824851+333394606+333002672+332781610+332934850
1968+333248531+333168459+332494026+331628117+331009776+330662759+330406951
1958+330177277+329958703+329671304+329268159+328775772+328247154+327835471
1948+327842599+328543908+329863151+331101467+331240638+330004103+328271655
1938+327018193+326450337+326306563+326365030+326520201+326705996+326841492
1928+326927578+327258298+328122833+329209432+329982052+330588701+331381219
1918+331812799+331068577+329551140+328485329+328468699+329106938+329597394
1908+329458261+328859965+328272583+327907748+327679187+327558170+327736689
1898+328409303+329396118+330161055+330537955+331079974+332054278+332625067
1888+331946439+330518354+329405176+328910599+328704832+328541012+328421331
1878+328421814+328570265+328879268+329650256+331543813+334731593+337796536
1868+338393421+336051912+332887928+330923801+330406209+330437688+330251930
1858+329810549+329514797+329581506+329828850+330116991+330684030+331913549
1848+334134448+337386672+340525933+341227243+338867692+335798183+334158837
1838+334013987+334336689+334653563+335718185+338414433+341980709+344148784
1828+344040016+343047484+342004615+340398605+338392085+337162826+337212087
1818+337852925+338350991+338924786+340288130+342387046+344065259+344337549
1808+343609438+343102276+343723439+345718563+348551085+350930236+351819123
1798+351735784+352381150+354971785+358915778+361530468+360514661+357335382
1788+355231862+355467587+357160054+359163270+361176955+363035952+364328429
1778+365371447+367498948+371824555+377764302+382489008+383386359+381284102
1768+378528162+376582634+376549521+378907289+382266053+384417869+385301744
1758+386291084+387468112+388605531+391007734+395895072+401886827+405668931
1748+405924070+404424489+403271627+403519937+405277108+407579602+409066524
1738+410292071+413736141+420019082+424980404+424297915+420408975+417048726
1728+415139762+414885180+416383536+419049120+422729584+428679800+437790622
1718+447626734+452490797+450268820+445119141+441178378+440097719+442306739
1708+447517707+454143284+459973855+465179588+472266369+481468400+488555478
1698+490912207+490397065+487859143+484414516+483287008+486052303+491604533
1688+498985357+509135077+521445966+529312755+528197053+524129035+523249689
1678+526999013+534224074+542168448+548570624+554244615+560532010+565610266
1668+567061849+567175739+569944820+575809024+581512823+584346867+585972627
1658+590027466+598912772+613155492+628680184+635286865+633610806+634475749
1648+640323879+645619708+644994944+641321645+639653604+641346294+646229029
1638+653951450+661926301+664338045+659702914+654194376+652230473+653503090
1628+655831755+658146239+660950140+663780769+665004460+665366919+667879412
1618+673319274+677738726+676520010+671290333+666149006+662369835+659247798
1608+656139719+653345099+651621894+651350309+652324763+654141515+656616069
1598+659697272+662979898+665559805+666619268+666057686+664388160+662216595
1588+659980142+658006809+656527496+655522157+654935332+655408787+658220780
1578+663597312+668698621+669619396+668121225+669285372+674163206+679281517
1568+681741891+683626131+687988489+695385870+706155045+722370986+743760105
1558+760147476+765139200+767628232+773549196+782210136+791421745+800117877
1548+808489860+817338637+826995785+837004923+846835875+854009410+852850758
1538+844674111+837970615+835633412+834751764+832372242+830012692+830839251
1528+835040277+840490087+846048294+852322437+858512906+861834957+862037791
1518+861628038+861400183+860878916+860776236+862617266+867596815+875986616
1508+884984773+886649102+877842421+868289364+864828254+866904712+871342057
1498+874450878+874078173+871630198+870421727+872250061+876298070+879369398
1488+878328422+873825520+869218528+866872045+866943839+868456339+870913000
1478+874542718+879297307+884316725+887778800+887404016+883634051+880480535
1468+880710246+883348805+885088641+884215456+883356156+885946976+892228617
1458+898043634+897032727+889925864+883666793+880996828+880814781+881456102
1448+881652551+880832155+879395087+878103537+877320262+877304374+878505866
1438+880665254+881857836+880466354+878180677+877590956+878804401+879964242
1428+880095579+879985921+880057195+880023860+880619445+882968824+885762480
1418+885525864+881520842+876513452+872671693+870457884+869424036+869004705
1408+869214073+870191793+871118656+870983755+870358323+870531311+871568204
1398+872762271+873981136+874907182+874158653+871134247+867171100+863491193
1388+859766146+855473726+851851878+851012846+853461935+857740100+862258519
1378+866746646+871535017+876080832+879194405+880818048+882385563+884969850
1368+888253145+891578759+895008686+898545599+901031735+901203684+899688215
1358+898413815+898369269+898899743+899079042+899186622+900164416+901963349
1348+903499236+904203515+904604730+905488383+907286723+909936864+912725545
1338+914715880+915715725+916415994+917618228+919604480+921966035+923941372
1328+925165360+926056214+927428096+929696549+932372230+934580174+936165582
1318+937592033+938694037+938912612+938777933+939475159+940970360+942009703
1308+941900861+941129391+940479236+940491189+941454951+943132867+944475051
1298+944176738+941943551+938968592+936693605+935429823+934677063+934022601
1288+932968336+930842431+927969558+925948189+925654702+925840312+924657976
1278+921934852+918940218+916519862+914525295+912749303+911390711+910449074
1268+909570915+908929224+909237114+910175930+909965819+907547913+904023102
1258+900794971+897578941+893343837+888228644+883495437+880005299+877508174
1248+875336758+873327343+871882776+871206784+870778396+869894520+868496653
1238+867129226+866356494+866515599+867679523+869421363+870888574+871606959
1228+871993177+872713344+873868656+875274319+877174744+879885543+882860354
1218+885041050+886148103+886836643+887832849+889596740+892214288+895051673
1208+897296294+898995889+900644255+902181998+903495079+905301362+908564982
1198+913385649+918817418+923450842+926301071+927534265+928145368+928763375
1188+929236310+929503291+930128204+931608407+933842931+936699990+940292141
1178+944331611+948020724+950869691+953054991+954825489+956137901+956919840
1168+957329221+957788940+958790196+960681266+963609377+967267828+970570723
1158+972237428+972225178+972024273+972964129+974744650+976067456+976328275
1148+975948220+975418043+975094710+975648125+977682116+980865552+984326736
1138+987616639+990227060+991247693+990614539+989976857+991499974+995566172
1128+1000295519+1003535158+1004599818+1004275149+1004241516+1006159240
1120+1010105832+1014094742+1016071638+1016249304+1016399426+1017076977
1111+1016926410+1014847725+1011633997+1009536157+1010654718+1014899622
1103+1019295464+1020745005+1019919782+1020207849+1022657383+1024906607
1094+1025554386+1026719350+1030641292+1035945213+1039271273+1039586365
1085+1038552739+1037605682+1037207139+1037733678+1039204527+1040888828
1077+1041865212+1041515002+1040053434+1038776882+1038877705+1039826396
1068+1040076227+1039739307+1040780877+1044184596+1048219315+1050653852
1060+1051996481+1054465319+1058763753+1063728304+1068330025+1072075861
1051+1073741823+1071973181+1067555289+1063245495+1060649106+1058748755
1043+1056302785+1054178960+1053832166+1055158461+1057201064+1059203723
1034+1060606936+1060930714+1059780674+1056954871+1053323223+1051323088
1025+1052732463+1056477927+1059838584+1060993079+1060077724+1058741405
1017+1059016628+1061598391+1064690730+1065551590+1063434298+1060160655
1008+1058065339+1058157476+1059578210+1059985810+1057464333+1052907827
1000+1049398236+1048751868+1049988105+1051275200+1051798175+1051591406
991+1050444409+1047938153+1044761695+1041832915+1038891663+1035429737
983+1031742480+1028653036+1026532403+1025076552+1023782478+1022181627
974+1019935745+1017004589+1013415260+1009255811+1004587271+999081703+992661151
964+986679382+982976014+981389641+979759316+976599043+972306029+967948720
954+964104288+960863238+958454538+957324989+957141161+956391073+954093591
944+951257988+949553938+949442275+950294820+951234155+951358960+950174322
934+948421642+947790939+949140028+951268902+952067990+950884986+948994138
924+947662794+946886869+946205012+945650334+945547506+946106044+947097425
914+947559891+946296406+943205255+939957671+938760857+940173870+942329843
904+942872493+941500537+939745779+938872372+939139353+940309217+941603885
894+941803378+940346265+937780835+934965798+932671582+931582645+931589921
884+931508772+930437950+928986256+928383988+928916986+929993673+931259980
874+932673661+933658954+933098189+930546272+927031113+924147993+922815090
864+923047102+924384015+926093113+927130303+926891237+926228609+926669024
854+928310635+929531875+929123756+927912984+927822554+929397939+930573148
844+928939111+925300855+922818208+922759778+923590272+923857254+923465393
834+922568228+921749316+922196265+923736458+924438956+923883387+924572818
824+928195037+932738625+934703642+932753325+928490602+925019396+925314887
814+930590521+939217161+947512078+952266148+952741310+950305585+946763995
804+943385371+940626981+938121170+935483873+933496582+933492721+935393369
794+937972459+941124862+945635411+950439373+952550503+950591499+946347931
784+942250847+939587119+938917660+939874221+940887875+940796703+940049660
774+939172911+937648384+935519807+934210364+934710472+936267964+937658036
764+938765460+940141574+941554067+942050017+941532016+941125530+941369570
754+941010303+938967998+936630572+936750773+940068963+944266276+946706530
744+946898080+945631105+943686282+942348924+943278831+946424106+949364319
734+950105794+949433886+949282056+949923971+950013954+948429141+945439184
724+942883555+942858386+945217788+947046122+946134183+943897209+942704775
714+942275422+941067843+939747412+940607455+943819030+946005295+943916141
704+938938597+935476003+935312369+935868160+933872257+928711701+921987046
694+915927840+912538302+912800680+915665016+918206687+918016325+915407389
684+912269390+909314402+905635832+900405412+894010623+887797880+883446956
674+882003206+881875061+879470370+874244851+872154732+877667947+882925392
664+880916570+875151148+872221477+874003632+877095971+877968710+875935017
654+872273819+868462204+864869385+861599974+860399299+863201270+868705799
644+872059922+869990815+865084025+861450818+858632588+853315748+845907231
634+841192882+842147883+846764081+850795682+851700940+850080860+847715445
624+844991653+840849651+835071682+829968591+828332994+830163185+832785336
614+834522202+836496871+839865621+843000279+842770716+839107515+836136639
604+837682920+843598983+849562043+849507770
##END=
