##TITLE=<SNM>
##JCAMP-DX=4.24
##DATA TYPE=INFRARED SPECTRUM
##DATE=3/5/2025
##SAMPLING PROCEDURE=Instrument type and / or accessory
##ORIGIN=Admin
##XUNITS=1/CM
##YUNITS=ABSORBANCE
##RESOLUTION=4
##FIRSTX=4497.3318
##LASTX=599.83466
##DELTAX=-1.4281778
##MAXY=1.7195057
##MINY=0.17963463
##XFACTOR=1
##YFACTOR=1.6014144e-09
##NPOINTS=2730
##FIRSTY=0.19972122
##XYDATA=(X++(Y..Y))
4497+124715509+124783463+125376033+125939070+126025131+125487265+124715174
4487+124431753+124885744+125588987+126012784+126051921+125767783+125296047
4477+124972010+125045650+125415384+125910754+126485459+126936221+126881499
4467+126258240+125597771+125613590+126457814+127417206+127556083+126723732
4457+125694981+125337622+125846215+126594774+126658123+125759381+124650643
4447+124252371+124585862+124881184+124566573+123781659+122962167+122259714
4437+121600241+121036944+120616275+120136844+119470857+118868209+118576507
4427+118492855+118481094+118674172+119173497+119664848+119671175+119219557
4417+118967177+119468000+120528026+121435096+121579389+120790185+119401135
4407+118044736+117164799+116726357+116451124+116227990+116164865+116244534
4397+116203276+115945751+115752551+115835896+116129739+116674351+117590847
4387+118550183+118836721+118078987+116688997+115554764+115262624+115541644
4377+115697270+115454093+114906094+114074283+113195909+112970598+113880441
4367+115517786+116861400+117123922+116379066+115356493+114561325+113862724
4357+113034524+112300331+112172480+112954193+114382269+115719984+116324008
4347+116067618+115227023+114246956+113594126+113485853+113709843+113856992
4337+113696816+113353238+113206629+113533709+114177717+114697811+114885325
4327+114967786+115208674+115449608+115260475+114590506+114017764+114111875
4317+114715453+115156073+115092445+114879724+115056091+115690161+116337985
4307+116531826+116241780+115839088+115669830+115802863+116196725+116833522
4297+117494326+117738499+117433955+117045034+117074261+117450230+117768666
4287+117869225+117844241+117704684+117423283+117153847+117087474+117252294
4277+117647440+118269172+118852530+119030879+118894124+118901484+119170957
4267+119339759+119222060+119134714+119382860+119825899+120208725+120580543
4257+121016538+121286523+121222802+120990243+120731275+120504233+120589523
4247+121164069+121806673+121997751+121804067+121599404+121568530+121721988
4237+121917430+121864708+121537404+121357148+121602949+121965965+122023861
4227+121908665+122138991+122796473+123279589+123175094+122919513+123036942
4217+123214677+122941771+122545573+122710383+123444083+124202487+124606314
4207+124613889+124414027+124328728+124503168+124832975+125334151+126086163
4197+126748009+126786885+126233368+125616288+125228968+124921279+124484568
4187+124003006+123873806+124368386+125129767+125530682+125584875+125882439
4177+126559304+127062862+127083063+127021576+127328297+127909310+128381725
4167+128552453+128490063+128371164+128329719+128282450+128013210+127634841
4157+127655163+128241750+128791796+128680453+128152022+127989547+128490556
4147+129178568+129416357+129045265+128476403+128253400+128473705+128725889
4137+128724670+128742601+129143200+129817775+130420413+130858465+131247572
4127+131595905+131754378+131573266+131060746+130472084+130195800+130426508
4117+130943885+131346075+131521520+131715492+132052557+132271085+132122381
4107+131780600+131652051+131966160+132642577+133362403+133744476+133634016
4097+133253786+132983680+132942273+132859942+132444018+131777157+131239263
4087+131143030+131548216+132265055+132966075+133444724+133737357+133920638
4077+134012190+134122407+134405103+134838483+135257143+135563463+135793027
4067+136014421+136182814+136117632+135751471+135347308+135272394+135558113
4057+135829912+135714363+135272022+134941908+135007024+135234913+135188742
4047+134822088+134565493+134786375+135346592+135835830+136052562+136031207
4037+135825799+135586754+135646725+136201247+137019891+137659201+137870657
4027+137780073+137778137+138178866+138879291+139415147+139416897+138988671
4017+138606822+138604282+138876434+139128572+139198434+139086188+138930496
4007+139006620+139510542+140349183+141263911+142030857+142461874+142391742
3997+141787755+140849411+139972749+139550889+139709967+140196339+140567897
3987+140587252+140420087+140343889+140399635+140596231+141166609+142158773
3977+143090678+143461678+143234524+142578856+141710523+141084390+141094448
3967+141594946+142190447+142746346+143248398+143538611+143486010+143166932
3957+142789289+142566909+142602594+142874932+143386977+144100643+144649182
3947+144549172+143882682+143330645+143392272+143881752+144341484+144702481
3937+145232819+145973209+146544889+146568394+146088125+145499296+145163711
3927+145190686+145472535+145819658+146213892+146867940+147802925+148554239
3917+148578869+147899204+147046382+146504413+146455310+146814688+147380609
3907+148080233+148994607+150026355+150794427+151069874+150931648+150452263
3897+149736058+149161399+149133605+149588238+149898923+149681167+149617959
3887+150448802+151566751+151750460+151200255+151010657+151036524+150497951
3878+149870692+150225826+151700315+153644716+155402430+156315921+156019184
3868+155273593+155095524+155430876+155563463+155280442+154944820+154894787
3858+155425023+156929306+159370138+161197193+160698929+158898989+157499424
3848+156950708+157012661+157506272+158427095+159737239+161289964+162745229
3838+163564050+163629092+163510212+163580223+163653323+163526012+163314695
3828+163111120+163009938+163584801+165303211+167237627+167732411+167221846
3818+167329914+167794680+167368251+166274913+165656466+166061177+167385056
3808+168897006+169782228+170457232+171785185+173232615+173634052+173412834
3798+173433938+173363537+172838642+172482688+173099833+174804565+177080772
3788+179329940+181401047+183523852+185879543+188505153+191285320+193884504
3778+196190804+198662398+201828834+205900125+210841043+216283295+221559472
3768+226349221+230850607+235325586+240227442+246326404+254074845+262971095
3758+271966145+280781330+290145584+300692708+312006043+322548627+331334780
3748+339617383+349351158+360576449+370621606+378119128+385203099+393924787
3738+404929252+417972963+431603150+443601948+452844195+459476724+464078791
3728+467726128+471596226+475769891+479257702+481536832+483358304+486043169
3718+490320565+496218447+503938842+513621402+523701210+531533712+536711610
3708+540668282+544778970+550312058+557557489+564937620+570749448+574965879
3698+578116068+580663144+583649305+588104948+593790973+598814556+600958726
3688+600815466+601506827+604140031+607188237+609310224+610541275+611231446
3678+610906106+608738301+605828925+605063087+607204056+610407506+612417498
3668+612884014+612934261+613361918+614418780+616069524+618309871+621380744
3658+625373631+629751298+633596571+636454472+638635638+640934717+644056508
3648+647651513+650938932+653964992+656844778+658962298+659950266+660723474
3638+662349765+664600235+666306698+666790483+666423271+666029185+666298063
3628+667063976+667832866+668807063+670899794+675151360+681296234+686786407
3618+689578428+691889492+696632213+701964425+703221270+700074989+697449341
3608+698798864+702965866+707394897+710492941+711677579+711802564+712295878
3598+712937551+712132184+709661521+707150436+705765406+705420376+705662976
3588+706004209+706263632+706585958+706527671+705829349+705858828+707893868
3578+710484753+711504878+711798767+713439053+716130654+718141428+718752431
3568+718077558+716343999+714296899+713065141+713039906+713906238+715476922
3558+717604566+719723799+720922431+720422567+718486159+716264795+714079311
3548+711482993+709283887+709540035+712661229+716180752+717786349+717855578
3538+717718608+717604045+717614318+718367874+719286612+718909276+717605757
3528+717050658+717307253+717642456+718920517+721329469+722049825+719600452
3518+717512707+719175101+722185529+722180467+720182945+720530579+723398455
3508+724803807+723271534+721646882+722197216+723703361+723504308+720297508
3498+715391614+711796162+711188136+712496121+714308586+716661039+719265174
3488+720692858+720329666+719314453+719170263+720189942+721213492+721207090
3478+720566385+720140811+720078580+720352668+721480806+723849040+726825226
3468+728816570+728602927+726779817+724867454+723727777+723249872+722937373
3458+722662392+722848641+723550015+723922587+723499246+723036081+723385130
3448+724656788+726471115+727820861+727368786+725087201+722425822+720569437
3438+719991559+720744892+721912335+722239424+722078038+722734003+723839586
3428+723640087+721558745+718955727+717640521+718634444+721645095+725364117
3418+728120184+727980534+724511630+720301676+719143613+722354434+727321592
3408+730109221+729042198+725451882+721837671+719785360+719198327+719190213
3398+719330904+719921735+721286145+722869782+723514656+722854373+721711347
3388+721074661+720975805+720920422+721619339+724798373+730120014+733944890
3378+733397905+729976047+726332284+722705791+719098056+717232143+718281970
3368+721482592+725471013+728889670+730398197+729643971+727457072+724974275
3358+723476244+724143822+726618059+728818133+729235221+728473476+728133583
3348+728624961+728401939+726336080+724206203+724536196+727154474+730000389
3338+731955481+733330537+734653931+735995787+736739368+735773732+732661545
3328+728897263+726821504+726892445+727261072+726576075+726066310+727610419
3318+730445317+731836526+730856598+729449310+729986767+732717598+735279897
3308+734908814+731173861+726304294+723330640+724132284+728040161+731623777
3298+731380507+727375337+723134044+722232203+725358758+729752430+731772136
3288+730753275+729282564+729695706+731421970+732357681+731989575+731636729
3278+732312123+733692837+735037446+736286475+737825745+739331294+739485311
3268+737392802+734119676+731931586+731743849+732204260+731417578+729015697
3258+726659671+726723094+730182097+735263967+738185886+736211886+730606480
3248+726005567+726323872+731347158+737196802+739938650+738656570+735236499
3238+732046819+730201377+729554196+729492783+729289413+728616624+727959096
3228+727832920+728210628+729064009+730277827+730764814+729361322+726631979
3218+724297467+723407909+723873307+724775892+724978295+724320841+723884548
3208+724541406+726109187+728047233+729787863+730361274+728942746+726099063
3198+723420340+721709783+720627872+720029524+720415867+721913302+723562669
3188+724013255+722548127+719491322+716081822+713813039+713570142+715074202
3178+716810068+717025423+715516599+713651505+712313520+710908688+708339615
3168+704605854+701517338+701249875+704000582+707344948+708551620+707611964
3158+706904338+708098206+710531501+712300567+712026256+709780625+707124159
3148+705858902+706203634+706616776+705664688+703489775+701147892+699325750
3138+697896577+696431225+695322739+695756054+697736307+699190790+698307560
3128+695716155+693285093+691861503+691034623+690336822+689632843+688529196
3118+686649437+684760671+684312170+685530008+686908339+686790650+684988755
3108+682703671+681322213+681487619+682754439+683871857+683515141+681159859
3098+677913233+675955312+676425476+678337318+679758750+679329678+676749885
3088+673026024+670293257+670275392+672663501+675367981+676427560+675588174
3078+674134287+673447131+673826998+674591869+674958263+674479614+673038083
3068+671008179+669052194+667303598+665532670+664223941+664118013+664712267
3058+664638274+663435696+661678316+659898381+658543052+658148446+658535236
3048+658517147+657471340+656636867+657540718+659500649+660183338+658734586
3038+656687710+655487811+654893483+654002212+652477756+650593530+648886770
3028+647772106+647157752+646656548+646214300+646145815+646416181+646245788
3018+644943758+642884971+641053970+640079997+640011066+640390040+640394581
3008+639610206+638636010+638416561+638978360+639250363+638220412+635899372
2998+633203826+631160224+630270294+630429521+631006580+630910850+629266471
2988+626373956+623431343+621297111+620156541+620032003+620755634+621632984
2978+621814655+620973780+619550153+618516591+618493477+618852017+618436791
2968+617342262+616814929+617217129+617380078+616393152+614922330+613995068
2958+613406843+612139093+609943485+607782380+606809747+607271126+608130834
2948+607878296+606171796+604304245+603576259+603778773+603693167+602511135
2938+600380178+598051062+596315084+595478379+595223757+594950227+594145679
2928+592747436+591293771+590469237+590440019+590758362+590985031+591127026
2918+591288523+591260497+590659059+589257353+587167451+584915678+583106376
2908+581701880+580066358+578009767+576163358+575101248+574749668+574803190
2898+575072291+575204198+574679210+573455975+572126216+571091314+570115219
2888+568902220+567495341+565994556+564489863+563176034+562057797+560906396
2878+559719227+558638098+557544351+556434078+555833794+556195684+557099609
2868+557374628+556118639+553755913+551807669+551253315+551537006+551474327
2858+550521197+548926209+547312685+546181308+545402443+544463531+543350355
2848+542554257+542200815+541899855+541354172+540533136+539490381+538449561
2838+537743051+537356521+536922796+536267761+535475831+534489353+533194097
2828+531789674+530537817+529246804+527526793+525513266+523887459+523092812
2818+522770003+522164806+521103031+520243956+520106652+520279055+520013899
2808+519155532+518025086+516858016+515755001+514777343+513808320+512624911
2798+511228788+509876474+508842800+508321758+508272069+508202579+507528748
2788+506337299+505346651+504888845+504414179+503328360+501854597+500608173
2778+499678715+498642622+497253535+495670531+494153928+492845049+491742742
2768+490769327+489938725+489379011+489049465+488586486+487619845+486116194
2758+484275889+482297385+480450492+479169714+478682579+478564070+478060521
2748+476955459+475714917+474744405+473974100+473153995+472084403+470627724
2738+468900046+467295976+466071029+465131559+464299319+463452527+462411409
2728+461027868+459405485+457884304+456785011+456120336+455565423+454824522
2718+453922942+453014364+452142449+451290334+450381161+449300292+448217674
2708+447587130+447448411+447108928+445949599+444283260+443042382+442685405
2698+442615283+441808911+439989710+437906022+436430584+435742349+435404392
2688+434920234+434150710+433304588+432554829+431783184+430815166+429734818
2678+428796911+428113180+427519112+426752640+425779225+424870797+424274644
2668+423874827+423299666+422369129+421339401+420577842+420058363+419416764
2658+418475954+417380905+416241601+415059568+413993289+413289943+412948338
2648+412698517+412251096+411494860+410601356+409899275+409482411+409032831
2638+408200145+407036909+405895595+405027513+404418705+403944113+403560635
2628+403286175+403036317+402635309+402051885+401465335+400984825+400473832
2618+399818648+399203253+398833137+398467413+397605994+396216348+394901849
2608+394215810+394102140+394079771+393737719+393036383+392262914+391682766
2598+391274462+390893664+390504753+390071400+389469143+388697796+387946213
2588+387341053+386864525+386531071+386401210+386411223+386363507+386123363
2578+385756151+385429433+385187615+384887101+384398291+383807498+383324456
2568+383018917+382750896+382378436+381943408+381603999+381461037+381488915
2558+381540800+381387379+380868234+380081031+379375563+379055285+379036080
2548+378918390+378504467+378076511+378008733+378330202+378821134+379261075
2538+379445649+379265467+378877671+378539044+378273256+377956923+377644573
2528+377516201+377567230+377611819+377565145+377503918+377445892+377245947
2518+376771392+376091382+375405715+374825902+374349672+374024705+373938689
2508+374014879+374025412+373839647+373497111+373078907+372651733+372270303
2498+371980582+371874915+372041474+372364916+372556115+372475385+372239782
2488+371981773+371699720+371363363+370983868+370536856+369995454+369531692
2478+369473220+369869092+370312642+370407442+370167857+369801910+369431757
2468+369147098+369016195+368982846+368934721+368805940+368538030+368102928
2458+367612443+367264064+367140196+367096313+366884978+366459591+366078495
2448+365973312+366052553+366122043+366192686+366312609+366305388+365970148
2438+365410024+364908410+364567475+364278499+363975677+363718933+363537002
2428+363337912+363012386+362575274+362189489+362049393+362213868+362524655
2418+362725829+362737293+362769414+363044768+363456979+363675423+363551295
2408+363241252+362965154+362789327+362638362+362434657+362207578+362058996
2398+362044964+362133287+362249860+362312501+362251423+362052557+361738941
2388+361247823+360373004+358898608+356718112+353719855+349666932+344405960
2378+338179165+331548274+324971797+318557228+312246987+306120761+300383354
2368+295184018+290734069+287479720+285742830+285347814+286042581+288051456
2358+291827127+297558300+305359016+315545498+327652270+339248868+347041024
2348+349136324+346107360+340673091+335842159+332596203+330028246+327121364
2338+323603106+319855499+316398022+313434938+310997102+309288015+308559434
2328+308707625+309207899+309579802+309972435+311099327+313416662+316558738
2318+319697463+322251388+324205959+325962482+327938976+330220859+332590061
2308+334877528+337116088+339259066+340979970+341988521+342433895+342773118
2298+343314558+344052035+344857959+345658748+346402478+346985119+347358175
2288+347674173+348118431+348595145+348834991+348805661+348714174+348613532
2278+348316665+347739011+347085353+346634693+346470181+346470851+346497165
2268+346508145+346513468+346508927+346478406+346391572+346222631+346031990
2258+345949957+346006978+346078812+346058974+345991457+346002660+346168103
2248+346447328+346710994+346871003+346999337+347237806+347590131+347907245
2238+348084152+348177164+348313092+348551374+348836182+349048633+349118756
2228+349090134+349061847+349108744+349280812+349603509+350022979+350400501
2218+350621662+350706077+350794289+351024420+351409312+351823682+352123043
2208+352297195+352505069+352934215+353619547+354411775+355109166+355617852
2198+356010002+356429545+356939869+357492846+358023082+358498717+358920717
2188+359339628+359800263+360251742+360632130+361007643+361469840+361986901
2178+362519742+363146304+363890183+364564981+364994835+365316825+365866044
2168+366785415+367941058+369216811+370653019+372284781+374103723+376203675
2158+378730169+381688489+384951082+388355744+391675657+394661817+397273098
2148+399747744+402348529+405124396+407957583+410717297+413310637+415725955
2138+418137960+420857848+424044960+427533702+431032493+434414637+437755765
2128+441199620+444862515+448719214+452440618+455474718+457437738+458311329
2118+458216343+457257965+455670533+453805885+451837766+449661103+447154708
2108+444437499+441821008+439508418+437371431+435150998+432840306+430615220
2098+428402342+425823703+422592933+418732772+414427423+409898196+405413670
2088+401224522+397416655+393876438+390472446+387303833+384673719+382724507
2078+381215646+379801137+378407360+377183343+376201628+375367677+374557472
2068+373738669+372960808+372261854+371650515+371200116+371001696+370953459
2058+370801043+370472242+370138081+369905232+369725646+369620834+369708785
2048+369984660+370302184+370584162+370888734+371300424+371930037+372999740
2038+374723026+377050988+379692976+382453025+385390092+388543333+391651799
2028+394269816+396053063+396854112+396673856+395646509+394003581+391952052
2018+389616907+387133886+384707849+382494041+380472437+378519950+376570441
2008+374642780+372771470+371021721+369522908+368350032+367390537+366430894
1998+365371539+364312295+363439523+362829896+362349945+361776719+361025508
1988+360203691+359476151+358934712+358548257+358221428+357925454+357706080
1978+357540525+357327106+357049407+356778967+356508154+356186722+355903552
1968+355805515+355851221+355851593+355726236+355541774+355354483+355154239
1958+354921279+354657129+354360858+353994315+353522217+353027154+352699469
1948+352654284+352845967+353169185+353498731+353642214+353453471+353018705
1938+352597002+352370928+352287927+352171280+351987971+351866076+351839054
1928+351827665+351892651+352175262+352587213+352910283+353137250+353325658
1918+353284790+352859477+352349117+352216614+352565291+353077736+353304443
1908+353029387+352458953+352017077+351942451+352147831+352413098+352604744
1898+352718376+352784554+352786415+352729394+352741490+352939017+353203986
1888+353276751+353062848+352660276+352183190+351739677+351460006+351410950
1878+351541257+351765098+352065352+352511880+353174694+353947902+354439913
1868+354251654+353490133+352685586+352215125+352102609+352202396+352386635
1858+352614570+352887504+353146667+353293202+353345906+353459650+353786739
1848+354431613+355401417+356384137+356785778+356406283+355721360+355238952
1838+355124501+355301556+355656747+356246721+357207406+358352814+359156283
1828+359413957+359446375+359441462+359286180+359041980+358976622+359172064
1818+359522527+360014241+360706793+361515361+362240220+362762566+363115895
1808+363431558+363871759+364559845+365514203+366629091+367698980+368535015
1798+369197233+370052437+371443870+373227973+374650708+375123141+375138104
1788+375630896+376936686+378736422+380583203+382300609+383867645+385249996
1778+386600486+388367134+390880712+393810521+396181435+397398901+397933046
1768+398424312+399169085+400446661+402387572+404573577+406378450+407834459
1758+409459558+411392840+413415970+415525078+417879913+420295231+422269268
1748+423636507+424731669+425983303+427707408+429940310+432230345+434040130
1738+435704310+438256002+441988312+445510924+447245153+447800066+448429828
1728+449526999+451204207+453564923+456414672+459518634+463128490+467625596
1718+472479568+476032031+477489864+478045856+479070821+481025578+483800664
1708+487188502+490885751+494499180+498165574+502597433+507841545+512547307
1698+515899675+518732452+521537165+524251768+527321190+531216933+535793765
1688+540839271+546738641+553625792+559838926+563624163+566067061+569022477
1678+573373570+579135784+585365072+590835184+595612259+600596650+605812288
1668+610543322+614989251+620069037+625934611+631725224+636761164+641456021
1658+646576971+652550856+659442213+666410690+671533204+675094191+679320298
1648+684793350+690270273+694072743+696284057+698179449+700611701+703925249
1638+707898484+711254909+712290965+711498551+710925884+711076327+711362996
1628+711506516+711514332+711014095+709581125+707713649+706533254+706344400
1618+706207654+704612553+701094668+696907269+693202762+690146256+687334360
1608+684426957+681605308+679243699+677401235+675966330+674942556+674346069
1598+674060145+673847916+673381401+672432291+671125199+669779324+668530444
1588+667326377+666161763+665051193+663907124+662820747+662383189+663226222
1578+665135459+666771278+667010974+666873633+668021572+670659725+673733502
1568+676307786+678768251+681989865+686279545+691620243+698276072+706400304
1558+714485307+721132278+727689548+735438752+744115106+752883468+761389727
1548+769673410+777786328+785699523+793213943+799942351+804978887+807081222
1538+807129905+807516249+809032145+810850416+811766252+811719355+811879326
1528+813515294+817290667+822772429+828680434+833524766+836251428+837449093
1518+838689115+840692593+843401316+846621962+850147515+853940308+857985749
1508+861251655+861743034+860302545+860431178+862784226+865819815+868152318
1498+869138127+868757143+867838627+867853292+869587744+872370535+874637233
1488+875777356+876710312+877887655+878710887+878995025+879540149+881019569
1478+883234531+885714277+888026904+889329902+888993061+888012314+887800085
1468+888285732+888637684+888657634+889150055+891021625+894387430+898623661
1458+902355041+903579355+901713144+898570362+896149573+895407183+895911068
1448+896310215+895969726+895426165+895252944+895793899+897357362+899492376
1438+900681555+900000355+898945391+899306425+900572351+901450446+901740390
1428+901980533+902315066+902681237+903207825+903603697+902911033+900695773
1418+898271337+897271905+897427559+897589466+897442075+897365849+897555894
1408+897836607+897723905+896583186+894520528+892619703+891669849+891716597
1398+892647097+893913768+894174531+892633549+890234720+888205411+886510115
1388+884453263+881932725+879836569+879223928+880416754+882956796+886140297
1378+889566100+893285271+897336370+901066559+903427795+904189391+904248199
1368+904839550+906578692+909026204+911308460+913095914+914714239+916426136
1358+918139893+919632862+920697131+921289524+921557434+921714726+922134418
1348+923353522+925421763+927609703+929262197+930447207+931586586+932943404
1338+934402279+935499152+935838599+935521931+935031297+934780732+934896933
1328+935417641+936641955+938888852+941634125+943498326+943605668+942578917
1318+941942679+942746258+944733732+946697459+947621036+947385657+946454561
1308+945427959+944853431+944744154+944450413+943630903+942931614+943052728
1298+943660977+943771818+942957742+941488892+939653723+937701832+935931425
1288+934284887+932306123+929846104+927419881+925722649+924880659+924099262
1278+922212580+918823774+914682751+910888842+908117292+906453781+905369339
1268+904009246+902045519+899974003+898341385+897032208+895480209+893346684
1258+890800315+888206156+885651673+882811638+879496155+876313770+874318704
1248+873905339+874485449+875220172+875626689+875630113+875480042+875561331
1238+876032313+876750956+877570243+878417668+879274472+880364795+881975677
1228+883860125+885337908+886259475+887292256+888890631+890498908+891342983
1218+891800491+893193338+896097242+899562573+902269211+903805578+904537324
1208+905059967+906096842+908173792+911059384+913913935+916090039+917569236
1198+918786703+920354037+922647533+925314048+927560201+929227582+931027839
1188+933442450+936106210+938434991+940108179+940971981+941438943+942830227
1178+946062784+950153708+953200984+954641175+955454432+956446494+957506817
1168+958402032+959364839+960982644+963803845+967644428+971345138+973759897
1158+974783968+975206043+976013941+977765588+979952710+981286302+981240150
1148+980713561+980934722+982492379+985336285+988657798+990791322+990657554
1138+989237536+988403957+988917221+990366642+992040723+993222458+993704234
1128+994509749+996909323+1000404653+1003209552+1005077549+1007509802+1010675958
1118+1012801220+1013282326+1013578820+1014382028+1014838792+1014805517
1110+1015168710+1015898073+1016341661+1016714382+1017778353+1019848902
1101+1023249991+1028007600+1032368146+1033679183+1031385389+1027968891
1093+1026509346+1028303127+1032710496+1037939980+1041832671+1042979121
1084+1041326107+1037669316+1033190187+1029839122+1030071225+1034545814
1075+1040327271+1043267502+1042376008+1039955741+1038522547+1039227420
1067+1042097379+1046276143+1050052187+1051792073+1051136480+1049481604
1058+1048953973+1050087843+1051417044+1051840087+1052162188+1053769720
1050+1057028108+1061615026+1067120534+1072143820+1073741823+1070047143
1041+1063531409+1059044464+1058532019+1059715020+1059752240+1058147388
1033+1055697939+1053149039+1051743910+1052438584+1054003685+1054351022
1024+1053911007+1055132270+1058304009+1060542346+1059356070+1055336161
1015+1051285360+1049883952+1051899043+1055847415+1058977915+1058969875
1007+1056024657+1052798576+1051340892+1051137075+1050616665+1049184142
998+1047077267+1044983269+1044264328+1045497054+1046905161+1046278898
990+1043980488+1041908302+1040441462+1038332130+1034792731+1030475732
981+1026970725+1025888665+1027476694+1029461041+1028596941+1024241159
973+1018812473+1014105186+1009124033+1002659589+995974282+991131439+988085875
963+984813865+979873357+974084381+969402329+966737005+965114883+962791387
953+959444341+956619045+955437310+955252029+955179599+955396964+955994419
943+955905389+954312448+952337406+951870369+952824318+953029251+951405789
933+949606872+949514715+950727641+951439287+950747069+949341270+948281914
923+947750636+947399428+947425929+948055468+948368414+947454812+946169977
913+945785792+945899760+945345703+943999456+942396316+940827567+939468665
903+938277551+936887086+935430072+934683439+934757060+934747085+934160647
893+933469322+933038613+932545299+931608918+930377606+929372964+928947688
883+928835805+928448642+927752777+927431494+928070338+929398199+930167090
873+929026222+926237253+923852196+923181417+923210821+922658922+922100101
863+922661751+924258936+926190803+927968876+928872131+928274080+926922697
853+926230033+926466380+927195222+928511172+930065479+930012031+927111477
843+922950504+920167713+919601225+920454382+922203573+924805028+927301001
833+928000141+926584814+924744657+924311118+925751383+928198524+929815658
823+928751613+925288292+922606145+924089510+929881389+936435086+939828732
813+939699131+938872029+939098103+939155719+937835824+936446773+936670912
803+937880339+938237651+937320476+936167400+935707063+936253751+937783493
793+939804613+941126146+940567772+938436927+936930336+938307699+942378376
783+945878321+945298583+940944215+936845400+936272956+938301744+939129591
773+936539302+932118609+929135128+929721790+933669343+938566080+941354230
763+940681070+937772624+935191715+935415854+939485489+945431830+948724535
753+946531309+941163813+937389556+937776570+941553283+946089731+948902372
743+949559677+949673645+950170681+949892498+947733143+944396444+941212646
733+939075473+939100783+942215203+947524934+952125252+953125502+949845303
723+944220170+939410379+937428042+937725355+938602481+939766946+941889528
713+944326694+945172407+944039356+942565518+941577178+939980664+936849717
703+933327738+931852113+933917823+938596526+942371453+940907069+933090944
693+922777878+914695778+909600583+904867837+899142657+893854588+890459603
683+889116408+889392357+890169957+889863711+888466249+888041866+888965295
673+887410839+879307821+865859268+855484044+856755554+865125215+871128727
663+872236394+870424599+867433897+863154044+857814686+853925568+853982887
653+857152617+859988409+860725588+861176620+862884869+863159999+858076119
643+849213516+843088742+843553173+848247806+853204096+857576999+861288429
633+862426988+859197260+851711276+841372007+830453074+822002496+818449847
623+820004526+824147112+826698469+824994314+820565581+817125708+816480760
613+818600886+823087757+828045461+831186159+832521314+832194300+827987323
603+819096880+809504541+803967322
##END=
