##TITLE=<SNM>
##JCAMP-DX=4.24
##DATA TYPE=INFRARED SPECTRUM
##DATE=3/5/2025
##SAMPLING PROCEDURE=Instrument type and / or accessory
##ORIGIN=Admin
##XUNITS=1/CM
##YUNITS=ABSORBANCE
##RESOLUTION=4
##FIRSTX=4497.3318
##LASTX=599.83466
##DELTAX=-1.4281778
##MAXY=2.0857029
##MINY=0.50996411
##XFACTOR=1
##YFACTOR=1.9424622e-09
##NPOINTS=2730
##FIRSTY=0.53245193
##XYDATA=(X++(Y..Y))
4497+274111862+274152550+273658182+272900015+272092537+271338634+270697715
4487+270397891+270689460+271492827+272518354+273511323+274126314+274042575
4477+273447468+272974672+273169952+274255805+275948211+277277367+277332171
4467+276322938+275118670+273916305+272435596+271171523+271120801+272297390
4457+273578278+274025145+273570239+272627961+271824840+271703910+272161148
4447+272616485+272834993+272929104+272769388+272138441+271249310+270582308
4437+270274659+269928685+269190708+268473413+268640985+269828743+271064217
4427+271265358+270225256+268666975+267567528+267301795+267441381+267383509
4417+267039499+266793926+267021026+267707789+268335606+268276139+267488728
4407+266624974+266326101+266529604+266587016+266097466+265447862+265355009
4397+266103511+267396244+268604960+269087974+268712297+268051217+267739364
4387+267811106+267852838+267478725+266523897+265184370+264117786+263970620
4377+264669688+265452557+265616293+265099648+264404630+264166299+264720135
4367+265759623+266396768+265963710+264807863+263845793+263457167+263337832
4357+263243967+263381068+264111189+265412881+266474524+266211645+264682361
4347+263234761+262791791+262949512+263047398+263144363+263554438+264156848
4337+264514054+264390822+264060098+264018581+264339056+264541394+264217543
4327+263555236+263053780+262858838+262694979+262534895+262832878+263702954
4317+264499846+264801880+265008697+265325460+265158349+264279067+263577145
4307+263850887+264822592+265901664+266917096+267728072+268031394+267779930
4297+267195686+266525769+266128397+266281024+266730162+267097954+267657711
4287+268881924+270369568+271011685+270239218+268577650+266948149+265901726
4277+265581036+265921149+266753237+267926820+269214888+270099662+270186746
4267+269827240+269710391+269961733+270182021+270158209+270021753+269875538
4257+269650800+269321580+269165546+269621864+270749450+272098582+273115516
4247+273328962+272530536+271268918+270548554+270705693+271322586+272195608
4237+273290912+273996455+273654408+272579233+271641251+271180422+270957004
4227+270812784+270816988+270934358+270994593+271038289+271393008+272227827
4217+273243289+273959172+274084859+273537191+272451184+271277786+270515077
4207+270272726+270419984+271066212+272299262+273587453+274246385+274395116
4197+274618319+274835600+274487846+273713477+273283579+273435286+273718356
4187+273931126+274334114+274933885+275285843+275098326+274622983+274373084
4177+274561091+274913418+275113761+275219778+275443533+275796964+276201977
4167+276601405+276767626+276386487+275485818+274563976+274267558+274895927
4157+276005991+276647985+276324073+275536356+275108237+275274459+275704878
4147+276125142+276558538+277016053+277251469+276963796+276169236+275261080
4137+274692608+274642468+274968099+275475170+276116304+276875607+277643901
4127+278239713+278471017+278273589+277889750+277786985+278240112+278990823
4117+279486019+279619407+279952279+280821895+281647017+281680801+281003213
4107+280221602+279737852+279755741+280336365+281104965+281448300+281178517
4097+280719069+280650150+281134944+281699642+281690099+281086738+280656073
4087+281104014+282218466+283042576+282902007+282084065+281419610+281379689
4077+281771721+282156666+282245714+281942269+281345199+280789338+280619404
4067+280834783+281195977+281714156+282637256+283829065+284617550+284532276
4057+283900991+283459279+283531941+283795619+283837534+283679629+283511321
4047+283272131+282900534+282601078+282451857+282172561+281593257+280955835
4037+280676110+281113894+282364220+283965215+285171999+285742036+285973432
4027+286028420+285941826+286082426+286748384+287517721+287753874+287521526
4017+287322594+287176595+286730311+286092337+285813655+286071624+286414684
4007+286390320+286099732+286058031+286709261+288027216+289380767+289907599
3997+289296015+288138849+287256100+286854371+286738074+286984782+287738163
3987+288582862+288851971+288461994+287885482+287523060+287606800+288354841
3977+289660799+290890412+291412243+291123987+290290641+289245691+288372823
3967+288048665+288401084+289168487+289864702+290144366+290025676+289750737
3957+289522194+289442689+289584056+289980967+290601512+291289963+291753615
3947+291883781+292033586+292525100+292979638+292629766+291354218+289960562
3937+289451097+290305738+292164672+293956191+294674223+294396891+294186237
3927+294786868+295842128+296470252+296370894+296038482+295990797+296204059
3917+296161161+295302838+293680087+292053531+291188457+291321814+292471861
3907+294895922+298672491+302812709+305477495+305757373+304307748+301961596
3897+299393253+297870597+298601823+300953928+302073719+300220922+297786796
3887+297749207+299945861+302274308+303923970+305061558+304443008+301503130
3878+298814287+298860683+301243442+304126215+306405627+307407864+306671176
3868+305511647+305772685+307058514+307128476+304978739+302264213+301369834
3858+303734888+309498961+316751016+320304933+316705449+309806211+303963983
3848+300929227+301056846+303427270+306425388+309327462+312450223+315398325
3838+316600935+315570315+313715585+312052606+310504542+309131047+308447413
3828+308460547+308868658+310395396+314002797+318131017+319285667+317609524
3818+316273280+315508945+313315328+310015238+307960564+308661718+312084825
3808+316545334+319809430+322006484+324723956+326983300+326193128+323278350
3798+321089521+319846406+318335625+316750126+316302553+317337009+319173206
3788+321062119+322521011+323336161+324186015+326434405+330172985+333300901
3778+334143852+334056522+335568377+339806787+346160106+352819079+358018025
3768+361676180+364774117+367693006+370777810+375201496+381732727+389341282
3758+396298361+402748369+410495344+420727781+432573457+442992981+449972000
3748+455890511+464051152+474045994+481499221+485019753+488706353+495949509
3738+507187098+520306297+531825361+539888607+545373691+549211783+551369498
3728+552503865+554135207+557070851+560917105+564809756+568079621+571094064
3718+575463192+582667133+592651942+603179815+610194735+611992637+612569332
3708+615951996+622024700+628919765+635472384+641507467+647330701+652683717
3698+656399621+658051891+658924452+661039024+666034619+673842259+681008273
3688+683149970+680479139+676533833+674098111+674600917+678145107+683726359
3678+689680434+693308211+691818694+686347603+681070257+677920984+676590539
3668+676748322+678402924+681192322+684455682+688036572+692639950+698642263
3658+704413455+707232802+706932333+706168888+707068145+710095905+714076438
3648+716778445+717525259+717750058+718651648+720083476+721006238+720495883
3638+719300637+719957176+724059221+730443808+737366305+744351584+749152881
3628+747384499+740849616+735345078+733678877+736088025+740969411+744716430
3618+744635053+742278192+741455954+744461866+750062326+754520687+755973320
3608+756175719+756425066+755163970+751425543+747424574+746352314+749270896
3598+753900725+756274218+755063016+753868629+757118549+764420498+770062690
3588+768880823+763632075+760892509+761753779+763166030+764354157+766680149
3578+769266105+769407256+766834127+764792892+766308184+771870656+778185772
3568+778898832+771390925+761058025+754324425+753223260+756710867+762474204
3558+767834154+770690507+770619072+769347052+769617326+772928862+778547856
3548+784017782+785955178+782222090+774281216+765739221+758829489+753701456
3538+750642459+751406211+757000043+765029413+771580682+774605435+773934536
3528+770588142+767360744+766923543+768164141+767524480+764089897+760873239
3518+761232316+765402605+770730520+774299443+774859139+773147340+770878116
3508+769429656+769253708+769954433+770907328+771049093+769181721+766128860
3498+764143289+764046938+764762330+764411415+761719902+758283540+757760359
3488+760962594+764234424+765153504+766254792+769463717+771959090+770788883
3478+767025847+763545175+762676296+765639371+771280520+775511259+774392541
3468+768678485+763405926+762839786+766472042+769850656+769913192+768130326
3458+766815777+765316810+762334586+759172119+758203390+760069412+763108955
3448+765008302+765632191+767005411+770731011+775993260+780064928+781081648
3438+779127191+775380295+771333544+768154936+766696596+767678765+770498787
3428+772849142+772992871+771499182+770154868+770267605+771804744+772669389
3418+770140078+764573494+759810798+759451476+763578499+769042410+772528913
3408+773233136+771982902+769919575+769179511+771153668+774485640+776429296
3398+776204128+774358727+771172263+768790363+770477737+775382259+777628347
3388+774054453+768971221+767486553+769358651+771131022+770591824+767639365
3378+763624220+761065757+762412281+767889510+774601937+778886190+779711128
3368+778620825+777454301+777526656+778237568+776977577+773064613+769446594
3358+768703831+769879807+770374328+769369636+767846367+766581711+766127326
3348+767188417+769013566+769428306+768375991+768674005+771859425+775721943
3338+777579619+778038852+779194821+780435665+778570318+772849511+767289493
3328+765948616+767765787+768368320+766159852+763424705+762161706+762405285
3318+763717318+766220240+769938170+773785590+776431812+777691067+777407475
3308+774614272+770062629+767118025+767921300+770368682+770686886+768277615
3298+766268600+768051466+773766565+779589247+781643246+780374786+778672622
3288+777073805+774367441+771722017+771984927+775100876+777760968+778052476
3278+777555868+777930349+778545647+778656297+779662462+783202049+787996044
3268+790639135+789543186+786253867+782995232+781110246+780613025+779701186
3258+776468450+771797810+768970300+770420540+775449950+780191657+780868938
3248+777989817+775527706+776285935+779799010+783482695+784259274+780795969
3238+775545872+772872524+774305089+777187647+778716563+779128418+779364387
3228+778669001+776261325+772895538+770012735+769238427+771554170+775166174
3218+776404195+774620961+773428109+775370905+778069046+777324503+772428388
3208+766156415+760904354+757151812+755080199+755437251+758183874+761513760
3198+763197758+762574053+760957562+760221795+761178801+763564384+767105567
3188+770920154+772858900+771810697+769659242+768942377+769530610+769373503
3178+767768917+766233067+766124503+766630623+765774938+763313748+761166405
3168+760448742+759948145+757928943+754404882+751096230+749536016+749855202
3158+751169445+752406791+752784095+752136394+751258738+751561232+753515873
3148+755420620+755040738+752544567+750188013+748939988+747330187+744615108
3138+742612353+742993523+744933251+746398710+746407915+745245686+743763105
3128+742835249+742579335+742435115+742262911+742378900+742496117+741987788
3118+741038698+740245611+739208700+737084309+734636129+734118717+736297912
3108+739041221+739905988+738911239+737997498+738715161+740963458+742892139
3098+742195281+739067610+735957798+733965660+732152539+730301675+729669746
3088+730559491+731430212+731429598+731936761+734039181+736225617+736103307
3078+733663228+731211243+730079269+729175225+727536334+726549869+727896025
3068+730684441+732305535+731616777+729891477+728602334+727552597+725613912
3058+722858452+720637587+719375755+718223836+716748067+715475863+714903954
3048+715052592+715612902+716012545+715936569+715613639+715078245+713949893
3038+712440002+711163440+710074856+708984675+708292419+708114446+707586969
3028+706234493+705069073+705475589+707625141+710184217+711538780+711200385
3018+709686014+707441276+704778178+702553140+701641977+701646395+701109652
3008+699375821+697251000+695585965+694328551+693250216+692797304+693631018
2998+695601860+697735088+699234424+700014378+699972646+698348177+694827307
2988+690796021+688174593+687467977+687717140+687728064+686950872+685771766
2978+685150700+685557216+686356440+686524042+685818346+685001447+684861523
2968+685152479+684900862+683932072+683122476+682691841+681672482+679779028
2958+678236917+678034825+678767708+679539377+679934724+679902934+679354591
2948+678096686+676074907+673661462+671574691+670431978+670414365+671219972
2938+672158690+672542377+672135554+670912752+668630272+665400420+662334549
2928+660646193+660411330+661053569+662465451+664370198+665259146+663630687
2918+660014694+656469583+654347402+653477418+653225063+653503623+654424421
2908+655240031+654561093+652074188+649152599+647219253+646366146+645996268
2898+645895191+646062609+646182711+645866899+644962855+643550481+642123870
2888+641434682+641524528+641310469+639850472+637746640+636528319+636749068
2878+637371055+637296060+636879234+637090470+637638936+637136130+635019594
2868+632304638+630444016+629955448+630179634+630235787+629885118+629217533
2858+628236285+627178754+626492758+626104959+625470023+624489818+623466163
2848+622253120+620501001+618747286+617974083+617981693+617457714+615885901
2838+614119237+612834390+611726842+610481518+609457434+608986479+608683678
2828+608025360+607316596+607331141+607933182+607927475+606712038+605147650
2818+604109635+603284390+602194332+601305446+601151714+601199030+600567040
2808+599335340+598287935+597855337+597965557+598345746+598376370+597337004
2798+595394146+593624905+592704659+592234256+591445526+589977428+588037762
2788+586331486+585614191+585921165+586456804+586401632+585577860+584318666
2778+583055115+582089762+581480540+581017502+580404598+579595677+578829655
2768+578140529+577078088+575310319+573285778+571759746+570796971+569757666
2758+568285027+566902663+566449138+567098925+568061640+568262872+567371532
2748+566063917+565178345+564812210+564440000+563647281+562362619+560654379
2738+558774058+557138481+555920160+554923262+554049535+553485297+553245892
2728+552922962+552051566+550522589+548655340+547021297+546061651+545732032
2718+545579649+545170863+544386183+543422242+542601845+542034968+541468153
2708+540681019+539854301+539212553+538639662+538033018+537583665+537296943
2698+536731969+535621721+534265624+533025148+531925640+530962127+530294849
2688+529911408+529480344+528749670+527819360+526875731+525917559+524899488
2678+523934687+523225432+522900661+522899495+522956999+522789213+522299479
2668+521521489+520485560+519275953+518076166+517052695+516279185+515748517
2658+515354704+514904492+514230433+513380364+512674514+512355512+512170082
2648+511607348+510561262+509436408+508632151+508221094+508029189+507786900
2638+507315423+506683862+506055984+505438753+504767946+504121626+503671046
2628+503487580+503467634+503365913+502898150+501950348+500695727+499443713
2618+498479618+498047296+498173504+498417174+498149692+497257001+496275599
2608+495736524+495620902+495508994+495102907+494517804+494068021+493884402
2598+493860161+493828954+493620725+493160663+492616524+492134277+491513916
2588+490531073+489349604+488250035+487298582+486558856+486195483+486196097
2578+486342956+486433170+486312455+485912352+485394111+485019783+484874428
2568+484886211+484984373+485094563+485138872+485132643+485153847+485194719
2558+485155657+485019354+484914043+484876914+484694337+484259714+483931168
2548+484070080+484313627+483872130+482619257+481383446+481013752+481517601
2538+482224033+482551535+482451287+482193502+481950691+481696127+481390626
2528+481116240+481001109+481043731+481066131+480905986+480630065+480436995
2518+480359545+480250583+480039531+479763948+479430431+479104157+478925661
2508+478807923+478512333+478186120+478263385+478737071+479138401+479214807
2498+479058528+478702090+478080011+477270292+476509210+476040863+475971024
2488+476183211+476434461+476532837+476399787+476067222+475642970+475211169
2478+474794649+474388747+473944948+473422872+472928903+472642458+472583420
2468+472631841+472734482+472929087+473205315+473435484+473457914+473236061
2458+472932647+472800824+472970727+473302249+473477031+473317438+472924607
2448+472419929+471799293+471167149+470798744+470816081+471020658+471111363
2438+470942135+470598861+470333465+470383359+470748880+471120017+471106914
2428+470613590+469892429+469226470+468787520+468739958+469092407+469479346
2418+469457437+469018640+468544064+468300885+468216899+468136719+468059792
2408+467998667+467840270+467611390+467649992+468168570+468855334+469222143
2398+469157919+468912623+468740755+468706787+468699821+468588250+468370785
2388+468070562+467530412+466522131+465049737+463366322+461664035+459872885
2378+457804954+455428884+452952566+450643758+448566714+446494028+444183777
2368+441815317+439943864+438826343+438083795+437421119+437374416+438833125
2358+441996360+446208043+450823143+455908677+461655689+467300458+471437270
2348+473232011+472890148+471253282+469073014+466693660+464319738+461994851
2338+459474899+456589364+453472495+450393705+447661719+445536131+444051187
2328+443111702+442656887+442524297+442467499+442512606+442987181+444093778
2318+445649359+447160784+448106898+448420684+448671320+449458607+450719796
2308+451906879+452674130+453067605+453224559+453252482+453292741+453440367
2298+453687566+454063674+454652858+455357664+455829110+455792963+455349011
2288+454842676+454542208+454509528+454659241+454840283+454911319+454833471
2278+454685691+454536009+454345731+454069872+453770232+453541935+453401397
2268+453315233+453277153+453298541+453362887+453399832+453310017+453095129
2258+452918076+452879505+452826174+452577073+452215142+451953245+451876194
2248+451997615+452376668+452974383+453509225+453641999+453319376+452860204
2238+452675142+452936395+453512876+454118968+454476388+454477738+454278070
2228+454096783+453966709+453885056+454038389+454541717+455136609+455483872
2218+455559051+455531649+455531986+455668351+455965904+456255664+456371469
2208+456374139+456415165+456554997+456815483+457220250+457715753+458167069
2198+458491625+458798200+459315950+460082310+460827345+461310359+461591925
2188+461877174+462286390+462773578+463093040+463014333+462739241+462798218
2178+463385469+464139095+464682252+465043631+465428330+465892166+466432684
2168+467177350+468260135+469640933+471202099+472854553+474410410+475649812
2158+476716856+478150985+480334813+483106445+485986610+488622122+490938509
2148+492969679+494708297+496180322+497531571+498937378+500521036+502371256
2138+504478156+506667998+508741022+510644541+512478743+514408222+516537308
2128+518834517+521262445+523842080+526378387+528362486+529414187+529548649
2118+528847617+527274945+524973746+522401108+520008529+517888434+515768278
2108+513392730+510857711+508384461+505902098+503190272+500308726+497523654
2098+494938036+492517012+490303451+488346907+486571836+484850954+483082817
2088+481226123+479439514+478072892+477276614+476729590+476011528+475149400
2078+474524467+474291137+474152011+473734663+473006260+472281724+471919946
2068+472006724+472279238+472379118+472154994+471647432+470920042+470124684
2058+469579379+469480665+469637098+469731915+469708379+469672232+469605063
2048+469430556+469235859+469222358+469459922+469776776+469935326+469911269
2038+469896970+470009952+470159512+470247854+470340278+470551913+470847349
2028+471051098+471090651+471107068+471200350+471240517+471102526+470843728
2018+470482288+469908293+469129229+468278975+467381835+466438483+465662549
2008+465320441+465383836+465503570+465284539+464592621+463681181+462940566
1998+462491858+462197526+462026089+462069600+462202375+462113357+461736820
1988+461294648+460930078+460607977+460277314+459896328+459413682+458879117
1978+458466280+458301531+458314235+458300212+458166210+458068110+458181215
1968+458381220+458378060+458124356+457808943+457505468+457124543+456677430
1958+456331487+456179810+456122828+456008280+455793270+455566814+455481325
1948+455689063+456313659+457332741+458308374+458456552+457474200+456085822
1938+455252905+455193376+455450732+455555737+455370245+454989566+454571174
1928+454332352+454598730+455492832+456539439+457145071+457474292+457981639
1918+458289257+457686510+456524803+455844023+455980234+456365424+456343454
1908+455838623+455295496+455095460+455148914+455115405+454882751+454693393
1898+454841203+455277085+455615787+455723737+455976214+456519310+456782834
1888+456289295+455413665+454783147+454582988+454675442+454838749+454859891
1878+454703212+454513640+454469576+454907023+456339986+458772333+460960088
1868+461170281+459302142+457057312+455810392+455572797+455633523+455482829
1858+455123169+454796925+454633926+454623523+454831047+455395008+456381350
1848+457907964+460023057+461914671+462023081+460214471+458303219+457560118
1838+457687615+457876880+457998761+458757389+460698805+463107401+464411180
1828+464248396+463715978+463233210+462223578+460747747+459722067+459626851
1818+460085962+460576893+461094428+461971193+463180738+464149528+464452636
1808+464379053+464555093+465430109+467142430+469336721+471090406+471623498
1798+471314131+471531258+473327779+476276494+478347708+477984979+476371127
1788+475642417+476401781+477928733+479538197+481178101+482859829+484343545
1778+485679114+487535870+490667468+494884368+498358197+499179944+497889758
1768+496269125+495374900+495797587+497686009+500023631+501400717+502021047
1758+503008984+504384751+505771195+507854530+511437291+515743975+518780573
1748+519694559+519472399+519391206+520174658+521939665+524052702+525580268
1738+526842530+529450641+533798903+537237598+537250057+535638659+534714976
1728+534747134+535523406+536996659+538990454+541813545+546551447+553632585
1718+561058257+565077268+564761764+562823264+561524057+561758245+563982731
1708+568190701+573330517+577952183+582304190+588073786+595197761+600613313
1698+602759184+603378041+603205529+602415326+602469087+604393104+608037573
1688+613465337+621513671+631578506+638956799+640042929+638408579+638370653
1678+641412282+647111548+653471342+658550401+662845149+667573968+671804707
1668+673949411+675311339+678431154+683641238+688843835+692330767+695179511
1658+699502427+706598234+717023619+728916918+735690960+736206900+737225829
1648+741187153+745264220+746126103+744940492+744580802+746190358+750138855
1638+756576098+763820543+767190749+764530780+760312868+758775299+760274389
1628+762594857+763659998+763366342+762001223+759239196+756046044+754374319
1618+754250965+752984100+748766004+743795877+740473601+738692024+736995016
1608+734278157+730611533+726818364+723708306+721619572+720337180+719517274
1598+719061846+718798752+718234944+717090267+715727849+714652520+713821813
1588+712767473+711355958+710091732+709495214+709663307+710766866+713288567
1578+717051542+720100966+720295141+719233867+720190137+723665225+727211747
1568+728633265+729107595+730973188+735403380+743261772+755563919+770222375
1558+778700975+778775540+778237323+780724903+785506868+791310034+797508424
1548+803990161+810969180+818667089+827263274+836938224+845648190+847453149
1538+841811448+836163364+834508946+835818034+837466131+838650391+840638479
1528+844047716+848116622+852291207+856972894+861823778+865171216+866627224
1518+867554527+868243224+868112382+867923976+869503706+873867680+880580966
1508+887556916+890633097+888080711+884437469+883301507+884983664+888721845
1498+892830948+894392881+892178153+889245885+889348312+893069555+897547616
1488+899533065+898922677+897424814+896138188+895532526+895780707+896928329
1478+899181659+902737510+907111548+910605783+911004505+908341959+905504508
1468+904808079+906363813+908645987+910134091+911370149+914041409+918310197
1458+921507953+920076554+915406405+911861662+910619039+910699188+910729935
1448+909501794+906881041+904131779+902735607+903374103+905891570+909376599
1438+912400431+913910691+914551273+915930752+918299151+920080605+919437813
1428+916806505+914742134+914980373+917154781+919836904+921668497+921274071
1418+918124491+914187654+911725973+910794680+910335079+910004171+910292856
1408+911183522+911582183+910585285+909081654+908942098+910500656+912122977
1398+912430380+911829198+910790323+908517907+904991392+902124974+901399639
1388+901786210+900670930+897323124+894155931+893692954+895978994+899290407
1378+902660429+906509506+910587065+913141783+913455692+913273054+914334452
1368+916560288+919074502+921769206+924999058+927806806+927831109+924502880
1358+920697007+919643342+921723424+924907003+927426249+928930862+929615938
1348+929801092+930162501+931360079+933368480+935411064+936524136+936309095
1338+935316247+934660261+935210507+937034613+939219331+940334366+939812290
1328+938715113+938479758+939389572+940741373+941940731+942951621+943953857
1318+944938174+945868853+946970878+948213747+948770988+947975937+946592224
1308+945769372+945312348+944363872+942917437+941464498+940150501+938990911
1298+938121479+937715393+938109758+939397366+940596110+940282815+938260544
1288+935723746+933941862+933212293+932691567+931124111+928066954+924325704
1278+921158695+919148330+917823225+916213116+913875157+911400527+909726839
1268+909142410+908857714+907728441+905543355+903245348+901758778+900690016
1258+898731140+895429178+891875537+889462338+888628562+889061713+890300103
1248+891708671+892646347+893005730+893035495+892966331+893342653+894870464
1238+897472438+900288041+902608264+903999404+903945030+902608387+901368095
1228+901449840+902653555+904222546+906198973+908776644+910906374+911111350
1218+909613979+908187858+907981286+908745100+909929851+911455637+913342403
1208+915340862+917135817+918682960+920334677+922398864+924555229+926198600
1198+927414650+928987139+931389353+934197469+936455217+937439840+937408664
1188+937563010+938693511+940136017+940693075+940163634+939415654+939512680
1178+941195819+944365467+947835216+950398771+951846740+952902860+954574032
1168+957209820+959880283+961213735+961105907+960885956+961874508+964363315
1158+967842330+971504535+974258032+974895116+973040386+970043801+967984709
1148+967809497+969123433+971479925+975193436+980501222+985886150+988393184
1138+986907657+984025283+983110621+984791183+987504359+990143953+992711743
1128+995013064+996284287+996327184+995967555+996230895+997232824+998608315
1118+1000720800+1003637664+1006162802+1007519206+1008560904+1010429872
1110+1012683692+1013646836+1012542234+1010102155+1007637896+1006541517
1101+1008228707+1012851785+1017262830+1016936340+1011002088+1002872193
1093+996712405+995504210+1000133855+1008693402+1018158037+1027205170+1034969973
1083+1038032469+1034171178+1026903842+1021832025+1020499494+1020924237
1074+1021556964+1022777740+1025468148+1029298692+1032860188+1034853001
1065+1034943584+1033882861+1033486042+1035433195+1039062383+1041518173
1057+1041620784+1041708789+1043609669+1045495453+1045109680+1043933336
1048+1045232788+1049877653+1055618467+1059002788+1058099173+1054380753
1040+1050504488+1047013752+1043405552+1041029789+1042088670+1045869197
1031+1048165302+1045600641+1039862528+1035549553+1034957208+1037124312
1023+1039739051+1040454259+1038534231+1035606505+1033278856+1031547234
1014+1030596242+1031492492+1034051384+1036223398+1037133395+1038333305
1005+1040308076+1040690044+1038240636+1035432213+1035029993+1036675083
997+1037869960+1036829858+1033374225+1028673759+1024532743+1022093830
988+1020670778+1018914547+1016737439+1015407179+1016121037+1017851554
980+1017734398+1014710014+1010811472+1008056011+1006537099+1005847605
971+1005869637+1005691908+1003986124+1000707175+996676810+992027404+986488805
961+981031767+977759324+977394662+977888017+976561439+973136246+969490917
951+967131786+965792013+963704628+959584049+955240266+954391026+958419181
941+964424255+967502830+965356591+960440409+956897691+956284173+956909536
931+956786120+956178739+956266622+956791460+956259748+953984816+951374374
921+950272656+950709612+951595981+952314810+952479589+951617890+949557386
911+946646904+943912678+942722096+943531569+945288291+946673109+947463803
901+948264684+949357687+950258541+950355874+949232922+946576697+942736580
891+939080204+937069901+937228481+939426578+943149294+946716191+947562486
881+944775420+940646249+938530634+939591357+941865184+942370015+940444096
871+938179535+937555094+938668226+940415006+941658980+941777793+940924993
861+940072499+940008367+940391256+940538115+940563154+941239024+943093938
851+945718619+947298042+945825219+941622649+937236337+934896107+935493669
841+938599860+941790742+941906486+938835031+935977143+936527204+941277012
831+948702561+955309431+957280212+953745350+947563775+942195724+939047801
821+938051640+939472299+944068006+951595797+959770001+965480191+967475029
811+967003522+965737639+964184850+962061503+959486102+957561717+957938469
801+960816792+963727888+964088131+962414749+961411101+962247270+963591032
791+964342203+964993771+966143419+967920147+969743149+970293885+969109133
781+967337437+966412220+966634319+967417157+968234669+968153477+966015093
771+962872878+961858490+964037991+966856663+968255044+969540259+972067913
761+974312528+974175611+971267585+966457941+962034254+961180042+964818313
751+969785617+972334199+973070089+975701459+981400848+986622960+986832601
741+981265833+973230388+966763626+964103535+965978087+973001661+984010799
731+993960565+997803322+995102788+989832622+986395645+986184839+987682026
721+988672786+989520861+992110499+995925271+998911177+1000589713+1001163524
711+999563051+994919536+988986265+985578624+987728361+994627537+1000371174
701+998099372+987890869+977647324+974800544+980360316+989411622+996193643
691+998963403+999159849+997950426+995179623+991404804+989260529+989659006
681+989187805+985604031+982079786+981406616+981041464+979569684+980749219
671+986004349+991042904+992829635+994821405+999646269+1003623978+1003512591
661+1001739422+1002602103+1005415988+1003351556+992063429+978702339+974220596
651+981183658+992864678+998595611+992678726+980853610+974734019+981804909
641+998726636+1016520128+1030329895+1034387324+1021418820+1000568417+992722422
631+1005960833+1028855231+1042228717+1040593447+1034931923+1031313537
623+1023630663+1009866371+1000422909+1005619062+1026173905+1054740996
614+1072633723+1066777410+1054633598+1052884425+1059790781+1065725402
606+1066001200+1065298266+1068768259+1073597971+1073741823
##END=
