##TITLE=<SNM>
##JCAMP-DX=4.24
##DATA TYPE=INFRARED SPECTRUM
##DATE=2/5/2025
##SAMPLING PROCEDURE=Instrument type and / or accessory
##ORIGIN=Admin
##XUNITS=1/CM
##YUNITS=ABSORBANCE
##RESOLUTION=4
##FIRSTX=4497.3318
##LASTX=599.83466
##DELTAX=-1.4281778
##MAXY=1.6914369
##MINY=0.26451448
##XFACTOR=1
##YFACTOR=1.5752734e-09
##NPOINTS=2730
##FIRSTY=0.28584203
##XYDATA=(X++(Y..Y))
4497+181455510+180970716+180736198+180698814+180690282+180365786+179636257
4487+179081009+179410064+180652274+182157645+183200469+183471898+183207034
4477+182841466+182560446+182404271+182682737+183736705+185155011+185823811
4467+185074587+183461549+182178607+181893046+182244482+182309166+181612707
4457+180811949+181054602+182466249+183725524+183470914+181789352+180056652
4447+179481009+180032096+180801260+181112758+180900583+180245197+179279864
4437+178433039+178049327+177954733+177835223+177713405+177822150+178286967
4427+178922563+179198854+178686040+177577246+176386287+175235928+173916888
4417+172568297+171825015+172160616+173277091+174290762+174524315+174087214
4407+173662638+173687289+173774997+173206865+172037624+171159412+171090415
4397+171375182+171378360+171131904+171087521+171414741+171975779+172739759
4387+173718430+174504450+174380759+173098365+171220747+169563477+168578393
4377+168366010+168895510+169976891+171222488+172181729+172544895+172333685
4367+171903887+171566962+171244207+170718055+170095380+169707430+169639663
4357+169697441+169850041+170369022+171350928+172303907+172545046+172011062
4347+171256920+170719361+170507224+170674126+171130069+171506440+171575456
4337+171468735+171177083+170503799+169660039+169161925+169131560+169292484
4327+169506210+169824784+170132990+170073377+169450872+168681406+168522885
4317+169197663+170176182+170875081+171064875+170733796+170228587+170313949
4307+171416273+173029841+174276743+174715849+174438499+173843615+173377758
4297+173048533+172303207+170787203+169007510+167916555+168061549+169317646
4287+171140702+172891336+174074482+174407567+173866772+172899698+172316526
4277+172573500+173318221+173868002+173953553+173834175+173826361+173855194
4267+173572736+172902461+172173840+171661045+171426281+171662937+172543022
4257+173599184+174001815+173632538+173168913+173086200+173372575+174069468
4247+175151096+176004713+175988310+175361984+174925564+175037223+175511953
4237+175958948+175883670+175093809+174094971+173552814+173597027+173978753
4227+174395780+174482258+174047144+173340772+172718494+172324812+172313423
4217+172858039+173846018+174994258+176110583+176920138+177056902+176539870
4207+175876405+175576410+175797514+176261687+176310403+175469007+174131579
4197+173215378+173139570+173594227+174082541+174279354+174177949+174107552
4187+174279013+174398353+174131655+173686495+173559322+174003517+174885797
4177+175797627+176383789+176763244+177435865+178621849+179821227+180143660
4167+179267208+178060281+177755575+178464179+179176946+179278729+179179841
4157+179219608+178911591+177845988+176739463+176726920+177727423+178502887
4147+178503928+178455836+178805834+178963504+178469590+177736164+177320763
4137+177382363+177950136+178964204+179949250+180244403+179781289+179214273
4127+179009931+178854456+178320472+177659391+177512127+178117473+179072155
4117+179709643+179691860+179373115+179442150+180098331+180833686+181095788
4107+180906524+180704452+180811665+181234463+181766158+182095345+182005216
4097+181578615+181066010+180632939+180407805+180472242+180611334+180556053
4087+180594174+181271374+182396911+183087486+182919563+182413730+182282887
4077+182678177+183245345+183559133+183395598+182835563+182240093+181958846
4067+181987281+182084410+182172269+182307974+182331055+182020294+181619442
4057+181633858+182068972+182463146+182640888+182805671+183009351+183218764
4047+183746107+184875769+186164709+186776619+186470172+185775454+185307024
4037+185180968+185033836+184543025+183877215+183484138+183527538+183812172
4027+184151916+184537728+185031339+185649852+186269198+186676142+186859976
4017+187043697+187215915+187020294+186404467+185905956+185943851+186282952
4007+186502902+186562231+186676955+187029432+187643045+188220750+188285339
3997+187840860+187567843+187979781+188816126+189621670+190330086+190900791
3987+191061431+190840459+190740851+191037309+191421267+191598669+191754938
3977+192113223+192444302+192369460+191867959+191176136+190379577+189509709
3967+188971071+189359720+190711584+192292573+193352065+193812209+193981760
3957+193949711+193669769+193453357+194014508+195832361+198355225+200095492
3947+200170978+199453727+199212512+199272428+198539664+196894843+195358842
3937+194844174+195836940+198512856+202099128+204528948+204166256+201954607
3927+200411304+200745883+201884002+202286424+202101720+202608971+204030154
3917+204774212+203194641+199825028+196789503+195451715+195717240+197431929
3907+201384091+208068471+215817906+221355030+222877334+220852906+216149270
3897+210304374+206172446+205956998+208979659+211574660+210851601+208915127
3887+209400300+212029790+213695101+213906216+214519659+214588580+212028466
3878+209052440+209502916+213453204+218153814+222037792+224511391+224230124
3868+221935611+220679042+221136291+220524910+217017455+212778465+211121970
3858+213944772+222109873+234494647+243268177+239345074+227675053+217208970
3848+211467882+210866509+214445251+220325506+226595394+232101661+235708933
3838+235927786+233147721+229867764+227226412+224337129+221041810+218822651
3828+218397904+219105828+221619970+228067014+237079734+241937994+240118836
3818+236612250+233435155+228221864+221421644+216900896+217350483+222618430
3808+229289056+233091457+234776462+238231834+242884749+244093189+241363675
3798+237895722+233973622+228706546+223715116+221170004+221235445+223071309
3788+226274398+230196819+233473522+235986850+239532352+244528757+248116372
3778+247993872+246182981+246290535+250136089+257378613+265692680+272204445
3768+276524711+280148063+283618003+287374733+293023459+301157703+309563072
3758+316080438+322433020+332364533+347854095+366795056+382256277+390089087
3748+395757281+405210753+416787788+422731516+422691446+424799079+434180168
3738+450955793+470734858+485808471+491378968+490537231+489594544+491614734
3728+495778957+500085222+504005922+508581478+513714798+517554677+519624056
3718+522191303+527940545+538383472+553319658+568804225+577989996+579378902
3708+578414686+580801598+589150892+601153866+609788266+610476836+606731363
3698+603946474+604150873+607441083+613620085+621766229+628761957+629877487
3688+624596259+617880151+612979721+609746494+608020718+609275112+615628130
3678+627321099+639110933+642913768+640522278+639498164+638773346+631575489
3668+618963973+608835098+605322137+607832438+613639345+620048021+626339477
3658+633029477+639110101+643156156+647346071+655516809+666827391+673534569
3648+670650281+663593407+658635010+657119309+657877954+659302012+660088808
3638+660071857+660396504+662380181+666673619+673545239+682255164+688532052
3628+687082340+681144856+677774959+679830225+687334945+698173616+707102469
3618+710123654+710373912+712523167+716145062+718470640+719710429+720853050
3608+719293155+712901846+705540304+702828328+705691881+710473728+713965992
3598+716487947+719405760+722395615+724581724+726286159+729185809+733659582
3588+735522481+730349998+721492658+715734827+715323910+718166728+721532160
3578+724090364+726071241+728624071+732295837+736532368+741080075+745477113
3568+746728934+741872698+733735938+728024420+726199132+725791696+725701945
3558+727717784+732437577+736881836+737455152+734159720+730774234+730823877
3548+733907191+735986446+734373730+731208459+729736196+730575662+732584690
3538+734738939+736084521+735527248+733042071+730169210+729014556+730893801
3528+734944019+738187538+738471774+736503611+733742219+730439976+726837150
3518+724137661+723404292+724839852+727947156+731336955+733120547+732749132
3508+731863580+732132227+733220665+733722998+733200308+732203816+730791336
3498+728632471+726411250+725914971+728516612+733714295+739021934+741660126
3488+740839882+737869247+734366994+731775115+731347398+732496982+732556160
3478+730079232+726704567+724776209+725217018+728020485+732608679+737124678
3468+738981145+737346104+734177428+732176194+732524149+734245763+735526794
3458+735618437+734837998+733714144+732908807+733303529+735386265+738358337
3448+740496391+740955740+740285409+738763654+736300196+734142390+734058769
3438+736037602+739113047+742959395+746729917+748283153+746148958+741415392
3428+737028722+735480027+736707480+738198738+737842761+736472584+736645881
3418+739526385+743266107+744182914+740652358+735243390+731997147+732581284
3408+735587486+738692595+740780703+741852266+741446419+738844929+735232417
3398+733657463+735667475+739167987+740660607+738826086+735216147+732100141
3388+730574300+730404863+730726331+730966525+731638824+733800640+737106365
3378+739566947+740219647+740016761+739410829+737599995+734931305+733491204
3368+733961375+734791760+735712274+738592249+743146540+745192952+742049173
3358+736722313+733858002+734500713+736663891+738471396+739066279+738761535
3348+738987577+740513418+742195756+742606900+741937173+741492505+742506857
3338+745420659+748770199+749465126+746507054+743549057+745089882+750898189
3328+755913645+756081266+752583251+748992458+747162932+747003862+747944203
3318+749334586+750234592+750063112+749203743+748028279+746155164+743673770
3308+741872622+741649683+741990676+741242171+739297543+737057403+734958019
3298+733446480+733729657+736673048+741291436+745188109+746754966+746729388
3288+747269785+749571601+752734828+754993509+755672014+755471929+755172708
3278+754964147+754615738+753453441+751126274+748956361+748923896+750951162
3268+752914406+753434220+752905098+752052389+751278155+751045907+751701558
3258+752952092+753770823+753253885+751938649+751309106+751671439+751948940
3248+751579796+750931108+750457456+750946167+752935671+755279184+756160044
3238+755327918+753754023+752109977+750756146+750058647+749951491+749532098
3228+747965544+745650334+743689586+742714510+742872142+744289313+746323768
3218+747328131+746700177+745522972+744507561+743705781+744032774+746350179
3208+749519233+751444565+751470673+750365283+748646773+746165228+743186573
3198+740934400+740298046+740734390+741539802+742918304+744948218+747154229
3188+749572358+752337684+753979536+752305749+747554930+742807288+740737871
3178+741107999+741657856+740760877+738875805+737645627+737950598+739034420
3168+739730784+739865335+739272570+736746529+732114368+728001188+727137052
3158+728961205+730378603+729291603+726406255+723916840+723391654+724821160
3148+727051311+728838686+729446208+728677725+727085895+725846712+725687340
3138+726051338+725930182+725420282+725420282+725959620+726166970+725591611
3128+724372103+722666457+720755732+718981297+717464159+716479018+716355515
3118+716503007+715700697+713800036+712192012+712441286+714688313+716876691
3108+716088684+711825743+707047377+704964944+706013577+708400679+710409328
3098+711485129+711617182+710555457+708220042+705543633+703890052+703726367
3088+704708859+706551704+708557100+708926093+706428883+702435195+699735630
3078+699668430+701129039+702048418+701393448+699677814+698045649+697447889
3068+698204945+699469555+699529566+697625802+695067826+693658676+693726102
3058+694436996+695012053+694848064+693316018+690218779+686290777+683098944
3048+682168289+683633893+685867676+686889141+685994508+683786076+681342671
3038+679687955+679290281+679683490+679841879+679276509+678632285+678752835
3028+679367395+679299665+677830126+675303404+672738995+671217467+670791491
3018+670078705+668196282+666410572+666317264+667387237+667697506+666223502
3008+663480500+660798794+659424379+659604940+660463023+661067063+661306500
2998+661389894+660916772+659110554+656077412+653301112+652430543+653734353
2988+655848872+656860197+655710538+652854552+649692308+647408352+646297968
2978+645962726+645984218+646315600+647025662+647848479+648240780+647903798
2968+647028235+646074953+645441097+645168287+644943985+644476085+643693981
2958+642513900+640839811+638946793+637307364+636017175+634819387+633555079
2948+632287026+631205626+630463327+629878357+629049069+627876632+626742940
2938+626017895+625629945+625197991+624365335+623074807+621700013+620715969
2928+620131945+619514813+618527440+617143149+615462439+613448908+611095784
2918+609080248+608428911+608999162+609212188+608080767+606454088+605592147
2908+605777097+606575509+607144474+606332138+603837539+600911024+598926628
2898+597935849+597195177+596302398+595311657+594418423+593823237+593513876
2888+593202964+592618562+591640345+590207168+588440074+586706391+585298414
2878+584264235+583537260+582941204+582294558+581746480+581616205+581761426
2868+581464211+580020213+577419404+574558651+572610768+571915880+571787837
2858+571524979+571004333+570215531+569035110+567608706+566323891+565366939
2848+564599818+563779233+562771238+561654422+560598222+559582319+558392173
2838+556946207+555385593+553883060+552706650+552303300+552751677+553244701
2828+552693293+550838227+548457784+546619177+545835673+545652122+545096931
2818+543776321+542170150+540743406+539384694+537907058+536552962+535808128
2808+535902608+536396427+536306525+534927381+532496387+529881276+527820599
2798+526598330+526082792+525860041+525533692+524977478+524217849+523209854
2788+521856402+520133161+518216079+516582060+515675394+515245256+514513059
2778+513276033+512136212+511361107+510420879+508977714+507470186+506424277
2768+505832724+505417418+505052814+504740918+504390012+503730539+502446897
2758+500471999+498204804+496293019+495046647+494177970+493271418+492292898
2748+491402086+490558609+489658263+488828067+488235037+487708640+486834060
2738+485425894+483683622+481894771+480295828+479195395+478818570+478899656
2728+478704300+477617187+475697266+473652444+472181959+471301212+470504465
2718+469555761+468685193+467980202+467190303+466268956+465557873+465197356
2708+464730364+463635304+462064133+460666108+459758534+459044537+458151872
2698+457087044+456082795+455307426+454825828+454581132+454276350+453492013
2688+452084453+450372677+448850355+447765663+447002894+446342627+445764695
2678+445314237+444722305+443620321+442219534+441175214+440620779+439983101
2668+438933863+437894993+437332347+437072743+436641507+435904278+435008056
2658+433961807+432717705+431491840+430595088+430066761+429714644+429321359
2648+428729086+427954550+427191667+426539157+425868636+425024705+423947769
2638+422651073+421301215+420224885+419657358+419513045+419427684+419051312
2628+418368305+417653817+417076111+416520465+415853388+415136780+414467016
2618+413742047+412753992+411555787+410559370+410084357+409980946+409881358
2608+409598862+409128691+408525483+407865027+407127722+406188062+405089295
2598+404107559+403409719+402917413+402561588+402359005+402198082+401826062
2588+401113882+400180994+399263696+398567597+398156794+397861546+397422176
2578+396864335+396522699+396506164+396409451+395832048+394936961+394181116
2568+393716886+393369233+393027067+392723723+392372211+391759657+390904943
2558+390124995+389611084+389233729+388879342+388640246+388537441+388377274
2548+388007449+387441246+386675564+385706428+384751027+384105252+383733383
2538+383331850+382868150+382693643+382984803+383403969+383500341+383206721
2528+382782561+382448909+382186164+381830679+381343974+380901614+380615674
2518+380351227+380012391+379750706+379644685+379478048+379104325+378720954
2508+378528285+378393658+378066363+377532700+376989314+376577905+376268658
2498+375990059+375788650+375771925+375896714+375918962+375619326+375017064
2488+374324105+373780984+373564363+373706671+374007669+374140933+373960864
2478+373611585+373254548+372836064+372248370+371615005+371251915+371331223
2468+371655340+371818610+371597448+371121640+370647648+370286639+370026391
2458+369872846+369812003+369710258+369414481+368938445+368458588+368139428
2448+368008169+367962385+367856099+367598236+367226708+366900888+366766602
2438+366811137+366910688+367017087+367167038+367307567+367298713+367099044
2428+366763461+366292837+365712369+365258393+365229447+365612554+366036184
2418+366137210+365863531+365439636+365192518+365352344+365794250+366057032
2408+365868828+365518414+365434490+365602602+365687851+365539300+365312766
2398+365226231+365353820+365600975+365812942+365881012+365747066+365390447
2388+364836390+364075702+362970048+361327931+359046321+356093130+352402294
2378+347919441+342801520+337472957+332357041+327622151+323312178+319552742
2368+316462939+314062726+312313775+311068746+310229034+310177745+311680297
2358+315237245+320832147+328237391+337233293+347175704+356385085+362692887
2348+364809714+363197036+359916322+357010050+354759277+352371911+349505179
2338+346253562+342644456+338714259+334812856+331616823+329695125+329072468
2328+329342705+330010577+330626877+331034502+331634229+332996952+335125660
2318+337395844+339209440+340522785+341758374+343301355+345153660+347083191
2308+348941625+350698616+352292262+353618321+354640808+355435247+356116438
2298+356749689+357361713+358006921+358708847+359349817+359773674+360008116
2288+360239531+360571595+360947852+361295505+361589276+361757200+361694767
2278+361454006+361261186+361232467+361221948+361073360+360868961+360799150
2268+360901577+361029430+361025041+360892988+360810615+360954890+361327629
2258+361758448+362057744+362195095+362337667+362637038+363005691+363260414
2248+363421413+363649082+363955264+364214566+364390851+364562067+364781374
2238+365013394+365164518+365170610+365105378+365146167+365386020+365746877
2228+366091049+366341042+366512409+366707083+367032828+367469058+367859467
2218+368063752+368065304+367950883+367854018+367890607+368105260+368480118
2208+368959407+369447097+369865581+370222390+370531448+370747123+370895144
2198+371126824+371493773+371833555+372032468+372229564+372596173+373051133
2188+373375856+373544082+373743335+374056858+374331597+374449348+374543526
2178+374816638+375295436+375869282+376410890+376783326+376917157+376950871
2168+377132378+377565316+378175335+378833597+379379178+379667425+379734890
2158+379791722+379997823+380355616+380779398+381162883+381450070+381678231
2148+381877560+382018657+382153737+382424579+382833339+383213683+383500001
2138+383803497+384172943+384481699+384611066+384614395+384660444+384873810
2128+385217414+385511602+385639190+385725801+385976135+386367943+386708369
2118+386922000+387047205+387059275+386931308+386747947+386612375+386583202
2108+386715407+386977016+387196815+387291750+387456949+387947892+388714332
2098+389364988+389537452+389292945+389067546+389190632+389539533+389729327
2088+389561252+389203686+388970947+388992855+389105838+389059563+388825802
2078+388653186+388780964+389169178+389572414+389789148+389779083+389673441
2068+389717597+390023515+390369805+390439275+390196735+389829483+389457804
2058+389099784+388774834+388503311+388304550+388206891+388185097+388169053
2048+388172913+388306101+388630219+389052298+389323859+389191919+388679710
2038+388130762+387843044+387792115+387804109+387823028+387901503+388064281
2028+388281129+388534111+388835791+389161195+389478123+389901942+390569171
2018+391215628+391268525+390614198+389833418+389457161+389468285+389639311
2008+389869591+390041185+389926348+389436009+388812369+388419728+388331150
1998+388317112+388399106+389025925+390253984+391180136+390892267+389657171
1988+388415906+387604781+387097832+386781055+386644499+386579532+386437943
1978+386205998+385976702+385777033+385503656+385127474+384911156+385143025
1968+385579520+385506872+384605087+383382704+382502903+382124905+382085856
1958+382257601+382470400+382440963+382039013+381483027+381171282+381342536
1948+381956603+382968155+384402921+385735487+385746233+383947734+381490367
1938+379729479+378874310+378464907+378199740+377955801+377627635+377206048
1928+376901644+377195718+378390518+379929451+380941192+381562070+382373612
1918+382688572+381233752+378464793+376246636+375653342+376264723+376935584
1908+376815601+375938373+374926746+374182441+373621120+373134338+372960777
1898+373417856+374296408+374889324+375084075+375783844+377297615+378186611
1888+377122351+374979832+373411386+372763227+372496282+372369715+372429915
1878+372549368+372489433+372317537+372840605+375354652+380184174+385140036
1868+386584148+383590130+379007953+375644904+374090269+373644314+373607422
1858+373621876+373576433+373505223+373476391+373692217+374567061+376483614
1848+379714344+384227543+388467139+389190292+385452234+380612004+377845656
1838+377331858+377571900+377837748+379221925+383013673+388116043+391190163
1828+390847884+389104627+387349982+385025199+382248634+380370903+379976180
1818+380355314+380780420+381487113+383197375+385787135+387808309+387957541
1808+386741477+385840789+386544078+389205919+393091467+396349327+397312144
1798+396520996+396533180+399488036+404826058+408507094+406704092+401434556
1788+397672358+397404997+399273307+401453399+403460686+405077565+405700713
1778+405866329+407707320+413013521+420986254+427299466+427780307+423672917
1768+418685574+414941008+413832971+416097668+420048070+422604684+423383761
1758+424124358+424979640+425766815+428500358+435070374+443539197+448859398
1748+448843128+446251665+444399928+444668500+446886240+449661935+451280592
1738+452609450+457258373+466491063+474457024+474094615+468490404+463409451
1728+460366547+459567719+461167911+464486765+469401649+477783256+491179223
1718+506395180+514924884+513149807+507096993+502774722+502379357+506421742
1708+514608751+524833090+533659025+540769665+549995052+563144128+575259820
1698+581258715+582413066+579994824+575582954+573795995+577504236+585644174
1688+596490299+610936526+628801762+641541170+641565764+636142872+634017682
1678+637716918+646148434+655782354+663475354+670428703+678671409+685299355
1668+686102345+684185187+685655256+691474762+697380917+699829997+700914197
1658+705157916+715745194+733750165+753689472+760680130+755588241+753864207
1648+758547449+761804060+756436789+746867722+740513570+739713757+744282805
1638+752976006+760752476+758395190+745312443+732173546+725025181+722583139
1628+721232486+719238669+717140268+714004586+707748055+700425713+696620229
1618+696565894+694462801+685943351+675147286+667223022+662850049+660116581
1608+657061796+653294755+649514168+645998597+642460549+638927648+635890344
1598+633683235+632148994+630805606+629203409+627137360+624605718+621797029
1588+619120394+616972010+615412493+614198699+613351817+613871782+617349062
1578+623771209+628775162+626625643+620284696+617430564+619660413+622124022
1568+620457425+616831291+615100559+616956647+624439686+640183631+659793069
1558+665227540+652982216+639337127+630927368+627201040+626789404+628266208
1548+631260188+637170618+647194872+660759140+676238448+688950991+689121941
1538+677695576+668534475+667930283+672360694+675020757+674818022+676750013
1528+683513796+693072570+702724880+712485632+721758656+726823529+726778578
1518+725235634+723537631+720859634+718661418+720194751+727742757+741690169
1508+758076672+764121313+752239761+736733361+729307646+730383598+736690983
1498+743495631+745755371+742991557+740663407+743491847+750882146+757222450
1488+757288211+752402614+747369374+745060823+745629447+747867771+751105615
1478+756041915+763452495+772529823+780095083+781686081+776914828+771521223
1468+770445422+773653072+777129746+777400891+776756213+780355558+790156644
1458+801758425+804872691+796705964+786443636+780135872+778195255+778842884
1448+779238363+777352534+773879719+770722167+768930554+769340412+772995302
1438+778986137+782669103+780472930+775878834+773425819+772845767+771431547
1428+768794868+767251698+767994224+770056981+773009983+777808932+783201252
1418+784205539+778978645+771886129+766735138+763795531+761791649+760246510
1408+759940101+761209857+762590629+762615753+762448964+764260858+768091769
1398+772175890+775126091+776047060+774399230+771792292+771154273+773252068
1388+775696229+775658467+773834011+773872076+777890207+784688347+791941901
1378+798976601+806400954+813478865+817913740+819196664+819750456+821576047
1368+824571881+828247430+832480858+835995749+836446774+833390097+829074561
1358+825436471+822555739+819871990+817426164+815607081+814285564+812881408
1348+811132401+809291750+807857552+807565748+809174302+812553356+816007858
1338+817347992+816240257+814554514+814069813+814949690+816546742+818590126
1328+821030352+823586361+826095376+828744693+831644949+834587507+837296002
1318+839744174+842197870+844826981+847375952+849550558+851519781+853577846
1308+855583998+857196790+858463519+859860485+861787633+864040184+865782381
1298+866275481+865653581+864700375+863842596+862715109+860827237+858280688
1288+855528150+852689040+849526039+845996770+842428225+839157009+836306169
1278+833878581+831832623+830199399+829225912+829106193+829597402+830210296
1268+830665180+830889482+830916347+831079124+831868115+833323729+834911549
1258+836113575+836894469+837625189+838717108+840236517+841875341+843369172
1248+844765457+846297731+848290110+850974994+854017747+856533194+858025057
1238+859025409+860404288+862253641+863845471+864707640+865314480+866479350
1228+868479297+871052106+873813120+876350740+878328514+879908765+881719751
1218+884114420+886850310+889581885+892150910+894299559+895732320+896806379
1208+898642414+902027143+906349792+910054325+912291968+913824696+916129841
1198+919761121+923741944+926613368+927987178+928715023+929551764+930517911
1188+931851386+934437967+938474942+942573441+945220866+946644545+948306375
1178+951089410+954664992+957940219+959619379+959149889+957697226+957427065
1168+959416569+962799709+966020374+968316363+969757675+970596157+971347159
1158+972767736+974699499+976043493+976835359+978696215+982385159+986430912
1148+988924489+989693501+990144677+991631167+994131404+996020789+995817828
1138+994537553+994903746+997846531+1001410535+1003654989+1004793297+1005792817
1128+1006984551+1008869850+1012296201+1016830665+1020476777+1021896521
1120+1021911581+1022206866+1023280093+1024046835+1023241196+1020991218
1111+1018714753+1017790833+1018859974+1021537366+1024503006+1026762065
1103+1028697763+1031019709+1033472724+1035724669+1038458969+1042198162
1094+1045814912+1047188418+1045131034+1040701683+1036601368+1035152867
1085+1037001766+1041199853+1045910338+1049552137+1051797120+1053488993
1077+1055416519+1057055267+1057221677+1056324168+1056247887+1057551395
1068+1058228991+1056348384+1053203848+1052348566+1055588604+1061230576
1060+1066322616+1069419779+1070705351+1070710951+1069970998+1068833598
1051+1067539702+1066729749+1067257055+1068972084+1070825902+1072380500
1043+1073598645+1073741823+1072369073+1070898702+1070815005+1071548753
1034+1071874989+1071472850+1069968123+1066818744+1063117162+1061362024
1025+1062646007+1065230395+1066467005+1065619517+1064345977+1064604863
1017+1066765090+1069677605+1071397932+1070183116+1066577188+1063727559
1008+1063722034+1064756667+1063573105+1059869253+1056368590+1054992964
1000+1054857354+1054140482+1052646500+1051230009+1049581726+1046553503
991+1042502452+1039422467+1038729282+1039979135+1041313215+1040760558
983+1037773578+1033713068+1030027000+1026639017+1022857976+1018880482
974+1015429385+1012548729+1009652106+1006320349+1002232748+997192621+991946431
964+987677057+984466154+981275759+977362135+972571661+966930521+961342278
954+957369249+955399951+954471036+953794348+952996503+951723645+950352484
944+949861351+950226711+950241392+949161354+947378444+945587134+944107152
934+942850034+941799207+941306182+941537749+942040006+942306837+942384555
924+942399690+942169638+941679640+941046692+939989508+938478953+937577130
914+938185787+939413165+939686655+938874583+937747627+936239569+934051418
904+931938564+930763856+930223004+929464359+928187793+926714395+925610368
894+925332866+925835956+926601714+927189560+927493018+927456164+926989172
884+926191932+925306985+924570740+924306558+924681983+925052489+924374212
874+922677647+921089601+920162654+919372679+918597083+918572489+919578365
864+921084833+922613701+923991976+924908176+924963041+924186461+922992305
854+921588679+919836720+918004773+917206398+918383149+920912596+922831268
844+922799484+921343643+919867369+919140886+919100475+919330831+919042281
834+917615650+915831983+915413120+916916410+919122572+920792953+921972883
824+923083267+923954062+924475919+925050143+925697319+925693762+924917182
814+924815247+926971237+931032881+934930311+937105295+937776535+937822470
804+937451434+936463190+934720766+932168843+929542532+928497456+929663688
794+931333464+931421096+930157016+929621991+931465063+935431433+939202636
784+940331106+939161998+938106857+937429261+934790236+929957460+926533682
774+927545385+931992142+936539244+938988096+939398635+938836897+937881648
764+936268553+933750003+930990655+929505527+930593511+933788371+936445331
754+935945268+932788397+930538873+931926077+936061127+940073053+942159346
744+941894179+939311154+935609497+933390167+934530745+938600336+943739295
734+947896517+949576661+949108609+948644492+949429775+949926432+947819102
724+943036195+937684514+933857841+932346302+932746927+934167050+935657021
714+936443439+936646097+937219640+938354391+939039253+938956237+939113717
704+939693920+939068010+936438747+933483551+931979352+931336642+929064794
694+923681328+916592747+910658290+907687126+907212793+906559110+902783366
684+896265831+891280266+891157142+894226003+895849617+893329478+887422112
674+880765864+875299534+869961776+863244761+859442228+865420123+876785570
664+884498927+886351609+884042831+879297763+874204437+870570660+867365659
654+862464473+856488243+851839811+849160830+847236785+845701561+846092196
644+849129652+851619521+849354029+843706230+840305382+840690115+841018016
634+838814881+835542681+832730057+830277193+828795925+829274571+830438382
624+829263674+825266807+821992337+822643825+825742199+826808616+824380952
614+821340697+820385069+821848024+824132434+824621070+822421264+820434863
604+821548955+823658934+821993926+816599714
##END=
