##TITLE=<SNM>
##JCAMP-DX=4.24
##DATA TYPE=INFRARED SPECTRUM
##DATE=2/5/2025
##SAMPLING PROCEDURE=Instrument type and / or accessory
##ORIGIN=Admin
##XUNITS=1/CM
##YUNITS=ABSORBANCE
##RESOLUTION=4
##FIRSTX=4497.3318
##LASTX=599.83466
##DELTAX=-1.4281778
##MAXY=1.8521117
##MINY=0.38689044
##XFACTOR=1
##YFACTOR=1.7249134e-09
##NPOINTS=2730
##FIRSTY=0.40378597
##XYDATA=(X++(Y..Y))
4497+234090573+234292271+235185211+236264351+237161990+237688144+237541820
4487+236457635+234832558+233854889+234369484+235641062+235987944+234841007
4477+233434940+233240568+234322334+235483802+235755060+235324070+234851270
4467+234389561+233574785+232646375+232512715+233609893+235190221+236094167
4457+236094443+235963531+236124696+235976143+234962261+233574336+232717316
4447+232640517+232983287+233451855+234103496+235038800+236091817+236917564
4437+237116308+236369969+234900113+233590093+233116515+233328320+233881289
4427+234762428+235735467+236041798+235138786+233344734+231632958+230878222
4417+231164995+231913909+232729756+233593307+234235652+234209373+233664801
4407+233276419+233292055+233229095+232706207+232192026+232434448+233252714
4397+233537085+232703304+231529086+231113404+231621261+232435381+233024131
4387+233266294+233243315+233052881+232711217+232119253+231238874+230299821
4377+229670761+229506123+229508905+229089008+228096826+227270474+227418422
4367+228355610+229256186+229700462+229668135+229042756+227929683+226993981
4357+226813569+227311439+228181382+229278923+230240887+230365717+229438067
4347+228264073+227841308+228245914+228795272+229085155+229212923+229130716
4337+228569247+227659859+226982215+226724693+226378087+225715475+225438464
4327+226172830+227382761+227967262+227529223+226580425+225898514+225878178
4317+226156312+225972289+225144900+224351272+224295569+225012692+226026230
4307+226882523+227462549+227814286+227882359+227781649+228089120+229087764
4297+229909140+229423519+227950796+226957646+227091202+227629675+227790132
4287+227560305+227231375+226942269+226711510+226420884+225956843+225595050
4277+225836539+226685334+227486461+227636430+227225673+226919757+227250536
4267+228033556+228647704+228802650+228599828+228015103+227019068+226028096
4257+225567838+225661500+225948550+226169927+226346158+226754237+227643601
4247+228738964+229419459+229556695+229548471+229501268+229174463+228672843
4237+228357873+228163552+227723682+227015768+226358339+226063601+226366926
4227+227293281+228400376+228970795+228675625+227999104+227846077+228550138
4217+229434819+229648940+229095142+228192665+227348500+227043188+227640439
4207+228759628+229554915+229757132+229729488+229661552+229484716+229293298
4197+229220784+229136176+228880744+228628733+228691209+229012952+229193883
4187+229098234+229045261+229149808+228940369+228088343+227127830+226888743
4177+227416176+227982224+228152322+228291009+228843269+229679227+230444987
4167+231008547+231212267+230799229+229995925+229611897+230147864+231151173
4157+231757478+231699028+231490367+231668032+232104049+232207058+231674114
4147+230775559+229889565+229101137+228470454+228350392+228957578+229811401
4137+230176614+229999087+229878334+230166507+230574551+230658244+230340319
4127+229906237+229733306+230030982+230636889+231117776+231222720+231091324
4117+230857921+230414872+229795626+229327076+229221596+229414431+229784655
4107+230190402+230458204+230625848+230889884+231120886+230875751+230103305
4097+229366382+229079315+228857696+228048345+226744441+225780940+225824946
4087+226841610+228252151+229337822+229791169+230013272+230475637+230932318
4077+230888018+230507808+230251288+230040260+229587380+229122596+229127796
4067+229616372+230069044+230003700+229477546+228943531+228625520+228334894
4057+227995925+227866862+228080343+228477520+229038057+229962044+231198859
4047+232284582+232694665+232208993+231059723+229825223+229055749+228916077
4037+229155250+229382934+229432020+229467404+229640076+229753210+229529258
4027+229085898+228906246+229444010+230792283+232497839+233799843+234330109
4017+234372387+234167112+233512569+232391720+231281273+230527522+230112704
4007+230209908+231168952+232733868+233978044+234294396+233983745+233694156
3997+233742343+234122398+234754774+235509891+236203879+236709559+236967755
3987+236917547+236613548+236307320+236126527+235853594+235408178+235277680
3977+235910955+236898870+237308901+236766333+235760450+234918065+234420021
3967+234275995+234806158+236263919+238050455+239117189+239213218+238861084
3957+238309238+237629815+237466075+238529838+240578095+242458863+242998614
3947+242033160+240789123+240635837+241370531+241484217+240338507+239007719
3937+238831263+240303174+243055993+245931552+247260007+246251515+244195034
3927+243226574+244058213+245373037+245684638+245418373+246095464+247964483
3917+249374040+248685027+246321731+244079948+243083983+243280878+244515965
3907+247275177+251951491+257606182+261981521+263265901+261340903+257193404
3897+252393002+249035416+248809512+251375802+253717156+253279307+252139436
3887+253758967+257597889+260203572+260774717+261070595+260564449+257933091
3878+255307470+255567999+258465016+262053828+265512315+268053241+267966162
3868+265999819+265055703+265427533+264484316+261233592+258039677+257283921
3858+259861977+266287404+275853324+282470739+279058400+269719491+261615288
3848+257471607+257425597+260465690+265010816+269765000+274096557+277141039
3838+277507496+275159905+272077811+269926839+268812297+268208584+267916783
3828+267816417+267841919+269039186+272986732+278638693+281526675+280021159
3818+277442740+275347194+272269661+268097714+264932669+264663588+267739169
3808+272467489+276199705+279199368+283753132+288749133+289996782+287407962
3798+284493943+282175880+279564875+277327377+277006187+278821369+281874300
3788+285565170+289768718+294144644+298626343+304013802+310457889+316199711
3778+319951709+323316137+328697791+337068880+348174629+360725475+372757993
3768+383636058+394050117+403535472+411151600+417676234+424095545+429293780
3758+431748405+432742211+435452475+441965672+451232016+458998252+463100743
3748+467024791+474191945+483231883+489373992+492541767+498042567+509277103
3738+525665678+542600985+553246978+555085934+552554493+551070798+552972714
3728+558242305+565145871+570563635+572677720+572630275+572116095+571555783
3718+571130271+571614112+573566789+576269935+577555006+575552846+570836103
3708+565463191+561361046+559851089+560863728+562764261+564112154+565255653
3698+567176920+569921808+573110834+577333646+583821721+591828357+596803677
3688+594704451+588149754+582622105+581056756+583567534+588964150+596729867
3678+606359835+613097398+610559253+602999692+599018869+598479187+595586921
3668+589047220+582827431+579077264+576690713+574032627+571437639+570571859
3658+571536708+572241875+571839653+572664347+576877656+582775737+584273841
3648+577942715+568430615+561073201+557141482+555243263+553615750+552211947
3638+552552627+554931714+557376388+558913470+562047069+568970401+575705926
3628+575053075+568537114+563390055+563067828+567344685+574163867+580012638
3618+582277106+582461561+583713149+586670171+589621112+591120875+590582367
3608+587548702+582885553+579266627+578835136+581382888+585227563+589178668
3598+593195221+597428158+601514650+605168442+608932051+613541501+617994347
3588+618924848+614647957+608844281+606034325+606697715+608215792+608544481
3578+608131339+608293749+609075801+609421283+608909798+608568462+609591018
3568+611540827+612919854+613640191+614727987+616275850+617518246+617998770
3558+617822124+617448998+617656951+618881931+620556750+622065842+623627735
3548+624813599+623584472+619002459+613408464+609715140+608320287+607743976
3538+607073191+606598335+606457557+606472554+607308028+609889022+613465272
3528+615657797+614958746+612248724+609514720+607827047+606772769+605756156
3518+605233959+605875579+607210445+608221321+608615319+608459268+607268497
3508+604647627+601355558+598648162+597154273+596360473+594949309+592489812
3498+590509041+590907877+593480370+595974561+596839200+596750255+596956825
3488+597230640+596283000+593826336+590807529+588018375+585874505+584772195
3478+584823752+585821082+587469156+588797939+588055142+584679380+580449208
3468+577380987+575853061+575497109+576119793+577010763+577169440+576816114
3458+576981045+577470381+576861381+574812088+572937574+572631554+573442978
3448+574316048+574994297+575216763+573986427+571033793+567620228+564923716
3438+563145819+562497530+563196719+564335519+564628995+564283755+564308393
3428+564308289+562881541+560177705+558148004+557851417+558380215+558756382
3418+559190706+560033955+560908270+561104405+560037860+557698614+555097924
3408+553485443+552974821+552670183+552118026+551924345+552646720+553611362
3398+553516024+552114744+550370054+548982803+547921891+547084550+546209959
3388+544828756+543374986+543233482+544820773+546839416+547898601+547764803
3378+546924318+546077233+545956117+546740657+547673612+547683080+546475619
3368+544683589+543095815+541936247+540803253+539370320+537999759+537539415
3358+538294376+539363893+539531900+538711042+537971320+538301875+539527062
3348+540377050+539929803+538865331+538536919+539265653+540601728+542391201
3338+544330401+545399019+544766383+542570645+539523607+536537696+534598530
3328+534201457+534951235+536005340+536725020+536892474+536570420+535947667
3318+535366864+535276917+535737399+536158073+535917604+535015991+533932860
3308+533228142+533416053+534727628+536642364+537985868+538025330+537299948
3298+536862100+536937568+536852010+536159559+535365620+535343021+536245567
3288+537272995+537711396+537882997+538530112+539533559+539926416+539172976
3278+537793361+536694646+536305900+536367339+536441667+536550240+537220748
3268+538821999+540826578+541815892+540512748+537199324+533812228+532170754
3258+532360531+533076238+533241342+532959718+532983422+533688693+534736647
3248+535528375+535717219+535202831+533910088+531942829+529851620+528449648
3238+528322244+529445666+531028050+531849046+531288354+529886348+528426842
3228+526915814+525103086+523384796+522419671+522316973+522713217+523248614
3218+523647795+523751046+523665557+523533452+523137243+521955284+519703981
3208+516902699+514783881+514244751+514853648+515330751+514954549+513953382
3198+512775121+511705915+510955896+510496036+510085486+509741766+509619544
3188+509473894+509098902+508954565+509243170+508922118+506950643+504037851
3178+501957009+501504405+501830571+501558795+500306344+499017886+498778868
3168+499526296+500151122+499711097+498233173+496436581+494896700+493585850
3158+492257136+490976142+489964712+489222606+488629571+488115666+487499617
3148+486490745+485128166+483952185+483455870+483546577+483743161+483681722
3138+483171342+482065094+480502925+479014220+477956003+477155256+476423551
3128+475952115+475847378+475787943+475474148+474997391+474577615+474314339
3118+474219174+474125391+473728664+473016309+472276449+471481888+470264510
3108+468671828+467299781+466564033+466317448+466156490+465814325+465341852
3098+464982928+464806454+464610630+464223613+463616064+462807093+461967749
3088+461347829+460876082+460269225+459595918+459148670+458775578+457993906
3078+456827635+455993232+456104534+456934342+457542201+457198239+456155400
3068+455212217+454643232+454175839+453787681+453675204+453665908+453427374
3058+452939870+452295693+451557664+451028728+450990130+451114218+450734284
3048+449669812+448404368+447503066+446987365+446325081+445182238+444018283
3038+443602895+444083765+444761944+444686683+443509769+441863596+440711355
3028+440340267+440297833+440183732+440009471+439749547+439089993+437927937
3018+436722585+435976401+435656800+435424555+435093482+434572079+433723923
3008+432602643+431577288+431028345+430984563+431077931+430864588+430198434
2998+429201207+427983483+426680616+425588500+424881294+424364660+423804521
2988+423283015+423058994+423228314+423562186+423625629+423099804+422065153
2978+420967854+420282246+420149312+420219666+419871903+418781688+417315824
2968+416170597+415602269+415255992+414830825+414569968+414770526+415095863
2958+414872291+413971438+412890657+411995886+411222403+410544950+410174553
2948+410115429+409975170+409400828+408432075+407387403+406599028+406194249
2938+405986538+405678651+405227154+404845734+404627725+404372121+403857387
2928+403144549+402519516+402142588+401779448+400952440+399438406+397626886
2918+396309990+396003796+396491404+397120584+397445956+397396611+396973725
2908+396128368+394949657+393767283+392964636+392644310+392503947+392160296
2898+391597427+391118113+390885073+390768276+390626877+390478117+390363497
2888+390215981+389882593+389272107+388546898+388072422+388001031+387995260
2878+387564737+386628051+385566413+384792758+384423190+384264444+383960428
2868+383265696+382346529+381682207+381512921+381522631+381234199+380584700
2858+379901061+379448354+379238674+379145444+379004597+378681575+378154713
2848+377518103+376891377+376355012+375915055+375500359+375057086+374602927
2838+374126308+373550999+372873857+372213750+371673722+371258887+370915858
2828+370538861+370004881+369332403+368729796+368354008+368112191+367857934
2818+367660970+367637887+367608930+367239777+366497153+365658188+364886191
2808+364085203+363213307+362496115+362191892+362244554+362330354+362226862
2798+361933316+361448610+360743651+359967197+359337705+358816475+358182596
2788+357381469+356554426+355857691+355419739+355250799+355089530+354608937
2778+353838426+353110452+352627544+352364476+352269207+352252897+352109977
2768+351708965+351148169+350578458+350013965+349404793+348758162+348121172
2758+347517390+346943049+346434501+346098590+345957467+345790427+345343491
2748+344719045+344292738+344182369+344057832+343561275+342708315+341782583
2738+340999598+340373562+339834191+339371393+339023354+338770307+338523790
2728+338203395+337749582+337109690+336324804+335596934+335115028+334850094
2718+334659695+334500672+334369155+334130586+333648646+333048526+332590152
2708+332289039+331923238+331405878+330909839+330625346+330545317+330462039
2698+330110889+329411493+328614340+328088895+327930079+327881564+327663728
2688+327249515+326769544+326289608+325830646+325517058+325477976+325580156
2678+325472655+324968357+324235822+323547657+322980019+322467912+322021183
2668+321709219+321496497+321269332+321020397+320863309+320825056+320716968
2658+320321622+319707750+319206908+319021174+319018755+318990143+318909353
2648+318817678+318616464+318156189+317487029+316861788+316428708+316063633
2638+315626337+315206872+314921862+314653852+314237739+313752481+313414151
2628+313298011+313315945+313356271+313328420+313146936+312759435+312193490
2618+311572603+311077428+310819163+310728076+310648702+310536882+310427584
2608+310256260+309930957+309527526+309167150+308767278+308149294+307352728
2598+306680562+306432317+306613628+306900954+306936995+306646145+306217488
2588+305888281+305780400+305787035+305645255+305277277+304913342+304726986
2578+304604350+304419376+304243145+304149604+304059035+303861345+303534039
2568+303134616+302766983+302487916+302212857+301833130+301416914+301147867
2558+301097970+301205885+301396733+301563324+301531291+301210343+300719418
2548+300267367+299970953+299841544+299876238+300061626+300282952+300346810
2538+300172410+299858304+299509297+299172418+298964327+298994943+299139073
2528+299165611+299065643+298968059+298840965+298581974+298270114+298048892
2518+297909980+297816923+297856696+298055561+298213236+298123359+297858424
2508+297673416+297678288+297721966+297591347+297245900+296838460+296561638
2498+296495120+296544845+296516060+296304306+296002674+295781763+295714588
2488+295745930+295770187+295731520+295678651+295666798+295627785+295472184
2478+295272524+295164539+295132887+295085581+295056001+295134683+295259117
2468+295253242+295077944+294899881+294847392+294808034+294576307+294135348
2458+293681674+293415772+293399151+293555893+293729360+293785339+293702856
2448+293541311+293357339+293205366+293134562+293098383+292959575+292670763
2438+292364397+292217918+292309800+292576151+292818659+292848100+292721075
2428+292718898+292984869+293294656+293304850+292983522+292679886+292726155
2418+293055915+293311519+293276238+293061616+292888530+292837077+292862406
2408+292936388+293077546+293284773+293525312+293764986+293977259+294168038
2398+294377269+294587503+294712938+294751881+294808448+294914982+294989586
2388+294942038+294650704+293908045+292494048+290207326+286879942+282588468
2378+277777285+272940687+268241826+263599445+259028230+254700785+250763295
2368+247314691+244526695+242507775+241097355+240180676+240150475+241677605
2358+245126330+250445284+257535171+266432328+276580882+285979711+292056752
2348+293461039+290905237+286829750+283728823+282238044+281494487+280753037
2338+279875854+278939133+277845100+276372135+274647902+273312535+272917553
2328+273326392+273932973+274323723+274612154+275237378+276465710+278067721
2318+279549377+280667565+281571286+282490280+283498115+284575735+285711442
2308+286881894+288014301+288989603+289712272+290214203+290622679+290998605
2298+291291909+291435485+291407116+291258494+291116956+291064052+291061806
2288+291114848+291341565+291724816+291999529+291959860+291681553+291312711
2278+290866362+290355084+289919585+289678166+289597981+289604840+289662080
2268+289671168+289483240+289115055+288794435+288697111+288773132+288888702
2258+288994596+289088724+289133663+289100283+289046273+289075075+289203931
2248+289326170+289348683+289311622+289291960+289254675+289120619+288927870
2238+288805372+288822390+288931723+289015847+288987236+288913149+288990674
2228+289307666+289686649+289861412+289774022+289621046+289614308+289752010
2218+289859304+289812188+289648950+289483828+289398701+289406234+289443606
2208+289414666+289289852+289143961+289069926+289089623+289163571+289234288
2198+289239575+289149282+289020910+288959626+289022188+289211550+289509606
2188+289828239+290002069+289927982+289658210+289325721+289048536+288887993
2178+288824395+288809294+288864720+289046791+289305229+289488147+289516413
2168+289476658+289516759+289707417+290013368+290328960+290520154+290513727
2158+290375230+290245544+290204389+290231169+290254701+290230755+290218937
2148+290307294+290419875+290388844+290271944+290333211+290655299+291043146
2138+291328745+291520076+291659023+291747346+291821052+291952223+292135607
2128+292245458+292194040+292101709+292181773+292463259+292766412+292925953
2118+292914930+292810919+292753108+292872185+293190956+293627837+294090081
2108+294512553+294836645+295011287+295038897+295023070+295120412+295383204
2098+295688879+295896521+296030180+296226626+296532474+296849276+297081555
2088+297239991+297366877+297460038+297514877+297543419+297544214+297554512
2078+297678703+297933823+298155495+298188460+298075327+297983548+298073392
2068+298452013+299071310+299656916+299927345+299907579+299863452+299948700
2058+300087750+300185230+300254617+300312358+300331847+300359906+300503310
2048+300735693+300898517+300968595+301121502+301415290+301616781+301519923
2038+301289198+301285397+301630879+302119835+302526791+302825312+303051752
2028+303133406+303009872+302816985+302796493+303092735+303696068+304429846
2018+304949487+304983213+304637488+304275419+304130080+304207899+304441042
2008+304742467+304986875+305068287+304985320+304865587+304869284+305007228
1998+305167184+305438995+306156533+307348651+308392216+308592049+307969676
1988+307114782+306496555+306235664+306278685+306501359+306743728+306902855
1978+306979567+307028152+307091906+307178190+307339978+307782595+308664753
1968+309674800+310132690+309783891+309135532+308773947+308785489+309002426
1958+309371924+309843429+310202734+310271015+310150106+310128820+310388537
1948+310940210+311867843+313296214+314815259+315379648+314464420+312876819
1938+311747729+311381133+311440879+311636496+311908791+312258558+312648789
1928+313135809+314035487+315550800+317171195+318175678+318766295+319525333
1918+319944764+319056800+317351469+316347538+316678334+317688554+318390715
1908+318369291+317944988+317646293+317622588+317695500+317809325+318143024
1898+318827147+319674612+320290212+320691120+321516781+323005555+324209491
1888+324133816+323161745+322307645+321933275+321866929+321937179+322026815
1878+322090708+322218251+322588129+323647003+326139846+330181555+334065484
1868+335082719+332722084+329378286+327299828+326843769+327221007+327674129
1858+327907687+327995872+328157452+328522113+329157202+330217077+331896008
1848+334423199+337869212+341156893+341914514+339441298+336201442+334500845
1838+334431424+334937311+335563208+337047698+340166127+344020132+346260723
1828+346108611+345192934+344421802+343071559+341069330+339592685+339310956
1818+339744002+340278190+341023648+342455302+344454940+346053116+346415357
1808+345856531+345496018+346354471+348792268+352075146+354517918+354949616
1798+354152878+354187675+356548137+360773887+363872205+362827845+358919070
1788+355930602+355577310+356930697+358577492+360173076+361657358+362544942
1778+363019522+364520598+368413132+374226933+378937871+379563630+376796488
1768+373059798+369926579+368737605+370246387+373059798+374664850+374827017
1758+375029372+375456509+375936272+377880138+382547606+388355152+391645251
1748+391090849+388854508+387242096+387051490+388084239+389481270+390206790
1738+390902212+393994311+400142294+405012428+403826910+398986908+394444080
1728+391199317+389573566+389847692+391481529+394224171+399320469+407837208
1718+417408847+421891617+418706462+412251594+407016488+404705060+405705017
1708+409728480+415124751+419488963+422885976+427995025+435385646+440981058
1698+441833844+439441626+434659918+428841660+425366552+425773405+428902546
1688+433893693+441939410+452672517+459192175+455934247+448583986+443816170
1678+443703485+447436547+452126165+455295322+457935957+461472539+463601413
1668+461528795+457974936+457367283+460072813+462696828+462636564+461622854
1658+463153163+469591272+481638061+495183162+499316719+494537672+492279009
1648+495105932+497379142+493832332+487656981+484203332+485048136+489978915
1638+498301834+507047570+510030163+505558035+500051119+498310784+500274795
1628+503677371+507018440+510456194+513418987+514217349+513751580+515421631
1618+520276491+524529712+524009726+520940019+519563342+520720870+522816744
1608+524324489+525205058+526310235+528069784+530118144+531881562+533195349
1598+534342718+535695656+537349846+539040284+540458911+541593771+542649328
1588+543759757+544918357+546111063+547359678+548747275+550757072+554393552
1578+560031709+565324798+566367776+564321869+564191251+567594104+571518671
1568+572506533+571380588+570858149+572723471+579008880+591922278+608335768
1558+614640631+607379281+598672972+594022817+592919747+593866005+595614289
1548+598295907+603674831+612979773+625182095+637816979+646897727+646766763
1538+639617509+634823259+636095787+640678698+643846922+644958284+647550335
1528+653623265+661847184+670279124+679070715+688380840+695690153+699212636
1518+700729055+701712494+702122457+702770366+705515842+711990233+722945391
1508+736170269+742757863+736149536+725681675+720621833+722112335+727841096
1498+733804693+735887885+734038147+732835213+736071856+743301347+749881684
1488+751102518+747590332+743371286+741337094+742205119+745194554+749291344
1478+754291543+760535590+767855823+774279763+775975523+772060079+767429827
1468+766599950+769722976+773582648+775002173+775024220+777606526+784976103
1458+794368608+797760887+792490812+785526221+781538280+780727202+781898898
1448+783295893+783297690+781824328+780081850+779141189+779625860+781914586
1438+785590978+788648486+789050017+787630906+786347113+785463469+784310433
1428+783328237+783805858+785891538+788557606+791498734+795272916+798693254
1418+798445148+793986221+788714487+785222136+783627416+782911156+782504166
1408+782701752+783477723+783671646+782583988+781723911+783178406+787066897
1398+791536330+794650232+795466702+794162936+792460265+792516314+794697366
1388+797027419+797191142+795645213+795275750+797995171+803347833+809671149
1378+815685197+820995287+825464996+828777729+830995755+832820820+834670350
1368+836314000+837765939+839594874+841929558+843885034+844405573+843350673
1358+841534593+839979542+839179313+838997553+839124716+839374481+839624591
1348+839819137+839995575+840230343+840759521+841973996+843815371+845328334
1338+845500073+844556371+843609077+843217774+843096693+842992060+843067390
1328+843464982+844117590+845031297+846492980+848936168+852346969+855755212
1318+857997289+859077552+859857116+860828876+862274940+864756622+868330108
1308+871998345+874740158+876504751+877751570+878647309+879156790+879501996
1298+880006501+880556688+880765885+880650955+880395039+879576981+877587295
1288+874618869+871369026+868148210+865096645+862762098+861575060+861074079
1278+860364109+859223858+858220031+857934329+858612094+860162584+862012321
1268+863242484+863302126+862601348+862101611+862302169+862958234+863740078
1258+864586680+865333071+865736191+866032605+866928620+868927429+871790046
1248+874535315+876201772+876927914+877859797+879728885+882051613+884027339
1238+885642446+887390039+889295133+890802152+891631338+892278141+893467322
1228+895409322+897672961+899627607+901190744+903069922+905679044+908237645
1218+909853928+910834534+912131596+914062538+916206063+918207152+920209692
1208+922612035+925492414+928435338+931071551+933442656+935776235+938235248
1198+940802005+943205385+945021535+946071182+946705684+947415792+948257625
1188+949049076+949954144+951314926+953111310+955241152+957938527+960995275
1178+963356982+964519002+965187852+966116556+967539606+969782719+973267883
1168+977482436+980571667+980854743+978900511+977162663+977384369+979297619
1158+981814408+984445921+987181376+989532785+990572826+990316012+990252431
1148+991729664+994598087+998102394+1001704976+1004503113+1005158970+1003384632
1138+1001103025+1000731833+1002363942+1003669159+1002920280+1000990099
1130+999899400+1001051676+1004733804+1009683069+1013671839+1015366009
1121+1014744777+1012593649+1010931616+1011971104+1015659037+1019678492
1113+1021771428+1021093594+1018690906+1017583068+1020510511+1026512533
1104+1031196000+1031752546+1029834044+1028256808+1027825214+1028012434
1095+1028759862+1030709187+1033813207+1036688127+1038102262+1038491284
1087+1038683756+1038001084+1035999927+1034985042+1037748279+1043395074
1078+1048413934+1051317188+1053621533+1056828459+1060394066+1062475876
1070+1061815182+1059384849+1057949842+1058786284+1059987145+1059546014
1061+1058266298+1057747418+1057868914+1058107276+1058854289+1060192195
1053+1060951787+1060210164+1058326563+1055864370+1053383310+1052073670
1044+1052674515+1054111664+1055221644+1057104623+1061464654+1067639798
1035+1072610280+1073741823+1071089922+1066945516+1063478390+1060994082
1027+1058926371+1058009277+1059500885+1062574427+1064687337+1064382491
1018+1061981668+1058501135+1055794292+1055898925+1058446400+1060099795
1010+1057819224+1052271671+1047246108+1045987125+1048118418+1050381366
1001+1050981174+1051263490+1052470294+1054018088+1054775330+1054139653
993+1052233246+1049686324+1047319641+1045675092+1045035822+1045915389
984+1048110332+1049385694+1047371958+1042559807+1037704532+1034774670
975+1033970572+1034677432+1035691695+1035202808+1032225329+1028312511
967+1026118812+1025638979+1023832712+1019376964+1015270844+1014426938
958+1015366216+1014481674+1010987940+1007390335+1005873018+1005749725
950+1004225843+999708102+993810367+989093175+985951489+983154319+980223766
940+977966554+977600961+979585394+982631707+984265405+982866336+978908804
930+974510624+971939030+971608406+971725410+970886342+970064067+970612941
920+971691131+971669569+970475550+968997143+967682872+966473511+965221785
910+964013253+963497137+964364264+966420089+968886635+971321806+973539486
900+974692799+973642322+970468017+966463213+962841211+960072169+958083520
890+956766001+956398956+957254058+958850437+960343842+961252227+961016285
880+959198684+956655701+954816054+953796884+952731895+951237384+949013069
870+945554997+941616746+939209842+939378540+941304161+943834289+946356469
860+948085194+948157829+947199408+947415308+949886209+952929412+954145753
850+953021674+950476134+947683456+946161371+947079294+949950481+952585104
840+952912756+950802335+947664658+944878062+943114298+942343027+942102246
830+942049170+942234662+942900263+944047978+945523621+946878390+947486768
820+947621188+948219407+949143826+949156473+948057412+947298166+948042830
810+949832234+951312369+951200203+949145899+946969478+947836605+953003498
800+959867119+964041865+963381170+959162125+954242853+950928323+950150003
790+951646241+954428345+957450677+959883774+960971018+960358286+958639720
780+957037259+956364747+956398611+956163636+954993737+953390447+952118402
770+951254938+951513756+954704717+960934458+966608276+967355496+962671891
760+955931356+951024386+949818688+951527855+954176369+956469311+958005564
750+958977047+960233334+962338365+964196672+963886090+960916490+957024888
740+954938587+955898598+959193362+963808756+968804325+972547270+973776396
730+973084533+971745314+970414042+969136538+967437738+965345769+964346296
720+965708252+967806165+967202624+962790208+957382811+955158012+957632368
710+961773941+962792351+959448794+954739342+951676442+950739445+950824243
700+950998055+951149683+951281615+950467357+947453595+942876904+939827066
690+940370342+942122772+940429086+934472123+927722258+923601971+923192907
680+924862612+925671410+924228318+921850647+919902980+917341960+911848244
670+902963285+895900489+898774233+908743809+915998663+917693455+917792144
660+920427873+924739250+926265759+923026904+917771273+913527624+909940523
650+905267975+900090992+896500642+895263292+896152050+898982601+902420838
640+903116226+898546722+891709087+888717993+890725647+891377980+884915268
630+875607976+871789977+874298750+876370401+873397276+869425783+869773615
620+873355395+874461367+868754653+857479376+847212695+845591022+855603584
610+872514046+887255965+894157941+893390057+886743097+876010544+865542337
600+860502261
##END=
