##TITLE=<SNM>
##JCAMP-DX=4.24
##DATA TYPE=INFRARED SPECTRUM
##DATE=3/5/2025
##SAMPLING PROCEDURE=Instrument type and / or accessory
##ORIGIN=Admin
##XUNITS=1/CM
##YUNITS=ABSORBANCE
##RESOLUTION=4
##FIRSTX=4497.3318
##LASTX=599.83466
##DELTAX=-1.4281778
##MAXY=1.7115878
##MINY=0.18058608
##XFACTOR=1
##YFACTOR=1.5940403e-09
##NPOINTS=2730
##FIRSTY=0.20246404
##XYDATA=(X++(Y..Y))
4497+127013124+126957241+127637714+128214292+128077137+127236458+125960104
4487+124575883+123685014+123988153+125540050+127539718+129025552+129476727
4477+128884079+127729259+126760512+126410362+126525904+126755258+126981359
4467+127251901+127442330+127318927+127061089+127202450+127685791+127660757
4457+126716604+125584359+125140477+125416730+125898846+126138512+125898874
4447+125287643+124861092+125067693+125522363+125306956+124163204+122958166
4437+122679352+123372631+124359635+125032068+125098785+124445384+123135209
4427+121504947+120097973+119370704+119349410+119566378+119437431+118796978
4417+118128134+118139960+118955726+119919939+120390885+120366533+120151248
4407+119895485+119660419+119492650+119265801+118839530+118416297+118319564
4397+118417204+118222549+117645784+117170605+117138447+117346236+117547443
4387+117813217+118107896+118038786+117361108+116280166+115072585+113930553
4377+113288277+113620376+114657887+115452312+115594309+115729173+116468202
4367+117417599+117742686+117241790+116407972+115752516+115464222+115523974
4357+115811876+116124212+116281540+116270061+116210504+116232865+116458816
4347+116941643+117446456+117539843+117120677+116557466+116149882+115848370
4337+115566957+115348259+115243683+115367086+115870488+116630708+117274452
4327+117652889+117925758+118131013+118094014+117812544+117528541+117319687
4317+116994001+116542070+116289720+116379124+116488646+116360232+116235707
4307+116436288+116848686+117101981+117061700+117008650+117337477+118116991
4297+118993043+119586859+119926399+120335815+120956862+121553753+121815499
4287+121678662+121254756+120629157+119883837+119099303+118236441+117343964
4277+116888957+117400632+118723455+120012036+120540977+120333263+119991676
4267+120031611+120479289+121063738+121522783+121674932+121545106+121436398
4257+121596792+121984025+122483538+122967047+123225689+123338510+123707954
4247+124321803+124641918+124521169+124427492+124629756+124906215+124993320
4237+124757263+124168046+123460811+122995633+122834258+122819787+123035914
4227+123787058+125098046+126444398+127046310+126523913+125347321+124496985
4217+124532424+125173466+125835130+126206453+126229141+125964956+125665220
4207+125653965+126003040+126442772+126569447+126140839+125379609+124958209
4197+125396146+126460468+127383718+127644977+127380633+127076102+127022781
4187+127202815+127579531+128142779+128600067+128490770+127846278+127317739
4177+127425532+128024723+128644592+129051914+129334674+129613675+129850639
4167+129962395+129980184+129940259+129750877+129410337+129225311+129542032
4157+130312395+131102772+131539662+131600116+131387112+130858470+130079143
4147+129516063+129597157+130119302+130532009+130604493+130476537+130346413
4137+130344730+130462693+130585321+130744611+131125759+131749722+132417603
4127+132959285+133287953+133284634+132901729+132397617+132302482+132985478
4117+134204613+135260399+135700515+135682314+135572942+135491063+135351178
4107+135094294+134764299+134562456+134842392+135726063+136708580+137028994
4097+136519534+135760641+135307439+135094715+134727439+134137914+133783464
4087+134155161+135149251+136121635+136624373+136820027+137029022+137201175
4077+137143442+137004801+137077286+137256777+137150827+136661728+136124897
4067+135968860+136469924+137565272+138704210+139231150+139076187+138766094
4057+138724392+138828904+138655208+138004593+137164475+136631646+136650360
4047+137160661+138000171+138849881+139235861+138995822+138530047+138280566
4037+138216476+138128613+138170839+138702023+139656991+140416052+140437973
4027+139925869+139720277+140391943+141517289+142160968+142003266+141554111
4017+141365926+141529404+141831785+141972006+141760899+141365514+141167261
4007+141298573+141571125+141870795+142327634+143010621+143642193+143776871
3997+143295886+142603719+142175878+142048529+142015157+142129091+142642504
3987+143550012+144434889+144749189+144262960+143349141+142731254+142843347
3977+143518491+144275972+144733110+144799724+144674919+144629880+144737999
3967+144910181+145099647+145313493+145559720+145880349+146240707+146379067
3957+146018803+145225808+144456333+144303801+145070350+146367307+147355433
3947+147629621+147497514+147271778+146934837+146566776+146426004+146528870
3937+146694031+146958506+147522296+148336482+149048252+149369834+149328357
3927+149112464+148825647+148440321+148015957+147833109+148108932+148684865
3917+149191333+149472401+149593355+149580361+149442693+149269090+149122877
3907+148954416+148704926+148469758+148549468+149220845+150351435+151354938
3897+151733777+151574290+151241266+150759720+149876049+148871611+148625001
3887+149445226+150664875+151564372+152271112+153041587+153408732+152951472
3878+152095696+151464488+151350152+151979762+153364927+154725292+155030038
3868+154439429+153975008+154109985+154612414+155146730+155531234+155764561
3858+156107737+156883213+157975532+158615743+158458452+158012943+157474776
3848+156916044+156692934+157081728+157782589+158303705+158687461+159241202
3838+159792138+159976220+160030532+160427973+161195055+161965035+162365804
3828+162290814+162145976+162682049+164001955+164922121+164332914+163278697
3818+163366550+164450400+165506916+166323692+167257506+168344758+169368911
3808+170136797+170683994+171401232+172455748+173155636+172862575+172449634
3798+172917261+173975104+174959285+175889322+177135005+178659092+180044678
3788+181072477+182029118+183397261+185388021+187886230+190675481+193622097
3778+196833150+200451292+204293264+208112894+212063172+216463690+221304145
3768+226422648+231856891+237568659+243339376+249200039+255528367+262543719
3758+269907062+277227816+284806426+293466623+303726551+314960733+325821404
3748+336020346+346244153+356245851+364561947+371329371+378331991+386539126
3738+396417766+408780145+423508327+438212166+450113349+458288065+463341282
3728+466312278+468170146+469819889+472147440+475510305+479458695+483529133
3718+487895867+492969276+499023817+506005648+513107171+519516378+525801368
3708+532961073+541489332+551760702+563151221+572803152+577954897+579420745
3698+579996473+581369775+583845549+587466458+592370555+597887323+602449991
3688+605662578+608628563+611633062+613624009+613306325+610696276+608065923
3678+608043151+610183629+611297206+610611994+609755937+609577988+610356867
3668+612164704+614781334+618506829+623846059+630141481+635979223+640585790
3658+643401197+643735259+642442312+641501151+641832745+643055693+643927754
3648+643626448+643372330+645225038+649824426+655752134+660470279+662624368
3638+663567249+665571245+669062628+672841332+676029315+678138010+678571759
3628+678139057+679162481+682336778+686091027+687679597+685397552+681356429
3618+680118748+683517922+688807569+692198890+693282591+694564320+697153429
3608+699668353+701327518+703198399+705927280+708326662+708921795+708362932
3598+708533141+709661488+710665094+711918928+715068247+720029741+724240400
3588+725085239+722452754+718264606+714660074+713499645+715470064+719298948
3578+722281049+722213295+720177964+719663073+722492091+726694374+728385772
3568+725850133+721433219+718206498+716405242+714869396+713678380+714076756
3558+716432015+719632113+722248070+723619540+724151182+724621875+725036928
3548+724966631+724945542+725819920+726962700+726886719+724937315+721755091
3538+719617081+721257476+726178436+730077917+730369427+729064589+728182732
3528+726944228+724823942+723056862+722130957+720953104+718903713+716591530
3518+715211459+716112536+719474916+723071745+724127550+722758174+721550556
3508+721768477+722354712+722593872+723361310+725300543+728015440+731255472
3498+734277134+734566550+730620777+725233387+722538158+723222211+724795001
3488+725025486+723764397+722698271+723783168+727054834+730349086+731591104
3478+731134994+731450360+734706022+740446395+745353820+745997414+741990842
3468+736086243+731736934+730005451+729422208+729125165+729869718+731590955
3458+732930193+733708623+735210518+737800151+740143818+740419922+737836421
3448+733728366+730260317+727714358+724911215+722272001+722063502+725286708
3438+730271684+734585545+736676142+735795780+732007429+726729672+722412894
3428+720751709+721469415+722979984+724030779+724574910+725225759+726126461
3418+726575467+726446763+727206348+729845338+732832151+733693143+732220938
3408+730598865+730639922+732150117+733736219+734268534+733940006+734085611
3398+735335408+736296611+735302203+732772024+730005003+727133208+724122914
3388+722090200+721848646+723011394+725212821+728412096+731689371+733283100
3378+732594411+731270354+731517217+733677289+735975337+736546765+735024155
3368+732537650+730972039+731393150+732772024+733009390+731552665+730283500
3358+731247694+733771068+734873539+733340834+731477282+731383952+732160064
3348+731981105+730917970+730531410+731949097+734975620+738340393+741069424
3338+743567221+746165081+747384963+745542426+741653864+738725158+738261869
3328+738738994+737887499+735989397+735533212+737812640+741468473+744160860
3318+744406003+741960779+737523897+732200971+727078391+723283758+721809758
3308+722582505+724436933+726792267+730045611+733754092+736226239+736608163
3298+735958212+735653316+735903021+736131562+735803408+735001795+734961187
3288+736938934+739992230+741429735+740144117+738089192+737886227+740020723
3278+742470210+742914429+741257357+739228158+738012164+737648039+738208473
3268+739874968+741950084+743232561+743286930+742343899+740553636+738550462
3258+737710335+738479342+739357610+738647682+736675244+735086824+734809150
3248+735781870+737120436+737307845+736059993+735012937+735167891+735563051
3238+735175668+734291343+733589941+733660986+735039561+736958303+736954190
3228+733954140+730935021+731893532+736815988+741185938+740891437+736451415
3218+731208134+727675021+726852094+728492339+730675594+730817161+728363710
3208+725614263+724981887+726299662+727647800+727933102+727328844+726021464
3198+724421752+724122390+726616972+730668415+732685798+730914680+727552150
3188+725362090+724162699+722241862+719845472+718866321+719742120+720828139
3178+720562804+718942601+717061325+716038874+716317221+717546078+719111165
3168+720640355+721704612+721441745+719270530+715872852+712741855+710741224
3158+709553349+708460825+707258217+706325282+706131965+707025638+709138147
3148+711928949+714148998+714865881+714247713+712714784+710198290+707160923
3138+704848441+703666324+702722845+701462654+700479538+700431228+701272028
3128+702571182+703627212+703397624+701318619+698262631+695815238+694717852
3118+694839377+696215409+698725247+700991886+701207116+699190256+696340673
3108+693689343+691358389+689501344+688564744+688711920+689457595+689845127
3098+689208937+688059352+687674437+688359985+688829631+687967666+686404598
3088+685395533+684975619+684150897+682368785+680174911+678658883+678656789
3078+680221801+682479167+683998262+683754913+682224601+681068734+681143967
3068+681321879+679863060+676580999+673128504+671343776+671475321+672059761
3058+671590489+670009099+668250769+667020641+666421918+666139981+665741529
3048+664872685+663393076+661643720+660401776+660185276+660752291+661637364
3038+662638427+663243807+662632295+660694333+658323070+656555392+655568538
3028+654693187+653584060+652827691+652856483+653055933+652719104+652113127
3018+651850484+651741448+650947687+649271246+647900972+648222994+649890760
3008+650960924+650196029+648305705+646559341+645225412+643871815+642493539
2998+641726476+641956064+642489725+642027035+640085857+637555229+635686293
2988+634854691+634480470+633897750+632890255+631399055+629349066+627054532
2978+625329668+624888815+625772242+627282026+628248091+627746587+626020414
2968+624341954+623667175+623747082+623748615+623256683+622315634+620980210
2958+619318090+617675339+616497785+615851349+615396024+614866551+614295685
2948+613685444+612819441+611586509+610186957+608833734+607513939+606287700
2938+605611201+605861317+606502668+606387014+605152548+603629640+602478222
2928+601256844+599294540+596853429+595016239+594530253+594924067+594977014
2918+594026954+592396580+590631407+589031957+587918567+587674022+588294807
2908+589048222+588907777+587563528+585630801+583723613+582072487+581000303
2898+580677010+580486198+579677592+578383112+577146553+575971130+574466057
2888+572543463+570703020+569727869+569936480+570752266+571253059+570958932
2878+569953606+568697715+567769379+567312110+566866321+566049825+565003068
2868+563919854+562735233+561495943+560480596+559761245+559029555+557972478
2858+556602391+555251748+554332686+553846550+553194431+551959591+550667504
2848+550066425+549970701+549563351+548483165+546955620+545349327+544108392
2838+543519503+543242614+542637459+541581317+540413110+539271826+538023152
2828+536616271+535177607+533913489+533022733+532595340+532554844+532639799
2818+532398582+531470471+530051587+528790013+528059108+527552481+526646581
2808+525058273+523181784+521725994+521013523+520791339+520611931+520063650
2798+518863398+517213393+515833472+515114271+514479427+513202035+511613241
2788+510743462+510864201+511123927+510647775+509368289+507772204+506424216
2778+505635578+505082136+504023713+502336092+500788504+499859645+499012862
2768+497684056+496318007+495736895+495899439+495923258+495149539+493663985
2758+491852895+490004636+488405971+487313259+486612380+485748285+484198453
2748+482096975+480301964+479574424+479683684+479658070+478887717+477534531
2738+475926593+474207786+472638249+471573694+470945767+470242682+469196150
2728+468111029+467330467+466703886+465833097+464633668+463359043+462166008
2718+460965458+459716409+458562860+457568266+456568997+455423675+454223124
2708+453170384+452362526+451709322+451057390+450400820+449830029+449274119
2698+448520891+447494326+446345152+445303705+444494352+443777917+442869549
2688+441773921+440860766+440332976+439928093+439280311+438287848+437070882
2678+435827704+434757054+433897819+433022543+431863535+430458299+429150620
2668+428204747+427528136+426862966+426146308+425533674+425121388+424819670
2658+424519037+424215301+423856186+423195092+422010658+420458583+419000886
2648+417928254+417137222+416459788+415952376+415645873+415284029+414619158
2638+413749977+412922563+412206016+411533182+410864908+410211704+409588040
2628+408941642+408154275+407187350+406132405+405103671+404266834+403871524
2618+403945635+404063346+403712158+402816055+401746040+400930030+400482072
2608+400150703+399698706+399242783+398986684+398785888+398315532+397534185
2598+396696226+396051286+395674335+395434763+395097075+394574743+394032968
2588+393658597+393437049+393210901+392861882+392397845+391895332+391375356
2578+390792561+390149154+389506719+388910426+388437191+388214408+388216352
2568+388162433+387794232+387189563+386702979+386602693+386802891+386972464
2558+386846079+386390268+385807473+385444545+385505382+385804370+385983366
2548+385918341+385711002+385427644+385081915+384769990+384633546+384700627
2538+384834117+384830677+384557901+384068999+383648673+383618273+383929638
2528+384113795+383848609+383359482+383021905+382829934+382512811+381971372
2518+381382632+380979993+380857235+380938189+381059339+381091085+381031183
2508+380967243+380912613+380748610+380394058+379945950+379584480+379390302
2498+379295887+379223570+379228057+379373064+379471929+379187562+378456096
2488+377611257+377045102+376864685+376852083+376695934+376305896+375889758
2478+375707509+375810300+375993671+375944426+375532326+374980941+374605412
2468+374442681+374329233+374225918+374226218+374330579+374385396+374213916
2458+373794600+373347688+373134254+373129916+373073267+372857178+372644753
2448+372572100+372552282+372413706+372084094+371595491+370996954+370346966
2438+369783690+369476102+369427455+369437962+369340518+369164139+369009896
2428+368923670+368935486+369044484+369120914+368994715+368691838+368437384
2418+368382381+368455931+368519423+368542868+368581382+368634479+368592599
2408+368390158+368172012+368130469+368185249+368073334+367779432+367609110
2398+367779469+368137387+368337622+368192914+367817908+367487100+367352936
2388+367227747+366620124+365070106+362415075+358597034+353381872+346625441
2378+338745301+330568266+322700017+315262076+308162105+301334536+294697274
2368+288220201+282273311+277630567+274837072+273816864+274321901+276474363
2358+280709084+287341129+296370313+307770029+321108269+334184950+343312569
2348+345814330+342155206+335860157+330538801+326845164+323588941+320239387
2338+317019621+314050271+311103748+307945231+304923624+302911289+302375684
2328+302896650+303762859+304649334+305713104+307388162+310068508+313717443
2318+317722931+321298333+324123836+326511177+328942978+331640712+334562686
2308+337517715+340174318+342197908+343543690+344521196+345477987+346474414
2298+347353616+348056028+348697491+349354061+349956374+350425721+350792949
2288+351165861+351637863+352201101+352711318+352992357+353011166+352874796
2278+352625951+352192389+351618269+351140323+350888935+350725232+350530980
2268+350418317+350478630+350568260+350530120+350429348+350397789+350410913
2258+350390460+350405342+350578131+350847018+351021041+351070810+351167544
2248+351396870+351625299+351731717+351804333+351987854+352265939+352518673
2238+352696398+352833328+352965472+353103449+353234023+353339805+353457217
2228+353678691+354053211+354516313+354933049+355192551+355294818+355349261
2218+355439339+355518610+355507916+355464018+355565126+355916613+356430493
2208+356954395+357449468+357910139+358221317+358324146+358426451+358792819
2198+359405490+360031398+360519702+360902972+361324793+361918731+362656890
2188+363351824+363888065+364345296+364822608+365295020+365720282+366143785
2178+366622742+367158310+367744582+368365367+368948910+369490947+370184758
2168+371225458+372553067+373995807+375542759+377269044+379149010+381149043
2158+383381132+385992527+388947856+392026055+395057962+398076670+401109326
2148+403912169+406198813+408144179+410322460+413024531+415917751+418538906
2138+420882610+423288872+425938070+428722741+431536615+434461319+437655621
2128+441162484+444840678+448408490+451510994+453809492+455119714+455465255
2118+454970332+453797302+452174780+450272004+448045487+445416929+442523335
2108+439566586+436544662+433356679+430060671+426833912+423741542+420704324
2098+417661162+414594479+411414985+408043108+404603401+401320218+398263220
2088+395410234+392846589+390666550+388797913+387099111+385525312+384105082
2078+382846536+381720994+380693420+379749641+378906372+378191883+377599030
2068+377066640+376562257+376170387+375961476+375781919+375404595+374906194
2058+374604103+374573740+374523485+374229209+373828215+373581539+373554130
2048+373637515+373738549+373846238+373998948+374253028+374663818+375288193
2038+376192448+377398608+378813303+380266326+381649874+382982195+384287519
2028+385437141+386210187+386517065+386411544+385890297+384900825+383543003
2018+382028133+380457998+378848527+377314700+376026651+375018857+374167437
2008+373310670+372331331+371199507+370013801+368952499+368122767+367480369
1998+366911260+366331681+365714486+365121895+364718171+364611903+364656586
1988+364537230+364082728+363420251+362820593+362429396+362157929+361825250
1978+361386939+360990433+360796218+360778120+360733885+360499249+360122971
1968+359800389+359659869+359639378+359557340+359293762+358920701+358632556
1958+358516790+358458645+358308366+358042433+357717794+357372477+357024281
1948+356704429+356451657+356284440+356184229+356112996+356067715+356102601
1938+356253030+356444628+356542184+356525432+356517393+356575276+356598010
1928+356529695+356474728+356502885+356536725+356522852+356520646+356557963
1918+356591280+356604891+356579352+356449825+356230408+356057619+356015814
1908+356041203+356048009+356023891+356009906+356073585+356242785+356432400
1898+356523151+356503483+356446273+356381734+356275017+356110977+355951724
1888+355878361+355878622+355872640+355846764+355854430+355903339+355967466
1878+356070482+356224836+356363823+356456032+356571537+356715011+356721517
1868+356495593+356252694+356259536+356477720+356652192+356641759+356569518
1858+356651893+356948039+357331832+357677934+357965816+358177606+358256055
1848+358237620+358260691+358383450+358543563+358709397+358902715+359116224
1838+359346261+359626553+359975085+360365946+360771165+361191902+361622734
1828+361973436+362118330+362099372+362146150+362381758+362700340+363021651
1818+363408361+363892739+364401123+364885651+365389847+365972903+366631866
1808+367291127+367873323+368401376+369012327+369822578+370761907+371631985
1798+372387719+373213450+374259983+375439482+376511366+377396327+378322793
1788+379538973+381071754+382763712+384434582+386021768+387552604+389026678
1778+390425782+391825894+393357478+395011185+396589546+397984461+399346359
1768+400815498+402388438+404068244+405890776+407795010+409618926+411275325
1758+412794869+414245573+415772333+417542516+419537427+421543667+423417277
1748+425167941+426737403+428089392+429445457+431069923+432951647+434939677
1738+437012700+439223288+441581463+444046505+446486570+448744085+450753803
1728+452583739+454459891+456621271+459116414+461839799+464711818+467699602
1718+470723620+473659093+476401174+478934719+481394900+483984383+486836210
1708+490018285+493495795+496973455+500160689+503227970+506581002+510282491
1698+514129698+518250989+522757495+527241490+531333653+535119125+538823643
1688+542673767+546986917+552035049+557546282+562809905+567719909+572601832
1678+577598699+582702694+587756360+592446947+596831330+601562712+607127005
1668+613020761+618467792+623576573+628836195+634284834+639657268+644960451
1658+650335128+655795733+661460873+667499485+673341715+678255571+682696790
1648+687142346+691391593+695151228+698640516+702091216+705341045+708126239
1638+710389962+712340114+714323545+716380339+718078468+719039596+719179966
1628+718675321+717794586+716557578+714776888+712711643+711141994+710268437
1618+709201265+706815644+703278343+699795187+696845916+694205654+691709352
1608+689408686+687335514+685393888+683539908+681866982+680436432+679216550
1598+678166353+677205897+676219118+675147084+673959807+672703206+671609784
1588+670813928+670071170+669145041+668241421+667781722+667938395+668397870
1578+668473253+667746349+666975995+667382298+669026358+671304065+673860643
1568+676815523+680499924+684901956+689492519+693752087+697926999+703271014
1558+710731353+719221621+727999211+737435353+747337101+757050393+766267416
1548+774711692+781799081+787167850+791053496+794049956+796803591+799880519
1538+803186212+805891013+807398965+808010775+809077649+811688670+815404556
1528+819062633+821987000+824461989+827078245+829958340+833007747+836326528
1518+840000683+843845497+847416525+850305071+852573954+854686089+856870988
1508+858810521+860259019+861610148+863045036+864293710+865466329+867168720
1498+869732179+872474820+874397451+875553094+876561860+877440801+877894593
1488+878500795+880357242+883488388+886818236+889150611+889817987+889079043
1478+888026527+887784226+888772726+890725046+893150004+895580645+897588007
1468+898843412+899323378+899500318+899950146+900592544+900864011+900318983
1458+898873251+897429016+897553756+899292193+901390867+902801375+903079946
1448+902462452+901814445+901932306+902700266+903355602+903486250+903345356
1438+903390675+903989175+905147510+906238389+906648955+906632877+907134530
1428+908590133+910294244+911399557+911903304+912178212+911892835+910331861
1418+908070232+906747147+906792915+907485942+908080851+907832268+906345480
1408+904433543+903378859+903371830+903885598+904981264+906516662+906896267
1398+904678761+900928774+897886023+896306577+895536971+894851199+893571489
1388+890899967+887040570+883996473+883739589+886486119+891077206+896001457
1378+900311878+904135453+907990362+911444054+913314037+913469364+913192662
1368+913715629+915231732+917250760+919281829+920943462+921939665+922315830
1358+922484918+922807911+923402971+924314293+925448622+926476907+927284802
1348+928245333+929712153+931472502+932820042+933217147+933029587+933474779
1338+935374975+938154859+940532478+941637492+941340822+940497479+940800430
1328+943196372+946543720+948785381+949200659+948780894+948846854+949842383
1318+951266876+952628101+954007573+955248620+955325049+953537105+950888018
1308+949246801+949389340+950501607+951430130+951698755+951160607+949614740
1298+947398356+945575262+944859053+944793691+944411393+943342201+941796259
1288+939779175+937195600+934630197+932910157+931799235+930190324+927682580
1278+924901873+922355092+920041638+918031659+916531036+915353331+913839023
1268+911515847+908757799+906395062+904547440+902461928+899752790+896979636
1258+894619891+892353625+889623921+886341561+883138921+881129016+881009062
1248+882268132+883669740+884530508+885061701+885547351+885878272+886044517
1238+886477220+887513357+888816849+889707979+890017511+890356060+891387561
1228+892948236+894231610+894828165+895059249+895318526+895737618+896492790
1218+897926930+900260875+903313573+906465360+909055666+910913982+912273861
1208+913304763+914185200+915467004+917794293+921116887+924493102+926972129
1198+928602278+930144556+931887929+933630929+935585567+938039616+940335122
1188+941460178+941629714+942219912+944176720+947296798+950900283+954368557
1178+957074928+958749500+960116184+962250305+964979860+966791810+966852385
1168+966427535+967704553+971372801+975688307+978367607+979042012+978788792
1158+978060617+977023358+977062021+979607382+983957364+988016584+990631195
1148+991675110+990887257+988659730+987215419+989010319+993868909+998760928
1138+1000941491+1000989502+1002007841+1005881222+1010888484+1013283154
1130+1011450937+1007667746+1005223568+1005099351+1005981209+1006826422
1121+1008542573+1012417674+1017486035+1021124668+1022493371+1023442460
1113+1025647925+1028514260+1029926039+1028676318+1026228775+1025172820
1104+1026020127+1026758323+1025863005+1024395960+1024318484+1025953719
1095+1028013878+1029786791+1032450685+1037298581+1043182615+1047249986
1087+1047929851+1046470359+1045692303+1047404865+1050527486+1051890655
1078+1050306797+1048371677+1048663336+1050617078+1052265250+1052714854
1070+1052246479+1051258578+1049868037+1048931513+1049988739+1053564030
1061+1058628951+1063742107+1067844777+1070029901+1069793957+1067998384
1053+1066341985+1065642228+1065691436+1066361953+1067552445+1068524866
1044+1068713622+1068442528+1068101138+1067940725+1068871417+1071403166
1035+1073741823+1073143324+1068850178+1062619519+1057687789+1057181499
1027+1061556534+1067590361+1071311107+1071630735+1070263453+1069389224
1018+1069995725+1071238790+1071392921+1069798144+1066921863+1063140915
1010+1059267235+1057344679+1058942372+1062818894+1065397833+1064087162
1001+1059826472+1055341953+1051715286+1048395982+1045699108+1044679498
993+1044701635+1043569998+1040290554+1036223855+1033450626+1032934240
984+1034191291+1035704627+1035391131+1031888456+1025997467+1019897307
975+1015059282+1012009053+1011099151+1011714776+1011695930+1009475358
967+1005906424+1002453256+999015943+994909907+990710616+987728066+985995612
957+983869343+980071344+975310048+971092285+967788013+964687303+961392828
947+958255848+955766950+954208145+953579582+953404138+952890968+951908526
937+951505662+952691817+954876044+956351091+956166149+954773888+953188684
927+951989891+951065108+950060978+949085266+948910645+950214660+952618977
917+954644661+954924504+953489317+951319748+948896885+946151401+943450115
907+941701208+941621638+943022274+944831981+946072354+946457568+945889132
897+944344611+942495119+941209875+940451262+939478093+937871651+935912973
887+934375108+934036634+934968746+936353453+937133005+936851293+936070694
877+935725040+935756151+935113902+933409043+931215319+928856919+926586616
867+925342727+925859562+927654536+929619271+930768258+930440179+929192327
857+928833811+930028267+931027984+930386110+929505225+930284403+931617210
847+931038454+929118440+928655749+929887373+929951613+927296095+924027644
837+923008633+924422506+926061106+926422165+926481917+927863858+930379379
827+932256317+932129259+930517880+929779609+932091418+936881132+940870653
817+941687971+940705828+940962339+943329787+946122983+947809670+948518700
807+949152647+950067709+950565398+949843879+948075603+945695516+942524659
797+938965970+936823398+937274722+939022956+939661390+938668104+937858862
787+938705197+940490075+941681764+942041402+942323937+942830153+943468587
777+944021468+943759797+942381447+940779416+939348866+937139287+934291499
767+932910830+933947640+935897493+937731280+940299525+943573509+945345899
757+944561037+943324851+943602227+944297796+943521609+942082907+942335679
747+944636943+947169815+948688835+949602550+950629339+951849596+953094606
737+954277320+955172639+955468112+955195373+954551928+953381703+951726127
727+950677276+951197625+951916976+949942819+944891808+940355464+939538070
717+941688943+944264592+945977378+946233963+944166400+940017663+935655117
707+932960262+932322352+932865286+933448455+932606009+929076636+923539078
697+918854735+917586243+919346368+920941817+918612658+911350199+902470454
687+896147212+892895962+890442212+888054123+887273598+888907562+891925410
677+894778508+896196270+894924263+889008596+876470474+859398849+848696086
667+855342247+871119728+880526628+879950116+875179771+872097309+871239457
657+870484659+869728888+870219773+871298014+870976665+869114909+867163934
647+865431853+863233642+860454206+856971200+852430443+847757168+844821882
637+844243126+845121468+846613565+848000666+848025868+845961221+842833889
627+839603952+835131773+828596891+822273649+818708753+818060971+820053376
617+824722388+829329553+828602575+822612272+818021784+818500628+820723893
607+820545981+818177859+815770326+814590827+816494762+823377690
##END=
