##TITLE=<SNM>
##JCAMP-DX=4.24
##DATA TYPE=INFRARED SPECTRUM
##DATE=2/5/2025
##SAMPLING PROCEDURE=Instrument type and / or accessory
##ORIGIN=Admin
##XUNITS=1/CM
##YUNITS=ABSORBANCE
##RESOLUTION=4
##FIRSTX=4497.3318
##LASTX=599.83466
##DELTAX=-1.4281778
##MAXY=1.8008629
##MINY=0.29873532
##XFACTOR=1
##YFACTOR=1.6771843e-09
##NPOINTS=2730
##FIRSTY=0.31296316
##XYDATA=(X++(Y..Y))
4497+186600340+187078245+187675132+188368435+188898314+189161548+189176776
4487+188671863+187554976+186640215+186868656+187904924+188413071+187745036
4477+186690075+186453584+187273778+188267506+188603096+188456908+188507089
4467+188806429+188713016+187960328+187189516+187045229+187300716+187408611
4457+187435584+187832941+188687891+189689686+190471249+190750458+190531007
4447+190178589+189942365+189533476+188475690+186878518+185726111+186080234
4437+187858315+189830827+190952867+191085408+190530794+189742567+189303773
4427+189406497+189585416+189365379+188754987+187951799+187060564+186173647
4417+185467124+185170199+185357310+185824019+186334032+186791822+187000611
4407+186614147+185614075+184556929+184098606+184377726+184906575+185128175
4397+185038191+185003062+185173469+185427356+185639023+185756514+185832602
4387+185949737+185921910+185408414+184544313+183963560+183946057+183971627
4377+183342400+182037177+180765058+180132525+180001211+179927362+179928143
4367+180324576+181045830+181584043+181523734+180875902+180044248+179489172
4357+179299769+179263182+179408250+179999363+180839760+181223416+180859377
4347+180326761+180432026+181440361+182834572+183606593+183178052+182184999
4337+181763406+182065554+182198006+181606272+180703025+180024844+179599128
4327+179347799+179394515+179616915+179499051+178863605+178243369+178117172
4317+178352117+178715001+179219701+179750877+180073514+180253356+180389984
4307+180217551+179661000+179314820+179773853+180878443+181964767+182577664
4297+182682503+182370617+181678273+180811507+180242499+180255684+180698530
4287+181372944+182209308+182886441+182897795+182189637+181245432+180508239
4277+180121029+180088547+180320009+180654640+181066478+181713759+182652029
4267+183555542+183927631+183706741+183438159+183648706+184251582+184695103
4257+184560731+184026570+183724759+183990054+184468527+184774567+185045779
4247+185359389+185270951+184575196+183899911+183942877+184609508+185281772
4237+185492711+185113071+184302562+183498521+183157884+183379946+183973244
4227+184891382+186175317+187364081+187593606+186659245+185438053+184855257
4217+184935112+185280458+185894545+186899379+187890620+188256080+187882019
4207+187181608+186703757+186777411+187233459+187532924+187404595+187123307
4197+187008483+187001144+186891188+186660845+186441963+186275874+186075383
4187+185816769+185641493+185712659+186006012+186306384+186473788+186696632
4177+187292364+188189125+188890993+189068117+188867467+188588170+188391411
4167+188376378+188620279+189030091+189305355+189194919+188788145+188397168
4157+188132672+187850123+187551476+187502983+187903733+188664435+189456553
4147+189875748+189741732+189298140+188919442+188631420+188202790+187712732
4137+187622144+188102785+188658696+188750154+188523863+188542343+189025222
4127+189649723+189866934+189311912+188206486+187339275+187323674+187969249
4117+188648692+189120590+189621150+190182516+190289434+189508759+188227312
4107+187344890+187331883+187964931+188849218+189756214+190552792+191205457
4097+191684765+191702072+191012376+190025667+189439673+189244193+188841666
4087+188181378+187963207+188608018+189667670+190347540+190258942+189644357
4077+189083168+188995743+189355624+189812720+190028190+189941174+189767942
4067+189762540+190035991+190508618+190864767+190692174+189944160+189145947
4057+188870950+189144188+189551885+189778355+189858139+189966318+190139924
4047+190312001+190510661+190797297+191040345+191038728+190889235+190947661
4037+191367957+191901390+192244035+192443619+192823473+193485324+194039476
4027+194025758+193583197+193419489+193930728+194656372+194879980+194524346
4017+194145879+194165816+194410783+194389780+193850482+193038250+192461708
4007+192481965+193142395+194247981+195487351+196516422+197032921+196913672
3997+196362434+195784133+195430756+195327392+195492131+195959498+196671086
3987+197511519+198287164+198689034+198571597+198169639+197846238+197833284
3977+198221312+198830815+199206812+199111249+198775766+198425516+198002910
3967+197642762+197947079+199358544+201431879+203080689+203605308+203244592
3957+202700355+202478204+202745774+203462088+204402917+205137427+205256890
3947+204833360+204465749+204596442+204945039+204858361+204231710+203741421
3937+204047461+205128774+206491231+207648561+208147344+207706329+206803864
3927+206461450+207059635+207905931+208338133+208721505+209767190+211314697
3917+212155556+211153370+208655012+206326510+205486593+206016543+207093876
3907+208677028+211417314+215126665+218354415+219951410+219916955+218461155
3897+215935593+213513820+212597833+213519986+214989255+215463002+215383111
3887+216200906+217749283+218739280+219474128+221077110+222490779+221820007
3878+220064600+219731160+221348802+223619465+225560490+226706447+226458370
3868+225312822+224818961+225310352+225430881+224267705+222660849+221936396
3858+222973677+226495668+232326491+236794340+235511577+230538779+225814963
3848+222908854+222037361+222977817+225177420+227938710+230854094+233502585
3838+234820300+234241377+232933684+232103789+231451266+230377381+229553651
3828+229983187+231607920+234062991+237493080+241024543+242253181+241081316
3818+240059530+239705673+238240242+235548164+233799491+234690424+238214921
3808+242479934+244977777+245827734+247292418+249726611+251053158+250848722
3798+250873812+251466933+251475000+250831522+250926729+252789445+256266036
3788+260681822+265496385+270245628+274807921+279954822+286492737+293780585
3778+300492959+306806376+314056625+323133269+334215388+346556352+358364060
3768+368634941+377939565+386309632+393229088+399396265+405547840+410453684
3758+412766922+413951563+416812271+422900553+431563671+440070135+446455803
3748+452057562+459370394+468903175+477571126+483305657+488732815+496929277
3738+508700274+521942495+532412853+537681190+539701306+541597250+544742018
3728+549429442+555535208+561810707+566199358+567656544+567026624+565778120
3718+564579548+563663898+563560197+564389630+564736877+562954727+559299981
3708+555203136+552415779+552374910+554762175+557341311+558459460+558769036
3698+559646269+562092243+566672092+572786352+578507129+581829412+582117345
3688+580518609+578749111+577890465+578457055+580429230+583179662+586489294
3678+590926207+595284260+595968092+592820765+589298898+586532437+583298859
3668+579627516+576747795+575400423+575714939+577036936+577926963+577207770
3658+575023039+572719433+571697984+572490458+575101579+579139182+582525612
3648+582235902+578514699+574231241+571046848+568888807+567496514+567252542
3638+568522369+570670246+572198189+572468353+573146463+576391876+580888921
3628+582329297+580313161+578482039+579231120+582861415+588125594+592440752
3618+594636712+596435637+598617844+599454207+598156767+596946254+598096209
3608+601505277+605634995+609020821+610982903+612048987+613701173+617181176
3598+622148821+626230064+626625963+623544561+620472398+620242393+622919509
3588+626528801+628923884+629471604+629190423+629912281+632602334+635961435
3578+637715900+637605162+637173654+636829854+635900593+634917668+635333398
3568+637473954+640207790+642422195+643756027+644034009+642917034+640481792
3558+637865162+636434026+636369204+636777897+637238973+638378765+640499846
3548+642365831+642280681+640241054+638014708+637059148+637397049+638183161
3538+638580837+638410110+638127863+637862959+636939313+634597751+630850854
3528+626733929+623722040+622460778+622356295+622527590+622387569+621665213
3518+620953447+621634223+623927666+626094663+626764208+626687303+627053421
3508+627463109+627032311+626245630+626102268+626256789+625793580+625245790
3498+625565565+625843121+624642843+622834217+622361341+623327776+624580651
3488+625621361+626367883+626312798+624952597+622495037+619945788+618645505
3478+619057823+620171316+620489741+619442634+617677080+616295200+615928940
3468+616257174+616518453+616457611+616110258+614889581+612231229+608960619
3458+606859653+606992638+608735162+610237020+610117966+609020608+608792593
3448+610033171+611435877+611422017+609158853+604697347+599669357+596543318
3438+595978007+596235128+595741640+594898951+594989254+596389650+598116040
3428+598902578+598813874+598905848+599028811+597720780+594583831+591145337
3418+589102014+588837359+589486968+589883933+589817654+590005368+590427814
3408+590146207+589352952+589536686+590856196+591435616+589874444+586717202
3398+583337027+581037294+580576075+581114981+580659519+578535773+576160912
3388+574961131+574992974+575579359+576145843+576423790+576343544+575915874
3378+575319466+574792146+574266957+573673748+573505616+574202171+575167077
3368+575252938+573964560+571869387+570265818+570087485+570669855+570270971
3358+568385795+566546463+566167693+566917769+567745355+568243818+568356227
3348+567780112+566564872+565692366+566285930+568369234+570689295+571788288
3338+571211107+569632557+567996968+566787201+565956595+565199731+564361448
3328+563754344+563849338+564615016+565445515+565750009+565416587+564725611
3318+563972159+563277523+562799033+562831266+563514992+564677706+565932713
3308+566761329+566620241+565329020+563521282+562360843+562342505+562562844
3298+561890775+560748887+560636052+562068716+564239516+566405624+568330177
3288+569501384+569195931+567505399+565382186+563754877+563111025+563419180
3278+564146120+564659794+564919119+565436204+566239979+566543940+565954747
3268+565266685+565388440+566118082+566558191+566318732+565832210+565621147
3258+565652349+565583227+565366442+565179403+564921002+564299505+563303680
3248+562276226+561729679+561925745+562346627+562146510+561334775+560678307
3238+560355724+559672247+558172344+556286457+554903120+554738364+555743144
3228+556751372+556261829+553947028+550995731+548893628+548345944+549178398
3218+550573178+551558022+551665170+550880800+549227903+547024089+545097439
3208+544051327+543657596+543259422+542409909+541225659+540376893+540403120
3198+540986947+541381069+541365326+541059730+540242557+538646594+536576048
3188+534802534+533974202+534112092+534633691+534923507+534692471+533895875
3178+532724064+531535656+530408339+529016828+527316665+525964424+525566748
3168+525810472+525859835+525344810+524436481+523349323+522386939+522015242
3158+522290737+522649143+522561220+521874403+520484136+518397172+516055504
3148+514046618+512662570+511815332+511073821+509996790+508684815+507656828
3138+507094999+506669177+506149248+505805804+505963311+506217340+505605331
3128+503904884+502102370+501113191+500822024+500714591+500515433+499972831
3118+498979956+497967606+497417185+497212484+497031344+496933186+497009381
3108+496928708+496476516+496105210+496255644+496542049+496254507+495188245
3098+493431114+491142540+489072990+488236449+488572394+488894835+488477542
3088+487788344+487424216+487233658+486842806+486366838+486104493+485906899
3078+485385869+484533904+483673232+483039296+482824323+483229000+484001359
3068+484284672+483353599+481313865+478901333+476856980+475567429+475069712
3058+475217801+475686625+475938664+475630083+475002686+474450418+473950426
3048+473327436+472654727+472021929+471366918+470706577+470123781+469634238
3038+469336247+469307639+469171313+468323044+466781916+465313216+464602019
3028+464606639+464688840+464245141+463219571+461970818+460770220+459709644
3018+458967067+458723202+458819724+458811977+458366750+457482445+456410497
3008+455461157+454821854+454487828+454270225+453802894+452736490+451146852
2998+449582837+448537223+448090255+448113141+448392403+448470481+447851756
2988+446552467+445196211+444467636+444538713+444992504+445260749+445058641
2978+444345597+443209643+442061891+441501698+441605897+441697159+441130604
2968+439982568+438697602+437475112+436391010+435751281+435749469+435940879
2958+435652448+434823477+433929648+433294610+432921917+432703427+432413717
2948+431732265+430539948+429142503+428054846+427471695+427096159+426744186
2938+426776241+427374461+427835076+427359997+426168533+425087771+424472315
2928+424108507+423705962+423003543+421810693+420350806+419262155+418930438
2918+419023123+418938754+418527680+418078402+417758022+417377654+416682556
2908+415694798+414720936+414069231+413803225+413735951+413577982+413105995
2898+412293158+411297937+410325674+409564546+409108907+408794533+408317713
2888+407663271+407183963+407123760+407287202+407276150+406848834+406035784
2878+405124754+404497677+404282349+404227904+404024055+403579362+402906938
2868+401993384+400918024+399890002+399068280+398468034+398002800+397548760
2858+397092409+396806893+396802735+396881488+396769578+396448594+396030270
2848+395555831+395117747+394792214+394299899+393260255+391932927+391111064
2838+391049724+391083912+390549946+389540794+388529261+387741550+387111203
2828+386499123+385800294+385010486+384253196+383679391+383363809+383262240
2818+383169271+382796258+382057555+381228832+380660820+380348507+379935657
2808+379177051+378236986+377437441+376865875+376374413+375859779+375380009
2798+375032620+374820313+374589953+374070735+373118338+371975135+371081235
2788+370556331+370122938+369619429+369279467+369347666+369625328+369561572
2778+368775638+367436582+366093297+365162898+364688388+364490154+364326180
2768+364013867+363598706+363263862+362952651+362359940+361424886+360493315
2758+359849570+359375557+358795675+358036430+357228071+356552306+356196210
2748+356222082+356333816+356016066+355096400+353969154+353133892+352707714
2738+352468291+352173179+351720667+351103256+350381256+349741456+349380598
2728+349220319+348962452+348521205+348099576+347757802+347274336+346532328
2718+345706484+344979543+344341129+343739391+343221915+342864504+342711013
2708+342770895+342893574+342750958+342219018+341608750+341204038+340835574
2698+340206045+339320780+338377624+337549967+336962835+336611892+336343790
2688+336069752+335845291+335671437+335408380+334940729+334324420+333706441
2678+333115897+332451149+331724102+331132208+330800598+330654677+330577949
2668+330502999+330374385+330162469+329874322+329515952+329101502+328658336
2658+328183826+327661552+327121473+326677028+326525528+326772343+327155412
2648+327143365+326463797+325375466+324336462+323567444+323003554+322540203
2638+322189828+321983207+321848410+321694599+321537412+321429340+321320379
2628+321088810+320703110+320290472+319989994+319766101+319477813+319118803
2618+318833322+318698453+318638962+318541657+318311190+317849722+317150395
2608+316408209+315869125+315562677+315344221+315163117+315084755+315098366
2598+315105402+315028817+314802543+314397120+313936718+313609515+313431858
2588+313274138+313081804+312900095+312729901+312512015+312225787+311908180
2578+311597324+311311452+311052803+310791311+310497869+310225182+310040240
2568+309835644+309373110+308625700+307954200+307793352+308157693+308550714
2558+308471925+307983270+307576887+307498489+307481395+307207926+306758542
2548+306468121+306512508+306747987+306899558+306858334+306744753+306650078
2538+306470431+306150407+305901744+305923493+306055412+305972892+305604251
2528+305142072+304788606+304652529+304727018+304825069+304695175+304325681
2518+304010846+304013156+304260823+304479243+304527753+304464210+304360545
2508+304235413+304119096+304012409+303835427+303557623+303298014+303167339
2498+303109980+303009868+302851863+302691833+302556147+302444130+302359406
2488+302285735+302183242+302045388+301907818+301771137+301587119+301365323
2478+301216239+301208882+301239872+301127428+300810993+300420389+300174498
2468+300208189+300450561+300676871+300709744+300555613+300355354+300248418
2458+300270559+300330939+300303005+300154810+299945061+299695190+299352812
2448+298926101+298585784+298536741+298769803+299033285+299116303+299058269
2438+299001372+298975961+298938859+298880079+298788531+298649434+298544808
2428+298595806+298752851+298824283+298768310+298776519+299007093+299367205
2418+299609293+299577700+299361625+299221852+299319299+299524925+299579015
2408+299414471+299211653+299154329+299262153+299454950+299660575+299837735
2398+299970791+300059957+300093826+300055906+299967308+299878675+299799318
2388+299636800+299172027+298085224+296067827+292942001+288668991+283306602
2378+277036790+270186012+263140199+256267884+249933321+244398392+239578161
2368+235095759+230806046+227077931+224404049+223060675+223283750+225395182
2358+229569519+235705688+243779276+254118408+266408854+278301819+286286809
2348+288136287+284437847+278490973+273935646+271731884+270587651+269453741
2338+268181942+266854027+265440962+263879329+262284147+261106525+260896563
2328+261729995+262994011+263961174+264559518+265369797+266904119+269173484
2318+271851525+274497705+276732705+278492323+280040666+281641409+283344095
2308+285055844+286629187+287913531+288861539+289574531+290204842+290831652
2298+291435363+291998702+292591040+293251221+293855732+294277201+294590188
2288+294930559+295258455+295427760+295385789+295194859+294948879+294701442
2278+294432468+294116584+293806369+293580006+293446861+293343941+293162944
2268+292819908+292402011+292163618+292259430+292560282+292810437+292888018
2258+292864367+292875881+292984114+293130835+293187785+293053432+292757751
2248+292484105+292413330+292532544+292675711+292750715+292847522+293105887
2238+293504913+293814134+293816426+293562290+293293494+293171384+293230805
2228+293481333+293834906+294046165+293945164+293654477+293449615+293490147
2218+293728966+293976829+294053965+293950691+293809123+293737246+293713666
2208+293674894+293619685+293598699+293626579+293646872+293617517+293586687
2198+293622830+293714786+293799758+293848038+293873714+293891572+293894717
2188+293866589+293802833+293720863+293639498+293547808+293436946+293395046
2178+293570286+293935089+294213267+294204027+294037884+293945893+293943654
2168+293914264+293849779+293851218+293968158+294140129+294272456+294319261
2158+294296178+294260178+294278018+294354497+294423335+294484621+294645238
2148+294903691+295069390+295055690+295053397+295242214+295520231+295677436
2138+295671572+295606395+295569594+295600122+295731046+295979567+296323544
2128+296699240+297001015+297133893+297131299+297155501+297307819+297505431
2118+297608884+297597014+297542924+297492904+297471403+297559858+297844877
2108+298287794+298745885+299109835+299327970+299355122+299215136+299074901
2098+299121705+299371754+299685701+299962084+300218886+300464350+300604869
2088+300567661+300444520+300437128+300685222+301129631+301511670+301602578
2078+301474710+301418346+301584276+301857282+302044393+302058573+302000822
2068+302110530+302484146+302877380+302999455+302905811+302848843+302894083
2058+302941847+302968927+303007877+303018432+302985666+303047929+303350931
2048+303828888+304284314+304653418+305006493+305275733+305233548+304860394
2038+304500602+304484681+304766146+305056709+305190333+305242006+305364223
2028+305606809+305906008+306188326+306411686+306550250+306654023+306874006
2018+307267027+307631083+307711152+307504708+307212333+306998675+306927279
2008+307006032+307186070+307396316+307625788+307893820+308132105+308187439
1998+308003420+307787986+307902242+308481023+309223031+309692460+309759485
1988+309571593+309274420+308983253+308832996+308868997+309020249+309242222
1978+309551549+309913438+310215125+310376221+310477719+310755985+311347737
1968+312024355+312364210+312246258+311966818+311840585+311908926+312043084
1958+312150410+312232540+312341927+312529962+312803964+313127328+313486872
1948+313965469+314725282+315821361+316919964+317368637+316883359+315989459
1938+315412775+315351827+315583324+315941837+316420932+316972134+317460647
1928+317875914+318472251+319453576+320552889+321371163+322075714+323013896
1918+323790803+323704835+322989765+322591769+323009986+324006877+325055264
1908+325785331+326192283+326509073+326907460+327446579+328228605+329383038
1898+330875691+332406229+333612335+334540814+335681458+337214128+338576924
1888+339208088+339313850+339446089+339888402+340683292+341749305+342896240
1878+343984891+345015864+346042856+347254541+349051227+351569557+353967377
1868+354760383+353567320+351669349+350385130+349987951+350091333+350300157
1858+350405173+350390602+350409225+350599889+350985375+351564546+352400199
1848+353689750+355587258+357503530+357998013+356586814+354719514+353840540
1838+354029534+354543065+355004533+355923594+357874126+360302722+361771742
1828+361856963+361511778+361180168+360384922+359123021+358151326+357900993
1818+358062942+358198451+358370990+359003078+360151648+361161617+361318377
1808+360741765+360267325+360640871+362002245+363811013+365151206+365448095
1798+365067940+365068792+366354043+368789213+370679827+370175393+367919835
1788+366177879+366070410+367084999+368315876+369418103+370266123+370651894
1778+370858373+371819903+374293313+377888993+380756383+381189989+379619968
1768+377412813+375517828+374860294+375950403+377877123+379063790+379380900
1758+379745810+380275511+380849814+382291789+385324824+388941970+390941971
1748+390593943+389239143+388318660+388448411+389599184+391093472+392011325
1738+392710617+394907537+399122654+402559158+402136676+399415136+397049195
1728+395674032+395223830+395636467+396642883+398393581+401886804+407673399
1718+413904794+416651886+414726978+411128845+408566518+407942106+409359240
1708+412514172+416327881+419454169+422184629+426231152+431700174+435796806
1698+436842882+436078235+434051332+431375174+430064905+431195847+434113169
1688+438202515+444070599+451450848+456319305+455502595+452318521+450788161
1678+452194563+455882928+459874650+462684823+465150485+468313022+470828901
1668+470925850+470088918+470969882+473785776+476390714+477209237+477474284
1658+479564091+485107709+494539951+504920042+508760334+506264891+505200476
1648+507700114+510483952+510005213+507576546+506356225+507580313+511383361
1638+517531418+524301755+527730085+526248519+523597915+523042092+524807468
1628+527586651+530399063+533281308+536132492+538254177+539864925+542342955
1618+546198706+549693813+550721303+550218148+550432375+552103573+554582954
1608+556963430+558958705+560833184+562756493+564574644+566183117+567808365
1598+569774178+572126472+574517042+576468000+577907381+579323769+581160684
1588+583254187+585112709+586549389+587774580+589117758+591020668+594089170
1578+598508527+602885451+604879589+605013924+606105525+608983506+611781880
1568+612750233+612770135+613461359+615670149+620424065+628868799+639078376
1558+643771735+641449577+638537906+637758689+638565200+640348807+643037580
1548+646820727+652125490+659344643+668410234+678667717+687753992+691050403
1538+688686097+686843567+688803942+693443496+697911114+701237093+704979370
1528+710260963+716590302+723115316+729647011+735577892+739587632+742030977
1518+744563523+747197567+749153322+751124999+754442804+759407749+765551008
1508+771797756+775291476+774039739+771161190+769949397+771154722+774398535
1498+778287658+780606617+780698662+780547410+781981176+784698025+786827564
1488+787149756+786641626+786879166+788140996+789595872+790796932+792571015
1478+795920449+800566328+805081568+807745607+807366198+804938135+803348923
1468+804249754+806974137+809564824+810821110+811862247+814555284+819286954
1458+823885567+824341668+820302574+815978602+814019861+814361671+815387597
1448+815128379+813133175+810772493+809305463+808992440+809941958+812349266
1438+815427897+816859602+815357033+813133886+812749999+814254060+816020182
1428+816950581+817233467+817079799+816549777+816496256+817814380+819713061
1418+820224887+818951897+817098705+815337985+813769244+812639261+812352607
1408+813192453+814778537+815765513+815149204+813832715+813476406+814515410
1398+816310958+818396998+820444230+821631217+821593759+821264530+821489916
1388+821753469+821119746+820146346+820639834+823676316+828746028+834401059
1378+839567294+844153326+848107200+850711534+851890488+852971997+854866057
1368+857048336+858894491+860561958+862099141+862916101+862607484+861556041
1358+860342970+859106727+857839779+856927576+856698850+856625072+855877626
1348+854535052+853407912+852998224+853291133+854120673+855221158+856123410
1338+856367631+855984241+855563465+855657500+856286959+857056225+857546159
1328+857745673+858258493+859580740+861164478+862182301+863110070+865095180
1318+867830367+869656478+869865160+869448933+869635013+870834011+872776476
1308+874885118+876676260+878138456+879581676+881136699+882650142+883918654
1298+884706117+884785510+884251650+883455730+882345933+880380653+877548091
1288+874860241+873147285+871900451+870074198+867591975+865316799+863962923
1278+863586641+863593323+862951497+861092761+858598597+856491874+855384778
1268+855639660+857384814+859920701+862046047+863260540+863847778+863994481
1258+863801436+863806198+864609582+866103337+867546272+868457480+869150125
1248+870288495+872103589+874133408+875736621+876761552+877560458+878468680
1238+879697034+881707092+884845925+888274824+890245577+890161706+889594369
1228+890721366+894368685+899683257+905137993+909433889+911733231+911927627
1218+911152745+911311744+913306379+916128280+918215244+919231930+920038867
1208+921449818+923366552+924926622+925675632+926642351+929502917+934474471
1198+939715692+943163568+944488942+944863802+945700663+947882799+951332310
1188+954898671+956793869+956009534+953938349+953688656+956931190+961885402
1178+965253174+965994579+965857116+966374130+967059313+966914387+966817153
1168+969140448+974526382+980147083+982667546+982169935+980896946+980037340
1158+979641370+980013813+981926568+985499042+989443462+991860792+992178862
1148+991902585+992685641+994256159+995203971+995543933+997037830+1000648472
1138+1004783095+1006784624+1005890546+1003721488+1002232993+1002268673
1130+1003435616+1004566949+1004976353+1005571481+1007763497+1011358503
1121+1014766931+1017214540+1019272078+1021178932+1022115586+1021443837
1113+1019642958+1017819618+1016975508+1017571844+1019479338+1022164060
1104+1024844802+1026695719+1027463351+1028139151+1029860353+1032268088
1095+1034222635+1035472809+1035924930+1034337211+1030213535+1026297545
1087+1026602608+1031968427+1038994463+1043475728+1044501441+1044550128
1078+1045905639+1048438682+1051028587+1053215201+1054815074+1055514899
1070+1055385112+1054983456+1054661832+1054088880+1052849723+1051516105
1061+1051604453+1053818645+1056594061+1058094711+1058740304+1059809658
1053+1061040499+1061477765+1061130127+1060392702+1058906766+1056464630
1044+1054845140+1056650639+1062242482+1069125156+1073741823+1072848598
1035+1065938773+1056839064+1050269555+1047862105+1048544231+1050993191
1027+1054305949+1057471152+1059865879+1061696540+1062735970+1061615085
1018+1057976225+1054506387+1054251504+1056476642+1057761999+1057164170
1010+1056980152+1057918440+1057429074+1053808339+1048894002+1045935989
1001+1046711937+1050555072+1055032712+1057676849+1057697888+1056429020
993+1055178420+1053017962+1048791864+1043735586+1040310099+1039855419
984+1041944800+1044422332+1044379188+1041188895+1037445836+1034877254
975+1032116551+1028201912+1025223358+1025393090+1027370524+1027099508
967+1022373595+1015795629+1011672592+1010881362+1010650931+1008698658
958+1005309420+1001151627+996153703+990934587+986785678+984411279+983882963
948+984599988+984736669+982556097+978771600+975656649+974244206+973910073
938+973687175+972943141+971641862+970514581+970178102+970188053+969637419
928+968488103+967897808+969049754+971724525+974164387+974692986+973303786
918+970953410+968159372+965334628+963339567+962468589+961939563+961209317
908+960664085+960415316+959884797+959206935+959091435+958988728+957607773
898+955115030+952714403+950921129+949889233+950073251+951514196+953505632
888+955048360+954870951+952110675+947967665+945088192+944548220+945102408
878+945538394+946002172+946651461+946713511+945952915+945522189+945848503
868+945254584+942638238+939970432+939759831+941645220+943208347+943133076
858+942351015+942317112+943364148+945037870+946875211+948071509+947696862
848+946307306+945530647+945071702+942729572+938308722+934615986+933847074
838+935372103+937194945+937992714+937992216+938659630+941093307+944472878
828+946292664+944622069+940715462+938379941+939561597+942072749+943007128
818+942957303+943964820+945484233+945706136+945049597+945560215+948068168
808+951701768+954818639+955442553+952543036+947438994+942703913+939870427
798+938694457+938137284+937723616+938013966+939990476+943764311+947486474
788+948502307+946602560+944314590+943396985+943225405+942802923+942536455
778+943311124+944878017+946034441+945995348+945301921+945109657+945313080
768+944458592+942229403+940505500+940836151+942215969+942625444+941963503
758+942206729+944997569+949809769+954243483+956392426+956424127+955431394
748+954527365+955027676+957447281+960217082+961029137+959683364+958170561
738+958178450+959625436+961026862+961265752+960572822+959607099+958788718
728+957623410+954293521+947937813+941667325+940260711+943950107+947526703
718+947625998+946994976+948636926+951003863+951005498+948861885+947584631
708+948890885+951382135+952193124+949860660+945470444+941595040+940142368
698+940641257+941502995+941948435+940911990+936633223+929721834+923607077
688+920101273+917289039+912899392+907199014+901504890+897196271+895626322
678+896607753+898032564+897952602+896656370+894063977+886605651+872040118
668+859055765+861791662+877027167+890344018+895332631+893769647+890608283
658+889348798+888628361+884709102+877540272+871280731+868295424+867067568
648+865691090+864059730+863214198+864282557+867583303+871572857+873406360
638+871769527+867365807+861199519+855387408+854031826+859117744+866338886
628+868708666+864508368+858299860+853872756+850320041+845171647+838710247
618+834149447+834907270+841451404+850349041+857511332+860672909+859741942
608+857078828+855789064+856002224+854377758+849045630+842178806+836727269
##END=
