##TITLE=<SNM>
##JCAMP-DX=4.24
##DATA TYPE=INFRARED SPECTRUM
##DATE=3/5/2025
##SAMPLING PROCEDURE=Instrument type and / or accessory
##ORIGIN=Admin
##XUNITS=1/CM
##YUNITS=ABSORBANCE
##RESOLUTION=4
##FIRSTX=4497.3318
##LASTX=599.83466
##DELTAX=-1.4281778
##MAXY=1.7114359
##MINY=0.18115015
##XFACTOR=1
##YFACTOR=1.5938989e-09
##NPOINTS=2730
##FIRSTY=0.20004573
##XYDATA=(X++(Y..Y))
4497+125507166+125025877+124896292+125183901+125659450+126030161+126193346
4487+126141684+125915048+125843744+126307252+127120081+127701123+127780485
4477+127490642+127051984+126715873+126637613+126603883+126276429+125761231
4467+125522143+125733484+126099062+126327493+126429274+126499250+126569619
4457+126740180+127095017+127442982+127413140+126795553+125689684+124515933
4447+123842506+123914511+124357956+124461560+123769902+122508767+121434666
4437+121133118+121504212+121989054+122110982+121797897+121462030+121700426
4427+122567749+123235754+122835725+121501809+120125487+119290024+118905599
4417+118747145+118824750+119161272+119646347+120199950+120694917+120760331
4407+120084351+118915191+117931483+117565475+117630412+117623111+117247847
4397+116592369+115910415+115390076+115147996+115315275+115913220+116617508
4387+117002392+117068367+117099022+117064777+116696263+116034924+115319342
4377+114570189+113878793+113652223+114026112+114587185+115015887+115420217
4367+115864943+116099796+115874329+115239924+114540590+114202759+114459825
4357+115201453+116070758+116701695+116918495+116759396+116347410+115815599
4347+115332730+115023815+114829386+114595291+114292770+114028954+113899762
4337+113907550+113949844+113881672+113721339+113711925+113966345+114203012
4327+114141814+113990007+114197085+114895604+115830707+116653342+117135660
4317+117262758+117178357+116956106+116522449+115916904+115481938+115593993
4307+116239945+117036646+117646343+118004853+118213941+118429395+118778566
4297+119162459+119268915+119026078+118855274+119174556+119822658+120271983
4287+120274461+120037420+119830829+119674029+119434988+119072738+118719977
4277+118575565+118717920+119028293+119310854+119434034+119384420+119331412
4267+119578175+120267842+121199597+122012585+122421224+122328166+121938766
4257+121666994+121784183+122242707+122782353+123115331+123170256+123114032
4247+122982652+122632387+122269829+122416185+123059837+123515949+123390833
4237+123080432+123111068+123461651+123734320+123749896+123773455+124168248
4227+124979104+125856739+126229423+125692134+124551281+123799342+124112006
4217+125020941+125580798+125596149+125522872+125433291+124965362+124205990
4207+123766883+123933629+124390359+124776645+124998429+125071462+125086168
4197+125222830+125476352+125541561+125295181+125143439+125487038+126074344
4187+126328297+126130250+125847951+125768804+125929876+126334289+126980857
4177+127780102+128616322+129401449+130049719+130469942+130530120+130115058
4167+129422606+129036058+129374665+130161803+130745453+130850179+130724016
4157+130671092+130766815+130965479+131160337+131098663+130527755+129600431
4147+128943915+129077604+129867940+130732121+131222713+131254686+130996311
4137+130742667+130684208+130701766+130621169+130627152+131091885+132025688
4127+132972430+133427327+133203132+132517775+131887960+131745904+132016956
4117+132273816+132364510+132593828+133160267+133690928+133604386+132842742
4107+132006541+131739061+132153431+132941214+133807415+134557634+134971892
4097+134939461+134649113+134415587+134373508+134442961+134508487+134615195
4087+134980905+135690615+136453708+136864076+136808769+136468067+136079678
4077+135839103+135849714+136056156+136313110+136483082+136426960+136075826
4067+135565443+135079965+134585597+134024187+133695705+134017466+134901458
4057+135782290+136301246+136627840+137071584+137670080+138200152+138367413
4047+138007135+137305839+136740615+136586415+136644649+136639694+136604514
4037+136706501+137035142+137673876+138623694+139583225+140093860+139953786
4027+139428893+139087912+139303703+139857605+140275556+140508118+140880484
4017+141431628+141771899+141603133+141025532+140372728+139974391+140002812
4007+140362640+140756396+140968606+141049484+141184808+141501287+142001536
3997+142491847+142576959+142052347+141348872+141199094+141805705+142680273
3987+143329627+143713773+143909575+143818237+143529086+143537060+144149477
3977+144972580+145371431+145189016+144739466+144388275+144371887+144759304
3967+145413492+146129148+146793011+147353392+147755459+147920542+147738229
3957+147150167+146287237+145475400+145146441+145673830+146961104+148224100
3947+148727546+148662627+148634852+148637965+148266880+147620864+147200529
3937+147237466+147786638+149003889+150706254+151970091+152012881+151374456
3927+151310089+152172578+152996906+152934269+152595447+153118096+154381231
3917+154875086+153446503+150787645+148676473+148167053+149014884+150715659
3907+153547742+157973602+163136088+166814010+167642825+166116752+163050508
3897+159211449+156175140+155603933+157397393+159090531+158619871+157624421
3887+158673421+161141543+162515640+162678872+163102357+162909284+160727126
3878+158425265+158588795+161129015+164446763+167540979+169334803+168665667
3868+166893887+166518174+167314923+166870963+164405777+161944181+161759017
3858+164986829+171926610+180925202+185549847+180576058+171469469+164652849
3848+161858209+162588001+165544227+169284058+172973628+176413865+179004083
3838+179543756+177992198+175872172+174081339+172306586+170488492+169353838
3828+169233050+169974416+172451774+177888407+184347133+186760620+184451522
3818+181568460+179160171+175510165+171265982+168865284+169591467+173204321
3808+177789159+181008537+183473854+187191472+190677237+190510734+187673836
3798+185234434+183070039+180196812+177739797+177082272+177972509+179633150
3788+181940602+184757548+187381460+189670887+192544918+196292171+199604459
3778+201525148+203127769+206166266+211559258+218887261+226137519+231197934
3768+234443676+237680238+241654389+246851615+254379666+264246113+274245407
3758+282424850+289992409+299858707+313817231+330741312+345744274+355367819
3748+363169006+373671980+386047348+394777701+398780104+402982423+410781254
3738+423138933+439328305+455994207+468464709+474728156+476674367+477599981
3728+479573266+482465658+485029457+487148659+489875090+493369363+496729498
3718+499978606+505066638+514388925+527719448+540025558+545691949+546808242
3708+549396010+555309099+562877910+570056201+575641854+579701323+583489861
3698+588030422+593377979+599223045+605748410+613506442+620930496+623414754
3688+619448325+613496196+609179970+607424027+608499970+612147939+617618152
3678+623923856+628507647+628878760+627994730+629974223+633082388+632494830
3668+627987700+623481318+621590788+622994541+627110514+632565507+638097947
3658+642656458+645549748+647937077+652608148+660936126+670509449+675673318
3648+673862254+669041900+665255830+663415597+662562980+661601841+660885642
3638+661875127+664877238+668718877+673163482+679870664+689343018+697449091
3628+698370217+693275754+688121158+686642540+689718095+695857314+701836331
3618+705309401+706141675+704882419+702574369+701378984+703057519+706608894
3608+709146179+709271977+708150412+708033812+710678946+715805869+720775356
3598+723083781+722374238+719597323+716432094+715558385+718725335+723701255
3588+725042632+720878718+715701311+713491386+714573014+717904280+722556504
3578+727813788+732721423+735352571+733854956+729958195+728011311+729656937
3568+732263927+732891049+731968203+731272796+731062409+730425564+728561997
3558+725983278+724342363+724463600+725526978+726528056+727747972+729520069
3548+730423246+728812322+725856881+724837106+726663203+728043920+725268126
3538+719178120+714597994+714539358+717456356+721116403+725791289+731688111
3528+736912113+740389146+742727113+743120064+740208675+734997463+729461209
3518+724468835+720671397+718655480+718335076+719901872+723497150+727459054
3508+729785877+730691970+731206158+731012075+729451337+727309621+725948201
3498+725897867+726564329+726987497+727106863+727799652+729504513+731403681
3488+732657701+733397384+733607323+732872052+731357385+729767927+728149599
3478+725944312+723595949+722497120+723182729+725228786+728577179+732903016
3468+735935492+735039271+731012823+727598165+726934171+727416872+726638148
3458+725174488+725345610+727465486+729950417+732126984+734890512+738572697
3448+741409071+740981117+736852429+731193518+726799921+724809957+724072817
3438+722821713+721116329+720646192+722114489+724111484+725066939+725196776
3428+725406116+725483300+725001571+724859842+726519754+729943386+732724265
3418+731862224+727174025+722266464+721220587+724684906+729349920+731549822
3408+730963610+729498305+728053268+726472336+725124528+724764783+725704831
3398+727631298+729743545+730806923+729375424+725190793+720613658+719159721
3388+721903728+726320062+729269744+729960514+729459937+729025851+729369366
3378+730237315+730583523+729540039+727247769+724958417+724065637+724472201
3368+724486261+723253033+722361599+723769090+727121373+730457724+732830469
3358+734463455+735001502+733718911+731246096+729468239+729254861+729932991
3348+731049919+733192906+736780480+740387725+741445195+739284034+735731088
3338+732156751+728601561+726281021+727466982+731792295+735761229+736972170
3328+736589464+736690133+737111281+736145206+733416157+730498037+728788090
3318+728436946+729380659+731622145+734240055+735649267+735274788+733980605
3308+732978405+732939813+733512712+733501419+732240517+730736994+730681349
3298+732548731+735468871+738690119+741965815+744462339+744903306+743479286
3288+741795217+740358108+738520792+736889900+737033124+738638214+739239010
3278+737331615+734293979+732429290+732031925+731375709+729612362+728373673
3268+729617971+732934503+735885008+737024523+737562645+739302283+741827377
3258+742885819+741347368+738530365+736343776+735623538+736242135+737250018
3248+737291452+736230916+735722412+736757220+738000022+738042653+737382847
3238+736450802+734496438+732331538+732485383+734836588+735723384+733305242
3228+730502300+730652779+733312571+735504471+735412403+733573442+731213487
3218+729170571+728369335+729732700+732861656+735897647+737244858+736439658
3208+733661696+729535252+725424066+723028360+723030305+724266974+724788641
3198+723681361+721789821+720757407+721215801+722643561+724450287+726028526
3188+726073401+723533873+719957891+718959880+722233332+727085772+728802450
3178+725758456+720996588+718082207+717246717+716637320+715603858+714916529
3168+714864699+715148680+715918878+717344319+718765498+719059800+717510206
3158+714183727+710112628+706957346+705652766+705610808+705932634+706687874
3148+707911753+708468049+707401529+705505428+704229194+703847835+703657417
3138+703262820+702984597+703274263+703932274+704025164+702873009+700748272
3128+698561532+697470182+698245092+700225931+701680242+701905737+701750546
3118+701467013+699798276+696098366+692034298+690155922+691366938+694211763
3108+696298133+696169268+693911851+690445887+686707683+683581120+682015370
3098+682327922+683422937+683825462+683600266+683919101+684850847+685166465
3088+684346606+683305964+682907552+682901719+682633443+682052691+681441200
3078+680581627+679076084+677294263+676022293+675249328+674251018+672799848
3068+671436483+670650729+670394046+670247082+669895115+669605898+669963773
3058+670819607+671076888+670045296+668533096+668151363+669473818+671122286
3048+671109796+669071891+666451065+664444123+662866332+661179272+659574930
3038+658545507+658082176+657845538+657624904+657192014+656209933+654803788
3028+653744972+653531144+653659261+653278799+652210485+650883917+649608057
3018+648437728+647633276+647536795+647894147+647877094+647007574+645730219
3008+644799519+644364610+643949146+642843959+640538975+637672162+636040895
2998+636684023+638479157+639227889+637675901+634361987+631103568+629526899
2988+629655838+630165464+629910876+628785196+627613894+627479495+628518566
2978+629509771+629336331+628295689+627157370+625902489+624195759+622293225
2968+620984832+620979148+622113465+622954565+621936248+619256262+616719651
2958+615544460+615315038+615024214+614308651+613499674+612881713+612196142
2948+610917141+609094933+607551994+606781834+606264131+605408260+604396151
2938+603513991+602571737+601580345+601094241+601296214+601483902+601004080
2928+600092228+599222932+598313212+597177698+595943833+594508257+592575995
2918+590586218+589488884+589418281+589602566+589479909+588959401+587914160
2908+586317671+584659592+583575085+583115494+582707734+581762376+580161175
2898+578283024+576685189+575623269+574872405+574139827+573451899+572922641
2888+572408191+571651194+570602736+569446093+568376320+567399026+566345258
2878+565158064+564069481+563433047+563479118+564036909+564288543+563237954
2868+560823776+558133469+556193278+554957843+553837362+552875288+552702969
2858+553333906+553787177+553235032+551937633+550702385+549913639+549327502
2848+548475894+547192069+545834313+544873773+544300799+543668441+542794471
2838+542133804+542112975+542283760+541686255+540019687+537901943+536049071
2828+534741649+533965954+533559690+533164718+532336595+530918745+529279663
2818+527998119+527315801+526992816+526523091+525419138+523677443+522068165
2808+521493284+521913759+522206865+521262965+519128019+516879091+515456229
2798+514840700+514350557+513430515+512079491+510779025+510033957+509846905
2788+509698295+509027644+507643375+505872361+504355189+503447787+502901102
2778+502364477+501844081+501279072+500226501+498531513+496789630+495588674
2768+494708309+493549236+492070842+490850365+490272156+489958707+489122581
2758+487482339+485694161+484658231+484460559+484301217+483504917+482222513
2748+480961873+479835708+478595299+477122851+475555943+474068798+472738640
2738+471536487+470401010+469388228+468605017+467935637+467133878+466222138
2728+465419332+464726804+463997817+463271446+462617436+461805543+460513603
2718+458768841+456953926+455482151+454583799+454218669+454018715+453467244
2708+452349567+450920835+449501788+448154391+446877708+445821211+445115034
2698+444648637+444157448+443504447+442850662+442461861+442270359+441782085
2688+440615159+439006218+437525992+436383559+435333194+434234328+433306957
2678+432713827+432187448+431319236+430113867+429039307+428467269+428179996
2668+427652944+426756462+425761068+424741592+423579752+422469105+421763228
2658+421391591+420989702+420468521+419975873+419492124+418872444+418099366
2648+417198247+416118078+414939297+413955122+413315398+412849038+412411324
2638+412038341+411602684+410799167+409668663+408670914+408068921+407620886
2628+406986845+406178392+405486650+405068942+404752539+404308767+403747759
2618+403148309+402426128+401511882+400546592+399738887+399190819+398862075
2608+398556180+398062447+397427097+396876897+396423813+395833937+395060860
2598+394397389+394037981+393750222+393219991+392541674+392067911+391898584
2588+391815716+391632216+391356948+391062084+390724627+390212271+389459425
2578+388627188+387962932+387550796+387297404+387036085+386626342+386156617
2568+385941818+386062717+386124569+385753157+385097053+384600815+384486273
2558+384583875+384538701+384178470+383708671+383427494+383287560+382945802
2548+382249910+381475636+381022963+381023449+381318313+381691632+381988141
2538+382084397+381925840+381612354+381335103+381163570+380954268+380550284
2528+380024653+379627251+379513344+379605038+379699911+379663076+379503360
2518+379275322+379022042+378879939+378999381+379204944+379043769+378368294
2508+377552586+377050477+377038136+377412727+377847188+377942434+377528429
2498+376775321+376000411+375428335+375081043+374869384+374778925+374854800
2488+375041553+375208524+375258971+375102657+374708172+374260735+374013327
2478+373946052+373807427+373452282+372921939+372297210+371699330+371319691
2468+371251519+371399755+371653184+371943860+372079643+371823820+371248976
2458+370742454+370566883+370608018+370609775+370516810+370467523+370480985
2448+370367714+370052807+369729373+369527886+369304111+368915011+368477372
2438+368238975+368303034+368509981+368586267+368405759+368003346+367413918
2428+366752691+366331394+366362170+366634671+366760582+366661708+366615450
2418+366845694+367199605+367299825+366982599+366451246+365993899+365754194
2408+365776295+365995732+366136750+365908862+365382819+364934784+364792382
2398+364865340+364989643+365093004+365158783+365214801+365283160+365251449
2388+364927006+364227747+363180673+361794759+360039077+357854731+355174746
2378+352039432+348648034+345204470+341766328+338279945+334711929+331158160
2368+327913801+325480775+324355470+324523226+325312533+326265706+327953664
2358+331240991+336081240+341841493+348370747+355693085+362908733+368405722
2348+371008000+370743128+369011192+367488074+366224704+363900350+359927265
2338+355117717+350539125+346536385+342988637+340025530+337978762+336740709
2328+335743783+334650525+333688189+333343553+333951529+335455089+337377143
2318+339065363+340117859+340680549+341276484+342252357+343498599+344788071
2308+346112732+347474601+348620885+349295575+349596571+349795927+349933392
2298+349896857+349797161+349916153+350326157+350864204+351417882+351946729
2288+352295965+352299742+352054914+351843068+351789518+351797072+351776691
2278+351730882+351628007+351406925+351111837+350853284+350656472+350458537
2268+350195348+349845625+349476158+349253094+349317638+349638641+350027779
2258+350300130+350413700+350450722+350484789+350507787+350463735+350326270
2248+350196058+350273953+350581195+350808597+350679134+350339096+350143480
2238+350210867+350427611+350733282+351169202+351716971+352265226+352727322
2228+353077083+353270268+353270380+353176068+353165560+353298090+353512478
2218+353778510+354092669+354394189+354629557+354845777+355139482+355547579
2208+356003318+356398850+356713196+357034835+357425768+357839998+358205950
2198+358515323+358829296+359250107+359841180+360549975+361271820+361971191
2188+362651751+363251052+363687382+363997054+364316113+364709364+365112076
2178+365466697+365832612+366313294+366937051+367646294+368367466+369088938
2168+369884564+370846788+372024410+373437511+375079510+376903475+378935434
2158+381376650+384400861+387845884+391301378+394521130+397564526+400509496
2148+403243369+405666485+407943235+410352477+412952736+415582238+418145774
2138+420699700+423313271+426074480+429159908+432650703+436337450+439918892
2128+443335083+446744730+450222474+453564921+456351634+458200430+459023205
2118+459013184+458372973+457117980+455174498+452622106+449777094+446976694
2108+444282274+441500759+438533426+435563102+432831772+430387079+428133962
2098+425959751+423639323+420759196+417022039+412655255+408293631+404385913
2088+400880534+397536666+394343352+391512625+389176865+387211806+385340199
2078+383386770+381453161+379840555+378783235+378243057+377943967+377609876
2068+377177360+376763429+376463517+376240266+375963203+375486597+374772306
2058+373998331+373427264+373112731+372873960+372569486+372258505+372106455
2048+372240780+372656281+373208762+373759935+374310022+374930489+375695937
2038+376771394+378382804+380563597+383064944+385596545+388018390+390261484
2028+392199730+393639569+394354646+394165873+393107020+391496508+389730543
2018+387965550+386073637+383952340+381774014+379817332+378159179+376681570
2008+375312446+374082508+372953576+371772887+370489661+369272961+368263469
1998+367375289+366580597+366158103+366275936+366511976+366221862+365278710
1988+364060926+362910154+361950548+361250280+360872698+360764587+360726145
1978+360584865+360346543+360072771+359737894+359407093+359380692+359845032
1968+360453793+360576189+360008899+359153365+358451676+358003229+357790523
1958+357880759+358191067+358343491+358005099+357263359+356549068+356246164
1948+356445669+357060189+357951848+358711388+358659221+357637052+356421624
1938+355792258+355704789+355680969+355520243+355354655+355303910+355325898
1928+355400801+355741287+356520722+357438968+358099373+358689661+359426203
1918+359642498+358613374+356983454+356083942+356344552+357125968+357577032
1908+357340057+356648315+355929050+355377541+354972586+354766499+354942931
1898+355565267+356329145+356761736+356912514+357453515+358578821+359344456
1888+358843356+357476626+356220062+355475368+355128824+354984963+354905423
1878+354891250+355046965+355446125+356325779+358215000+361206527+363987070
1868+364507241+362449442+359661458+357764421+356926239+356616080+356486542
1858+356441556+356403337+356296311+356170700+356290366+356970964+358350184
1848+360535802+363537127+366303833+366692447+364246482+361284460+359782320
1838+359681015+359935006+360140793+361120705+363740521+367197286+369291023
1828+369233284+368348170+367380263+365872663+364018295+362854996+362771192
1818+363178093+363517046+364020464+365274896+367203831+368846540+369378977
1808+369035986+368733232+369322660+371223735+374044440+376513590+377498213
1798+377320136+377574799+379664796+383391220+386368313+386164508+383806123
1788+382278218+382867010+384794598+387010918+389315976+391587042+393253573
1778+394394173+396382604+400653020+406852820+412018110+413190609+411136811
1768+408447476+406736370+407010890+409628987+413261922+415778864+416952073
1758+417994846+419158706+420428433+422956107+427742619+433663261+437917223
1748+439122630+438563305+438182096+439085608+441274965+443715732+445291092
1738+446787024+450581620+457217676+462786464+463121378+460356168+457972205
1728+456833026+457175045+459241408+462531053+466712206+472820088+481856074
1718+491817300+497347160+496220882+492423220+490044156+490471885+493664713
1708+499048992+505203057+510359036+514892380+521217642+529827619+537238808
1698+540831992+541627395+540073013+537340749+536795634+540140737+546225583
1688+553804379+563671518+575710699+584316339+584900157+582340061+582327347
1678+586420770+593585561+601223966+607526640+613710771+620932702+626749423
1668+628423657+628557832+631369225+637242338+643088077+646532801+649108902
1658+653972785+663264669+677582284+693149207+700094972+698827714+699807251
1648+705572515+710998154+710920072+707968295+707149184+709911440+715802054
1638+723884418+731379374+733294846+728896088+723619957+721080429+721218194
1628+722580138+723992566+724898659+724352610+721733653+718933478+718480619
1618+719655286+718276814+712246939+705051970+699791695+696394613+693698622
1608+690890669+687800753+684798343+682403012+680799418+679865354+679601117
1598+680014263+680552982+680312005+678955372+676876182+674535598+672250209
1588+670354781+669091785+668496000+668415824+668643712+669439414+671739611
1578+675892905+679760347+680243347+678934355+680108574+684412572+688423164
1568+689362389+689117449+690646027+695177913+703986797+719048432+738325438
1558+750173529+750406727+749546556+753053207+760106671+768597768+776926493
1548+784666389+792897064+802935437+814884196+827649972+837556040+837915710
1538+830064674+823416503+821711043+822697312+823225262+823498847+826092824
1528+831923904+839224477+845676323+850792850+854945844+858131193+860913717
1518+863471046+864366518+863090883+861849053+863218028+868315334+877112924
1508+887359665+892101189+886913237+879152400+875551811+876709950+880915149
1498+885366484+886898055+885213986+883925187+886131148+891206465+895025069
1488+894148443+890201947+886994759+886232265+887196770+888344737+889424943
1478+892001867+897258178+903949205+908686318+908389248+903952496+899706013
1468+898481684+899997922+902289818+904121748+906609222+911249256+917105540
1458+919955376+915953609+908706287+903936042+902290117+902629743+904281801
1448+906214101+907157515+906986617+906325016+905531110+905373675+907185487
1438+911052854+914575436+915426557+914674309+914165207+913808454+912875361
1428+911919906+912225577+913857816+915564696+916576170+917273895+917611127
1418+916606310+914419347+912505071+911383131+910276000+908404131+906061453
1408+904341858+903896553+904346271+905089469+906083591+907291241+908154404
1398+908150739+907111892+904788585+901347451+898124109+896393894+895921663
1388+895290876+893352218+890467530+888105705+887565115+889337512+892930098
1378+897195877+901213799+904598316+907196406+909334157+911810338+914708564
1368+917116460+918737854+920580854+923187095+925465828+926219197+925842849
1358+925494622+925574574+925822356+926381269+927808880+929803780+930981813
1348+930557449+929421149+929182043+930924748+934638495+938889540+941501915
1338+941687172+940888105+940736654+941425853+942454902+943698901+945052244
1328+945790506+945283423+944146599+943826718+944920686+946611486+947921600
1318+948897997+950178269+951667208+952285580+951357274+949796685+949134262
1308+949701776+950527020+950675031+950126962+949547108+949571639+950122699
1298+950398903+949856668+948953716+948383435+947945833+946788218+944617409
1288+942171070+940367784+939113539+937298811+934251003+930677040+927702078
1278+925514217+923512960+921309916+918877414+916201093+913461498+911073347
1268+909116067+907210467+905178769+903263297+901502119+899369379+896350365
1258+892780740+889796654+888205326+887634746+887167452+886427918+885501108
1248+884375504+883035025+881553490+879994995+878796021+878831546+880411730
1238+882767049+884956480+886533673+887275001+887350540+887640580+888835740
1228+890492585+891774278+892696451+893807023+895094849+896168773+897301034
1218+899285239+902025207+904204168+904967784+905227982+906568386+909291003
1208+912158041+913996329+915049685+916559716+919435055+923491794+927529536
1198+930279002+931857541+933536449+935603149+937038538+937755784+938979140
1188+940926024+942520568+943643256+945279459+947484372+949277412+950465018
1178+952075567+955030859+958956713+962211094+963351881+962671133+961860548
1168+962250359+963888057+966063653+968302072+970722758+973218683+974947028
1158+975463984+975723060+976965712+979242200+981705891+983559286+984299717
1148+984002049+983489432+983659506+984844794+987114626+990718281+995386361
1138+999798357+1002435263+1002858131+1002180674+1002157863+1003568272
1130+1005670721+1007381416+1008617562+1010071798+1012005220+1013699086
1121+1014145813+1013303592+1012556729+1013806037+1017667347+1022640051
1113+1026363670+1027648729+1027347022+1027274550+1028173463+1029064672
1104+1029227941+1029565847+1030860928+1032219731+1032442010+1031742265
1095+1031385512+1032240523+1033967671+1035510983+1036356944+1036904041
1087+1037664964+1038920107+1041306912+1045401121+1049975787+1051938228
1078+1049761660+1045788164+1043015961+1041717888+1040913735+1040892644
1070+1042200589+1044178961+1046413118+1049681035+1054024747+1057764222
1061+1059862932+1061685290+1064797717+1068046040+1068884073+1067214887
1053+1064961958+1062716358+1059921793+1057200074+1056000052+1057139044
1044+1060880314+1066419336+1071356140+1073741823+1073597177+1071343650
1035+1067314659+1063374070+1062054683+1063811747+1066678038+1068440861
1027+1068282155+1066360699+1063270261+1060640833+1060700218+1064069103
1018+1068919973+1072427222+1072494234+1068581917+1062309795+1057037254
1010+1054990074+1055397162+1056975476+1060122981+1064599297+1067348389
1001+1064883353+1057540821+1049449109+1044518437+1043911508+1046501521
993+1050130155+1052427062+1051897841+1048965660+1045348393+1042312252
984+1040237924+1039308272+1039131466+1038246988+1035720548+1032529216
975+1029860897+1027204172+1023481151+1018671566+1013376513+1008150567
967+1003655029+1000337600+997958349+996060976+994263972+991806565+988093117
957+983875129+980658144+978858223+977256275+974383927+969833717+964346451
947+959203074+955446323+953341480+952615259+953153530+954863925+956828984
937+957568592+956546723+954776868+953856116+954387357+955143569+954452500
927+952531792+951068132+950694402+950576905+950292101+950323064+950812048
917+951405290+951846557+951606254+950058678+947894676+946855978+947447276
907+948217548+947850250+946824267+946387413+946758600+946994342+946417853
897+945404584+944493031+943421351+941647234+939543662+938179475+938025480
887+938642057+939455409+940074678+939816500+937945005+934766163+931707660
877+930173248+930447058+931414180+931631298+931098412+931145082+932270462
867+933344311+933351491+932559006+931416274+929987542+929082496+930103094
857+932958689+935480866+935803140+934228715+932008694+929717771+927617864
847+926338190+926164675+926404529+926522325+927258867+929431545+932288861
837+933968367+933301606+931038505+929528998+930653256+933591122+935371147
827+934202014+931325702+929253169+929351369+931089437+932881804+933958271
817+935256642+937946501+941762786+945491865+948442370+950786769+952780996
807+953626059+951456672+945639353+938786179+934873039+935355591+938084565
797+939909390+939849931+939283614+939512400+940393213+941379482+942474123
787+943718421+944764747+945364795+945852133+946791808+948019950+948381565
777+947081922+945132494+944512851+945853405+947561930+947372709+944679560
767+941053094+938251723+936608564+935905604+936459730+938560161+941441933
757+943603467+944493405+944859358+945048055+944454664+943219939+942904471
747+944650691+947699321+950122176+950554019+949274270+947620342+946234839
737+944727202+943252473+942818162+943612442+944408293+944062011+942930872
727+942258501+942363133+942325439+941636988+941160419+941858743+943156367
717+943836890+943824849+944144206+945480048+946828380+946751869+945965517
707+946061399+946010690+943323899+938318287+933800985+931156525+929619645
697+928244911+926405277+923334359+918552970+912579937+906972332+903595070
687+903220891+904283970+903967604+901778397+899931732+899544913+899190553
677+897529146+895063362+892442536+889000280+883548166+875826743+868203521
667+864775850+865381133+867362347+870593767+875371116+879614533+879856557
657+873865274+863012876+853359228+851362234+857482755+865755163+869494264
647+866391560+858739244+850547236+845045386+844154027+848247862+854690134
637+859037660+860494813+862351350+864794921+863505001+856833868+848913053
627+844646152+844882416+846364550+845420687+841405233+835355913+828183830
617+822183648+820598153+824355952+830938308+836497224+838106502+835407594
607+830749536+826406273+823470950+823100885+827304064+836201276
##END=
