##TITLE=<SNM>
##JCAMP-DX=4.24
##DATA TYPE=INFRARED SPECTRUM
##DATE=3/5/2025
##SAMPLING PROCEDURE=Instrument type and / or accessory
##ORIGIN=Admin
##XUNITS=1/CM
##YUNITS=ABSORBANCE
##RESOLUTION=4
##FIRSTX=4497.3318
##LASTX=599.83466
##DELTAX=-1.4281778
##MAXY=1.723169
##MINY=0.17760989
##XFACTOR=1
##YFACTOR=1.6048262e-09
##NPOINTS=2730
##FIRSTY=0.20264785
##XYDATA=(X++(Y..Y))
4497+126274019+126026206+126062623+126418553+126555194+125990727+124966763
4487+124161428+123881506+123994220+124464934+125343399+126233099+126432759
4477+125815785+125091751+124917876+125121278+125167825+124989465+124884301
4467+124956549+125096236+125260306+125509447+125862489+126089531+125818812
4457+125210035+125057646+125615679+125972770+125275403+123905369+122910208
4447+122839194+123420505+123958462+123877068+123012503+121592617+120254134
4437+119891592+120853588+122375166+123333679+123414544+123084788+122689879
4427+122127687+121273214+120280244+119437954+118965828+118975513+119352075
4417+119626490+119383765+118901073+118892633+119520732+120082654+119780133
4407+118564707+117166511+116389737+116407463+116742696+116874602+116718731
4397+116477260+116221684+115874417+115550502+115622203+116346691+117555701
4387+118672945+118991818+118179983+116645350+115149613+114001709+112930167
4377+111775820+110891523+110672355+111033810+111604071+112131843+112453083
4367+112458265+112405432+112795169+113587626+114038832+113703617+113093299
4357+112960743+113448041+114207386+114825995+114959563+114581320+114137329
4347+114000381+113953881+113648351+113194276+112837315+112486519+111966213
4337+111362395+110925256+110895442+111348811+111970633+112226691+111982239
4327+111684629+111797176+112283480+112731779+112837194+112684880+112599010
4317+112805402+113310880+113952702+114397965+114315048+113815141+113494848
4307+113741333+114247136+114478747+114295066+113852162+113241965+112508451
4297+111818922+111428181+111471571+111835746+112345523+113011877+113803860
4287+114321864+114205956+113757350+113639567+114047290+114585638+114897779
4277+115038850+115175017+115252995+115180301+115067699+115013362+114913481
4267+114737498+114662752+114768919+114949396+115207339+115723709+116546035
4257+117402086+117970100+118255732+118470258+118600836+118510593+118347108
4247+118281675+118020036+117241006+116336004+116126576+116944715+118258675
4237+119144142+119171719+118830998+118876542+119406691+119926115+120162257
4227+120394991+120898667+121341424+121073916+120031307+118958465+118596685
4217+118984334+119670539+120262008+120610259+120672405+120432364+120052013
4207+119915112+120255870+120850263+121349335+121713854+122020739+122127584
4197+121879641+121471398+121293846+121457173+121698505+121801200+121847329
4187+121927377+121903606+121661986+121328443+121083174+120984333+121035996
4177+121279231+121773326+122490999+123266546+123896521+124222553+124127435
4167+123686034+123299945+123298720+123401897+123046914+122275749+121787365
4157+122020990+122623257+123032782+123226128+123471286+123650806+123427125
4147+122900737+122504341+122337143+122108912+121700149+121362742+121351025
4137+121656907+122141466+122697520+123227781+123669711+124081102+124487859
4127+124724521+124668289+124441099+124169209+123837532+123532457+123485158
4117+123782480+124309332+124933382+125560850+126097684+126457755+126583746
4107+126486038+126299433+126267928+126611713+127268123+127781075+127737964
4097+127294948+126926287+126765635+126602568+126330074+126006782+125729386
4087+125693610+126041193+126510347+126620033+126295858+125979056+126091537
4077+126673683+127459407+128037821+128068611+127545676+126744037+125927476
4067+125342833+125312099+125908572+126656626+126923446+126587609+126118297
4057+126018295+126305812+126564229+126466456+126148353+126023541+126347976
4047+127049298+127833871+128330760+128287482+127804121+127272802+126950243
4037+126691789+126237835+125681084+125524990+126222765+127582919+128763767
4027+129102399+128775086+128358179+128054497+127736051+127426649+127322339
4017+127457727+127559660+127293713+126696450+126238606+126306146+126786090
4007+127296833+127626216+127867994+128281679+128967615+129586623+129648732
3997+129198993+128882107+129158027+129772857+130197405+130283590+130286487
3987+130466017+130825986+131091005+130923462+130316794+129724295+129652845
3977+130199280+131086632+131980482+132602796+132721545+132280033+131520400
3967+130883248+130785076+131378986+132369171+133195992+133565237+133602898
3957+133449877+133076612+132614143+132568469+133431808+135001762+136282565
3947+136533991+136232741+136242908+136438241+136052942+135084707+134363023
3937+134505393+135573379+137340672+139286139+140500775+140321422+139263501
3927+138622812+138993831+139675282+139855805+139959317+140986708+142862248
3917+144022268+142929175+139945547+136975809+135470332+135527631+136763252
3907+139350077+143683729+149187022+153999867+156300679+155423690+151803978
3897+147078452+143710666+143425359+145743246+147891818+147720116+146867046
3887+147839923+149912941+150728406+150657188+151308537+151288258+148748277
3878+145939647+146169726+149531532+153963877+157882434+159964496+159190406
3868+157249053+156751996+157382351+156649469+153714207+150552256+149507344
3858+152027139+158899389+168821034+174786639+170367915+160989398+153577408
3848+150176298+150514781+153426347+157402389+161478952+165435662+168497742
3838+169024046+166938976+164268715+162128398+159999408+157738774+156278283
3828+156134956+157086543+159735950+165077346+171148950+173104621+170537741
3818+167717505+165645787+162271669+158019651+155577388+156528650+160624044
3808+165611803+168820849+171054241+174832248+178856833+179210934+176545203
3798+174396901+172971787+170902279+168858175+168435939+169827663+172269546
3788+175363938+178920232+182330804+185403301+189068456+193774464+198177960
3778+201178460+204033646+208742440+216085321+225334810+234286057+240812619
3768+245622083+251039098+257841059+265951140+276205494+289107583+303013126
3758+315695453+327793535+342469714+362240469+385808693+406400261+418995140
3748+427719642+437881720+449202481+457477541+462449590+468814384+480088051
3738+496199576+513203596+525758102+531934667+534092217+535180185+536349788
3728+537530831+538240518+537747548+535665616+532496051+529067020+525813554
3718+523186283+522620367+526276812+534891563+545086250+550594798+549584827
3708+546222798+544699316+546546592+550788748+555137164+558480066+561481642
3698+564469960+567244532+570709850+576708732+585702023+594850191+599478316
3688+598569776+595657820+593024792+590779292+589488869+590760944+596126463
3678+604858580+611274740+608723756+600387338+593638693+589458637+585200324
3668+580878241+578804071+579730736+582190948+584158300+585529578+588084981
3658+592418764+596685508+600022504+604832135+613210931+623151648+628194933
3648+624227916+615631624+608610365+605520244+605559279+606696124+607886861
3638+609962367+613676306+618290465+623549501+630955688+640241724+645746150
3628+642923889+637409658+635473058+637624109+642818706+650310837+657489277
3618+660535942+659661052+658562202+659537447+662653864+667402770+672529696
3608+675632147+675992637+675925263+677179362+678566648+678272418+676964019
3598+676756624+678560408+681988511+686125633+689492973+690768390+690126893
3588+688842562+687513067+685762766+683672849+682072375+681404953+680976050
3578+679800022+678242705+677952338+679835677+683061139+686304800+688678399
3568+689316776+687917605+685712477+683907357+682191374+680085561+678474910
3558+678817349+681519199+685723397+689667312+691233988+689907762+687476446
3548+685948693+685544898+684769768+682650584+680197652+679137874+680012171
3538+681766705+683104297+684031482+685507683+687843769+690334511+691979108
3528+691895170+689710098+686395795+683854691+682926838+682543172+681388834
3518+679515300+677593854+675665277+673556047+671747583+670774567+670078027
3508+668533858+666350346+665389883+666925138+669778226+671573318+671386500
3498+670198512+669501155+670512055+673737591+677983536+680668524+680369317
3488+678297822+676012247+673372051+669995277+667037527+666303623+668052958
3478+670553207+671732059+670884950+668755589+666701996+666415491+669129226
3468+673809050+677180328+677209892+675401280+674251695+674081887+673100403
3458+670001294+666114056+663984695+663934184+663814739+662626602+661994464
3448+663085143+664740066+665697707+666234615+666868684+667634455+668839899
3438+670758522+672557774+672749124+670256526+664988985+658497131+653541796
3428+651980022+653457635+656220099+658524244+659340675+658700069+657715836
3418+657424800+657522406+656762058+654418321+650939409+647704142+646685591
3408+649210502+654050552+657794129+658159669+656051182+653625214+651936790
3398+650861042+649970107+649567871+650825758+653990606+657075230+657850806
3388+656769189+656090254+656551470+656715632+655535889+653797474+652429055
3378+651019708+648994490+647470303+648337617+651848692+656034543+658422404
3368+658344928+657224834+656505489+656155994+655593384+655094359+655512416
3358+657136810+659150068+660037363+658838233+656026372+653021230+651172060
3348+651072968+652259173+653455703+653729803+653218448+652349945+651306064
3338+650567703+650801617+651755840+652269721+651702580+650502781+649311302
3328+648303670+647480926+647021196+647204597+648145599+649417673+650134195
3318+649893374+649200028+648613128+648493906+649378081+651083887+651912129
3308+650295164+647040212+644657179+644786281+647152749+650347755+652846073
3298+653686868+653063273+652163201+651916363+652000673+651547480+650714484
3288+650504861+651216257+652217575+652968192+653272079+652839016+651527052
3278+649989049+649187697+649177223+649211839+649209610+649778237+650351692
3268+649300308+646804293+645302390+646116667+647702657+648004760+647089461
3258+646545867+647302278+648911815+650406958+651007451+650240567+648557565
3248+647597102+648247736+648997759+647895938+645370804+643366385+642514374
3238+641911503+641239253+641373555+642553520+643412886+642665240+640735920
3228+639055370+638632781+639508117+640810870+640982907+639018229+636341709
3218+635863260+638292942+640872524+640885152+638962889+637009279+635066589
3208+632326261+629333969+627569555+627746940+629292520+630979161+631863040
3198+631644577+630158274+627421066+624472377+622632419+621690378+620446901
3188+619092596+619192542+621168623+623428496+624124962+622898459+620869193
3178+619396669+618778645+618016440+616281478+614354238+613620929+614107845
3168+614575338+614221199+613431102+612821248+612293700+611383822+610075238
3158+608837258+607983315+607421114+606845765+605879062+604506818+603409714
3148+603210973+603553895+603469288+602442120+600794105+599212833+597853180
3138+595981948+593129715+590326173+589105464+589501868+590123904+590047357
3128+589565788+589183348+588927076+588686366+588466084+588121937+587413400
3118+586540404+586040339+585860949+585130499+583358545+581422354+580695990
3108+581407498+582425678+582575021+581626741+579967249+577909868+575706523
3098+573982258+573647284+574924002+576607040+577025692+575730776+573544367
3088+571371440+569706972+568788106+568567155+568628809+568445222+567869390
3078+567290066+567083600+567038920+566661160+565941519+565384777+565354953
3068+565748089+566159535+566140668+565375232+563783931+561661219+559704452
3058+558572955+558374808+558681703+558779310+557997643+556312859+554533439
3048+553436892+552948081+552524415+551910848+551082087+549926523+548617790
3038+547954454+548513052+549546349+549565736+548145915+546408353+545611087
3028+545843032+546196576+545746874+544203003+541908031+539488155+537566746
3018+536535641+536317995+536425964+536346260+535882444+535150026+534260725
3008+533140111+531809762+530693939+530263253+530386635+530284758+529168192
2998+526988728+524541367+522771196+522120934+522499139+523440809+524108639
2988+523631304+521875878+519694483+518222293+517929326+518264597+518222256
2978+517329687+515922531+514495727+513231897+512192250+511497567+511163411
2968+510937928+510407111+509320555+507851262+506562622+506015091+506232105
2958+506583124+506392368+505650368+504891914+504434227+504006179+503154093
2948+501869018+500618671+499722610+499001780+498178033+497227338+496186391
2938+495104960+494323664+494245334+494689836+494946183+494519694+493465747
2928+492040578+490437763+488839592+487332452+485843772+484473348+483681801
2918+483735990+484173175+484258599+483791478+483034325+482159100+481237635
2908+480497343+480136631+479956980+479490788+478549193+477421039+476414410
2898+475426054+474223507+472971116+472050840+471384310+470451220+469160537
2888+468146146+467835611+467780977+467405445+466921834+466877116+467175618
2878+467190325+466584632+465528308+464256568+462811268+461277275+460047244
2868+459505656+459409907+459027021+458055528+456915043+455971887+455098854
2858+454161196+453324189+452731978+452371934+452310243+452584120+452805219
2848+452368257+451265990+450278452+450029125+450173714+449911500+449027287
2838+447907193+446834118+445894454+445254740+444959210+444725965+444270767
2828+443532443+442531831+441392423+440379369+439587563+438819749+437942371
2818+437069597+436327374+435712804+435206165+434848016+434645190+434403811
2808+433767365+432557353+430973814+429357184+427916006+426756022+426008488
2798+425785940+425940149+425958274+425409666+424505508+423820074+423496205
2788+423186487+422655224+421927115+420996104+419859148+418704587+417714411
2778+416781804+415644179+414264470+412941400+411956722+411167181+410132288
2768+408727434+407406185+406649291+406357029+406046235+405462009+404682273
2758+403814811+402977767+402416383+402239926+402126350+401598392+400536349
2748+399206706+397882893+396640680+395497669+394579993+394037922+393803786
2738+393516501+392772941+391502166+390054006+388858033+388026523+387340642
2728+386560944+385655524+384767931+384052635+383513498+382961733+382216168
2718+381340980+380562507+379949534+379307369+378439609+377371289+376231881
2708+375114164+374147201+373474432+373045009+372633451+372128075+371632393
2698+371270678+371008389+370674604+370160500+369564761+369024992+368451277
2688+367614976+366468623+365222584+364132499+363280339+362554644+361856841
2678+361244499+360748037+360195641+359408477+358453140+357580924+357014860
2668+356787595+356679737+356377188+355773612+355049773+354436429+353974656
2658+353506681+352857496+352012021+351124540+350403301+349998726+349894026
2648+349844480+349510509+348741581+347744535+346919859+346473203+346238324
2638+345924298+345404140+344711537+343953714+343311697+342934643+342758075
2628+342544664+342119067+341493503+340786786+340087201+339423568+338846362
2618+338432501+338166869+337912231+337554788+337109171+336641456+336147037
2608+335579153+334996450+334572524+334384926+334285462+334047204+333576072
2598+332959050+332354694+331823060+331282920+330700180+330223031+329989340
2588+329900908+329724600+329349626+328863601+328401531+327979053+327562296
2578+327268066+327252727+327375254+327295439+326965293+326673180+326544450
2568+326345672+325877029+325309070+325015063+325194936+325759552+326491190
2558+327147432+327446045+327209792+326580551+325878960+325245745+324600645
2548+323895972+323250092+322870141+322898256+323256740+323646236+323781466
2538+323590339+323156980+322619960+322180175+322011667+322051890+322031388
2528+321825331+321646015+321779053+322226935+322681725+322764141+322274253
2518+321361367+320488408+320064111+320065151+320166062+320196741+320239453
2508+320334868+320389390+320331191+320118522+319693890+319118578+318597715
2498+318243911+317982699+317723827+317435837+317065579+316561503+315965207
2488+315394797+314957798+314687524+314520501+314341296+314077968+313764907
2478+313521337+313430899+313389561+313131135+312499740+311662362+310976055
2468+310691128+310821214+311186161+311498775+311524737+311247164+310803795
2458+310287333+309753804+309353723+309231009+309317232+309414188+309434226
2448+309403492+309294836+309023429+308588509+308102335+307685893+307402230
2438+307247668+307142652+306995742+306836426+306785227+306849407+306883446
2428+306796871+306676479+306651669+306724613+306775979+306720565+306608028
2418+306531833+306493300+306440114+306391070+306426725+306571537+306746415
2408+306840140+306812321+306728457+306695458+306751355+306821792+306809202
2398+306719673+306652634+306676051+306769572+306860437+306868200+306747641
2388+306486503+306024303+305238774+304020999+302239983+299685563+296258018
2378+292171426+287797773+283374109+278972117+274665354+270639655+267142396
2368+264304574+262103605+260563058+259808188+259917716+260984551+263302197
2358+267224069+272795200+279735269+287853726+296946870+305964915+313002702
2348+316437416+316019767+313270005+310333796+307864857+305043153+301410051
2338+297382291+293400418+289493384+285716305+282533871+280465125+279511774
2328+279187516+278982869+278669289+278394038+278584942+279554802+281132565
2318+282771164+284032951+284964964+285971593+287301125+288791644+290187268
2308+291449445+292598026+293512973+294121136+294602742+295205854+295937697
2298+296584765+297006704+297309810+297697357+298190662+298603780+298850971
2288+299124922+299603686+300131477+300415215+300393097+300177940+299808964
2278+299315120+298880349+298694329+298706939+298697003+298548366+298339913
2268+298185017+298085293+297972812+297842243+297769039+297769262+297712622
2258+297476889+297143754+296919720+296909840+297073762+297313747+297517706
2248+297621645+297678192+297786328+297965607+298147356+298257274+298300952
2238+298391464+298660345+299127448+299672341+300128153+300447081+300783819
2228+301302993+301920961+302421249+302793289+303259333+304004063+305013830
2218+306153981+307338738+308613282+310061739+311677739+313354723+314952672
2208+316398826+317799743+319390004+321309964+323501684+325835319+328266747
2198+330839049+333533211+336172182+338552280+340640266+342573262+344499908
2188+346450881+348351379+350148923+351837348+353332342+354499865+355356185
2178+356087972+356873687+357709914+358340046+358472007+358154750+357724436
2168+357389054+357118520+356810510+356336221+355565140+354456225+353118336
2158+351826428+350826930+350030518+349151505+348146510+347262892+346767990
2148+346683234+346726875+347011374+348785333+353403132+360528052+368499597
2138+376310880+384035699+391737750+399167336+406176190+412817276+419323465
2128+426005517+432956134+439999344+446852020+453173620+458642799+462969525
2118+465830189+467174429+467449717+467151959+466644280+466711765+468622812
2108+473349991+481164282+492006445+505562158+520478416+534057490+543592110
2098+547674894+545946061+538969817+528556704+516794301+504889426+493137199
2088+480975606+467403551+452316631+436727604+421540664+407254910+394421364
2078+383364935+374001981+366252686+360020670+354988713+350896495+347594708
2068+344814826+342361782+340234205+338353391+336618801+335064418+333662313
2058+332381398+331369161+330643057+330041300+329686085+329882932+330682240
2048+332054559+334136787+337138067+341458665+347755157+356618418+368509143
2038+383838072+402534528+423746015+446200607+468391127+488462389+504566560
2028+515311155+519987376+519007563+513894156+506478275+498183418+489626941
2018+480684979+471247186+461639176+452124762+442629586+433068857+423481052
2008+413924482+404478407+395222456+386237038+377719151+369933384+362994020
1998+356874541+351646481+347478235+344232754+341257658+337942761+334398111
1988+331182565+328605026+326622854+325075046+323761856+322548092+321466958
1978+320584009+319853299+319164744+318432215+317726724+317347776+317486423
1968+317806131+317700243+317010017+316151357+315540092+315243002+315145582
1958+315110001+314947732+314554151+314090335+313782698+313629269+313521226
1948+313542433+313973119+314927416+315904036+315961604+314800469+313267034
1938+312301000+312018840+312033288+312054904+312019360+311982665+312012526
1928+312202465+312794787+313895643+315023203+315629156+315994288+316594447
1918+316924964+316190429+314827545+314069611+314463044+315499757+316237709
1908+316135795+315470267+314889718+314659036+314565850+314434743+314455727
1898+314937259+315779465+316430619+316704533+317195981+318205321+318879168
1888+318357450+317110854+316113213+315640930+315500240+315546258+315659352
1878+315740542+315799967+315936608+316568932+318507499+321977645+325371133
1868+326060059+323521740+320003422+317642971+316864202+317010759+317325380
1858+317418232+317362966+317454704+317793689+318276446+318939151+320105374
1848+322286138+325644044+328878494+329409348+326660552+323301161+321647240
1838+321686684+322225375+322697584+323857902+326592325+330115656+332188377
1828+332049099+331177477+330367583+329000725+327162586+325984886+325938014
1818+326398338+326790211+327408607+328877268+331020557+332656166+332865641
1808+332147559+331775854+332630539+334858175+337813994+340165791+340911357
1798+340610404+340999529+343395301+347344008+350147215+349256503+345984912
1788+343685000+343773470+345420482+347448708+349503526+351391100+352676434
1778+353620407+355543227+359679977+365589387+370343307+371025400+368411462
1768+365086908+362732326+362546213+365001856+368611317+371024063+372101668
1758+373198289+374374949+375468562+377939619+383085227+389430634+393461941
1748+393752791+392166170+390943901+391134880+392726477+394750766+396038886
1738+397279206+400852975+407149578+411758946+410404307+405873455+402029858
1728+399663538+398831137+399631820+401625431+404820511+410521561+419565178
1718+429411855+434292426+432150957+427139762+423178911+421740705+423315292
1708+427792439+433704708+438941497+443739504+450505122+459267026+465704950
1698+467335658+466094781+462759456+458426082+456367103+458221622+462990621
1688+469803706+479591626+491732309+499596368+498362474+493748092+491857362
1678+494291426+500198793+507152308+513068552+518684066+524956008+529410721
1668+529459190+528105145+529831565+534966142+540128537+542679298+544154051
1658+547869587+556152076+569777205+584938815+591234007+588808411+588506530
1648+593087337+597481214+596505263+592587235+590650413+592503260+598334377
1638+607624312+617099394+620080544+615234365+609855773+608911020+611999358
1628+616706629+621798086+627703039+633886623+638471961+641901772+647216334
1618+655356722+662095042+662424556+658390686+654542371+651934413+649487870
1608+646567631+643861250+642685519+643889700+647246121+651744252+656433659
1598+660800311+664473692+667042132+668300093+668463365+667957952+667093312
1588+666045420+664974351+663960628+663032403+662580250+663596499+667089375
1578+672904299+678468002+680356244+679989960+682133806+688452954+696270439
1568+702233703+707093438+713558104+722865533+736168576+756067096+782037257
1558+801667694+807095387+809139547+815139506+824546175+834488193+842535654
1548+848071501+852868542+859407713+868758522+879622302+886434458+881533719
1538+869090933+860205127+857121469+855640514+852133153+848112505+846898741
1528+848885481+852291670+856055898+860541772+865359983+868952100+870908681
1518+871525963+870060087+866878302+864661958+865690017+870504217+878811962
1508+888265057+891456944+883920838+873951187+868599485+868077730+870411068
1498+872874028+872419869+868922462+866387151+868130544+873232511+877112544
1488+876169612+871815216+867434895+864860216+864370996+865518055+867897819
1478+871519946+876236391+880953282+883410522+881498361+876487538+872605202
1468+872340239+874857425+877138766+876974752+876165229+878338787+884868301
1458+892744618+894712861+888251909+879634187+873813840+871631888+871678017
1448+871310248+868735792+864875815+861950674+861161505+862519004+865587880
1438+869147833+870527393+868120590+864375899+862288210+862047835+862154949
1428+861882483+861847645+862445539+863455919+865016727+867238792+868558258
1418+866615196+861931732+857228064+853915469+851851179+850447626+849365861
1408+848715078+848534797+848325991+847931852+848308534+850285840+853344465
1398+856134562+857410500+856129882+852226971+847778683+845298267+845078690
1388+845043703+843032748+839709085+838101405+840322355+845956254+852798272
1378+858636743+862651077+865287336+867178326+868713284+870339683+872343433
1368+874513574+876715434+879343225+882406010+884582614+884407086+882435128
1358+880783919+880657863+881309834+881552141+881501258+881989438+883070832
1348+884184389+885318746+887167321+890225278+894037269+897216379+898518835
1338+898430588+899014368+901479260+904704796+906894547+908023184+909562674
1328+912348239+915955806+919581944+922475144+924258500+925565562+927481065
1318+930182172+933086811+935953567+938738092+941119193+943125098+945313512
1308+947586311+948798069+948274977+946936123+946207716+946450469+947057796
1298+947484099+947351581+946196797+944237393+942724942+942386143+942216409
1288+940845168+938368318+935821865+933604926+931372240+928980145+926786828
1278+925144978+924041152+923183643+922229123+921005182+919623987+918325023
1268+917200248+916264298+915741355+915883530+916495463+917016253+917056216
1258+916484989+915045038+912456542+908999989+905368949+901888775+898436382
1248+895033164+891951809+889245502+886642149+883969418+881331525+878843457
1238+876549043+874691999+873798464+874337675+876230151+878702396+880695450
1228+881651085+881934989+882248830+882792126+883366770+884094731+885333379
1218+886945293+888541385+890408457+893121746+896275303+898769684+900439687
1208+902241019+904770015+907632611+910298286+912626870+914451452+915594574
1198+916400680+917495890+919143756+921410983+924395104+927675460+930300206
1188+931946735+933363808+935195521+937280684+939445477+941904129+944670529
1178+947410932+949800055+951419918+951978071+952195939+953426267+955848967
1168+958274414+960139332+962289417+965261355+968070765+969509157+969849442
1158+970584237+972927974+976770718+980682469+983068621+983610729+983164147
1148+982595595+982540255+983726683+986453343+989799959+992168061+992772714
1138+992156027+991500342+991838993+993559878+996302063+999304457+1001746989
1128+1003017950+1003178473+1002962313+1003235075+1004770330+1008200513
1120+1013199377+1017547608+1018651732+1016739868+1014926428+1015622448
1111+1018033262+1020393861+1023051217+1026668292+1029209248+1028344162
1103+1025729074+1025274321+1028264681+1032665949+1036421188+1039218639
1094+1040986544+1041331286+1041118171+1042180623+1044831293+1047433606
1085+1049134138+1050827167+1052632882+1053036752+1051527495+1049742951
1077+1048890196+1048419399+1048132671+1049568611+1053547290+1057825325
1068+1059316011+1057740866+1055415402+1054347973+1054672139+1055626882
1060+1057201878+1060281896+1065086143+1069851094+1071862643+1070105880
1051+1066916148+1065996317+1068470790+1071347351+1070728435+1066789052
1043+1063334802+1062361042+1062102468+1061076934+1060659916+1062151568
1034+1064672542+1067003354+1068484830+1068043076+1065984655+1065686710
1025+1069453166+1073741823+1072652333+1065900642+1058977955+1055873423
1017+1055944362+1057001837+1057880293+1058346411+1058482272+1058459097
1008+1058331629+1058087539+1057954352+1057961483+1057307210+1055394677
1000+1053334325+1052773275+1053422051+1053275716+1051175326+1048163647
991+1046349983+1046801988+1047994581+1046801468+1042175275+1036657033
983+1033239330+1032239349+1031327615+1028134614+1023215974+1019531673
974+1018770285+1019253859+1017821707+1013248923+1007249261+1002313387+999221113
964+996808070+993622720+989275158+984418023+980071130+977056108+975292065
954+973656232+971536380+969680153+968419667+966707992+964221634+962303382
944+961453896+960185758+957547419+954788298+953479156+953583819+954144275
934+954766384+955737247+957153725+958312075+958142861+956346951+953916973
924+952387214+952459788+953609298+954960037+955894947+955997753+955127022
914+953500252+951551470+949921209+949260250+949373827+949128177+948106135
904+947445250+948135476+949363279+949521350+948034378+945530489+942890962
894+940638591+939114775+938680598+939219512+939676196+938770182+936314427
884+933636719+932289842+932584889+933889425+935442805+936499166+936393389
874+935340148+934787269+935859823+937891354+939321130+939598572+939273738
864+938751091+938105657+937685668+937819673+938073196+937894029+937581600
854+937404215+936537644+934456789+932646692+933082949+935322172+936729068
844+935924077+934268337+932989651+931305386+928921314+927747216+929120463
834+931538185+932817986+932880976+932910243+933087405+932569290+931231550
824+930692191+932877039+937681731+942654671+944989941+943936626+941221628
814+939082685+938394242+939009815+941220811+945564213+950649913+952735447
804+949707723+944609024+942317655+943756270+945824051+946352862+946188551
794+946054324+945300810+944261089+944409652+945826576+946884348+946608986
784+945410004+943739334+941860080+940686131+941449970+944287310+947734874
774+949812980+949327846+946291134+942024539+939056464+939546500+942989236
764+946311710+947102588+946031520+945488743+946940505+949878571+952649206
754+954124664+954398764+953855765+952635835+951330928+950985964+951798903
744+952472193+951430911+948676618+946243743+946656675+950463020+955128434
734+957279633+956256699+953842468+951453641+949516373+948415741+948413512
724+949292191+950764604+952429778+953299097+952459639+950279470+948354756
714+948027693+948968768+949351319+947702339+944456227+941124467+938308818
704+935726042+933927235+933375990+932700472+930696573+928795258+928928370
694+930400115+930916224+929467136+926452188+922427752+918365878+915734595
684+915187956+915550377+914654984+911481148+907640039+905807360+906074328
674+905289393+900673600+892240022+882566013+877701598+882253658+890121729
664+893658877+892488717+889749503+887760461+886398431+884082103+879981974
654+875285436+872147775+871636494+872981959+874082072+872941996+869775588
644+866592763+864497201+863649869+865050451+869212383+873749067+875505904
634+874504661+871889795+865853289+854819478+842984910+837332441+839483863
624+843196242+840799244+831905045+822240470+816310855+815120936+818104685
614+824346432+831967219+837641453+838500744+834955202+830347580+827953256
604+828603221+830179554+828266205+820583095
##END=
