##TITLE=<SNM>
##JCAMP-DX=4.24
##DATA TYPE=INFRARED SPECTRUM
##DATE=2/5/2025
##SAMPLING PROCEDURE=Instrument type and / or accessory
##ORIGIN=Admin
##XUNITS=1/CM
##YUNITS=ABSORBANCE
##RESOLUTION=4
##FIRSTX=4497.3318
##LASTX=599.83466
##DELTAX=-1.4281778
##MAXY=1.8435605
##MINY=0.32648835
##XFACTOR=1
##YFACTOR=1.7169495e-09
##NPOINTS=2730
##FIRSTY=0.34482402
##XYDATA=(X++(Y..Y))
4497+200835273+201926049+203218297+203736928+203147095+201847801+200357936
4487+198879336+197576882+196982398+197578150+198961386+199992799+199986637
4477+199368164+199141108+199932845+201427848+202662832+202993601+202633932
4467+202034032+201221951+200192013+199410829+199441726+200336325+201490614
4457+201939172+201147174+199740747+198907299+199026200+199542592+199978600
4447+200276979+200289321+199748732+198818358+198101919+198045992+198557142
4437+199124861+199299063+199126197+198965048+198890462+198707720+198543447
4427+198759134+199183756+199192070+198685173+198197768+197979495+197711196
4417+197171319+196625194+196459896+196744788+197185900+197364493+197087464
4407+196628248+196608617+197382979+198595017+199592530+200053186+199927569
4397+199208542+198167132+197362445+197039817+196865320+196475830+196004725
4387+195856681+196070111+196158063+195714052+194878365+193998485+193231361
4377+192743244+192822986+193487387+194319429+194899125+195182802+195477154
4367+196134248+197044591+197501185+196919632+195572431+194191919+193018277
4357+191862687+191010389+191165237+192278005+193215808+193045598+192083096
4347+191281308+191102020+191317308+191530825+191596177+191659550+191947827
4337+192469912+192865825+192678413+191913007+191174541+191059824+191552887
4327+192155981+192410896+192156328+191553789+191064319+191107800+191530304
4317+191751737+191632229+191722593+192334626+192840708+192444067+191328590
4307+190410697+190160260+190253818+190287839+190353417+190818569+191763297
4297+192682805+192838399+192140168+191466845+191644518+192393382+192860461
4287+192815539+192626878+192389963+191816742+190893189+190156059+190170484
4277+190815653+191313767+191171017+190784582+190802061+191287592+191891779
4267+192389772+192634394+192384617+191651079+190980013+191031149+191860552
4257+192750326+192935429+192487374+192167385+192411990+192904133+193182690
4247+193186300+193072295+193040999+193443975+194443120+195519958+195943643
4237+195692112+195320171+195100683+194898587+194623380+194262721+193716891
4227+193051552+192711931+193075575+193910829+194630618+194954808+194944567
4217+194579552+193914196+193420664+193455709+193640656+193456456+193113675
4207+193192098+193784985+194500887+194993533+195184260+195233851+195378128
4197+195547279+195268688+194280826+193112217+192654651+193148165+193928013
4187+194294486+194270480+194198915+193963145+193232593+192331190+192056712
4177+192548682+193114109+193375360+193789654+194752192+195889122+196570985
4167+196684192+196590270+196516170+196250718+195586421+194850384+194576844
4157+194794024+195082561+195205263+195210297+195035799+194549610+193973229
4147+193828917+194334721+195150117+195861714+196335927+196447398+196030779
4137+195322427+194867464+194789233+194675262+194318978+194086957+194345448
4127+194857466+195069821+194802373+194286693+193711163+193153251+192813370
4117+192869105+193221640+193668931+194047104+194058890+193474785+192652585
4107+192364742+193011300+194297367+195608240+196420841+196453908+195761040
4097+194715445+193700401+192803285+192036403+191724155+192186982+193084028
4087+193619983+193543331+193422035+193773859+194362650+194520432+193982759
4077+193252381+193005971+193258821+193490182+193494382+193536127+193717828
4067+193850215+193877936+193858964+193703838+193374163+193057888+192862474
4057+192681121+192477116+192380902+192496730+192758311+192919859+192805524
4047+192674994+192988196+193684605+194201466+194289418+194188014+194004491
4037+193590527+193081650+192964278+193429933+194095688+194539039+194748720
4027+194895879+195031564+195212084+195584147+196149592+196705837+197023327
4017+196866257+196036159+194732821+193672438+193505561+194205458+195149284
4007+195700253+195683121+195442473+195572691+196414835+197616371+198395316
3997+198414375+198067759+197747491+197336999+196658954+195859683+195123248
3987+194502102+194128460+194182494+194644018+195315589+196056242+196911388
3977+198011242+199285402+200294840+200497336+199767582+198617859+197820411
3967+197797308+198440654+199418866+200402910+201087654+201342188+201300217
3957+201091924+200703285+200287082+200372534+201484174+203404128+204982031
3947+205299244+204908435+204953426+205445500+205512813+204977831+204461300
3937+204408671+205065644+206691055+208935303+210499668+210394358+209377786
3927+209116414+210025663+210698934+209955781+208766760+208868789+210250289
3917+211042235+209803849+207222340+205078731+204395636+205103084+207047860
3907+210706537+216384368+222847479+227604153+228956579+226638890+221190181
3897+214654949+210330968+210349454+213778124+216756934+216399208+215053170
3887+216397507+219881635+222327789+223472461+224887184+224884962+221519249
3878+217947517+218112189+221680693+226034494+229696417+231504015+230112499
3868+227303934+226392185+227182586+226526481+223322056+220093243+219706860
3858+223799445+233216163+246047421+252929217+246003593+233216996+223560603
3848+219452292+220426285+224771061+230342645+235983382+241579492+245924563
3838+246315667+242445955+237545386+233871243+231089617+228704927+227486294
3828+227921087+229524454+232751115+238829527+245813404+248446518+246417887
3818+244206513+241814620+236271833+229128802+224849830+225688538+231122822
3808+237984744+242416273+244825941+248047880+250898503+249911023+246652667
3798+244674790+243492886+241422405+239423178+239231757+240858245+243645877
3788+247687708+252904101+258159340+263010614+268875196+276435384+283629741
3778+288773978+293906725+302111370+314298917+329237142+343972489+355099063
3768+361871767+365630719+366991321+367258456+369089869+373052184+376361086
3758+377252057+378388224+383604114+394121744+407196792+417123913+422025003
3748+426493816+434009291+442777924+448000479+449988979+454424118+465403950
3738+483433063+504479642+520490330+526745912+527732108+530852748+538948838
3728+550013827+559883911+565650214+568228008+570081604+571891077+573081747
3718+573523813+574043677+576267756+580966108+585546323+585302204+579398359
3708+571409018+565187179+562814588+563443007+563953219+562818962+561978675
3698+563475431+567339640+572760455+579269356+586398309+592212242+593314734
3688+589183042+583821869+580229793+578236850+577205350+578430492+584734746
3678+596448566+606377596+604719935+595582832+590026766+588925523+586014218
3668+579613247+573562833+569898758+567883944+566748124+567263267+570541792
3658+575108260+576916761+575260348+574854699+579240369+586331378+589071259
3648+582894897+572181923+563854246+560660912+561104679+562486284+564024074
3638+566263983+568274006+568340348+567458992+569561914+577142585+586022480
3628+586806424+578441115+569381706+566469672+571195449+579564125+584937831
3618+585588676+586187517+589138121+591746708+592033388+592385888+595097164
3608+598053808+598256337+596725595+596457800+598420819+601258112+603546345
3598+605358629+607536398+609959674+611715858+613276456+616300934+620357154
3588+621869845+618833702+614105460+611092647+610351958+610291345+609243217
3578+607500502+606871111+607820092+608883426+609822201+613014701+619906062
3568+627110347+628648172+623519383+616067438+609681117+605397233+603813098
3558+605318012+608895021+611896517+611696348+608287570+604722087+603964874
3548+605844367+607418712+606262480+603106153+600740782+600935675+602728032
3538+603374364+601375727+598131223+595948594+595636711+596272489+596303178
3528+595031551+593230792+591850646+590770301+589749529+589509923+590518962
3518+591795865+592201133+591888416+591459680+590704342+589233935+587288760
3508+585288248+583370568+581537038+580099888+579644387+580321268+581351449
3498+581334994+579568117+577266970+576412727+577162442+577577256+576253974
3488+573916445+571939262+570848746+570428724+570247613+570100524+570143675
3478+570482151+570948136+571334311+571452204+571015484+569747538+567634756
3468+565090080+562986152+562119099+562419526+563072072+563231659+562241749
3458+559883703+556848324+554038075+551487741+549041587+547593537+548261462
3448+550498559+552142925+551740573+549956165+548240632+547281028+547023475
3438+547084782+546765331+545603509+544176636+543371133+542947640+541847890
3428+539595830+536818456+534748479+534307385+535307676+536590966+537223447
3418+537192342+536754962+535924569+534786041+533620089+532579008+531540982
3408+530331912+529101979+528442421+528840815+529822290+530177811+529443683
3398+528394514+527927383+528001674+527697081+526160749+523548447+520906742
3388+519204401+518787712+519391726+520174871+520243122+519565303+518734875
3378+517747325+516073972+514132511+513441118+514742635+516776751+517626515
3368+516960534+516037173+515770941+515955349+516209640+516549365+516968554
3358+517260337+517262628+516805877+515814578+514926106+515254826+516782132
3348+517765967+516781403+514607696+513049216+512816657+513306214+513521971
3338+512876055+511771549+511245749+511540726+511654871+510795872+509335637
3328+507989615+507001544+506254920+505503574+504561605+503735586+503707189
3318+504560911+505443377+505686489+505740888+506353234+507293987+507547965
3308+506512959+504657732+503070230+502346830+501948262+501017194+499811909
3298+499607227+501083084+503431548+505138749+505335829+504400629+503557912
3288+503863478+505177075+506217392+505938037+504605346+503241134+502460696
3278+502258514+502323883+502123505+501315018+500338785+499961879+500309312
3268+501007265+501966487+503225304+504277910+504315750+503060718+500942868
3258+498671646+496985795+496411185+496760388+497162427+497072202+496935388
3248+497424528+498347959+498755588+498096689+496950420+496378136+496596878
3238+496599238+495404507+493368759+491630037+490611347+489826709+488910985
3228+488049174+487364551+486585711+485491897+484243252+483153951+482370632
3218+481821642+481352220+480912966+480653051+480688322+480775632+480559077
3208+480151413+479890874+479538200+478556274+477166719+476141225+475636289
3198+475177178+474547822+473839800+472921612+471613500+470124520+468865461
3188+468090959+467809764+467729016+467368427+466383064+464719848+462670839
3178+460862651+459762067+459141147+458480026+457631165+456605706+455231356
3168+453621359+452444922+452176329+452435618+452469674+452021498+451322746
3158+450471176+449329698+448020475+446975540+446349343+445832604+445179121
3148+444531088+444050730+443544961+442750082+441796761+440963556+440082687
3138+438748538+437107748+435847369+435385237+435517607+435668654+435190414
3128+433820786+432063422+430764856+430268217+430258254+430215450+429786922
3118+429006901+428212821+427554894+426895196+426313227+426044182+425775033
3108+424863788+423441601+422488454+422626309+423402824+423840099+423315098
3098+421941339+420445902+419649530+419794363+420317038+420394072+419725487
3088+418683816+417756532+417053128+416412594+415802088+415394529+415222896
3078+414974160+414365355+413607552+413154203+413047800+412927615+412609934
3068+412180852+411623287+410840072+409895986+408895314+407911339+407165617
3058+406799959+406466205+405715380+404705716+403901360+403264713+402364646
3048+401126486+399998790+399432199+399449348+399669618+399660314+399281013
3038+398657871+397929160+397220756+396725228+396477291+396149994+395387469
3028+394248178+393067055+392034548+391134100+390366125+389783322+389281059
3018+388608864+387794058+387277701+387236112+387092737+386281750+385192102
3008+384677862+384845920+384940727+384372470+383369160+382512661+381982105
2998+381506781+380885236+380142221+379229969+378104495+377077751+376547022
2988+376364141+375927733+374971149+373929027+373370733+373277244+373129530
2978+372646777+372073695+371683077+371387128+370944333+370248705+369350616
2968+368386256+367529584+366931888+366662913+366640278+366596502+366226644
2958+365436174+364416512+363474578+362796377+362349416+361965776+361483266
2948+360830512+360058822+359337297+358877908+358743073+358661839+358206164
2938+357311200+356418979+355910536+355674992+355465519+355327317+355318777
2928+355110415+354306579+353051026+351950721+351401418+351211143+350888880
2918+350165722+349235002+348548990+348303864+348136814+347566890+346684216
2908+346010563+345718224+345503544+345274665+345362113+345839207+346174593
2898+345855454+344964587+343912015+342969005+342265011+341876232+341692518
2888+341450968+341031155+340540834+340092345+339697284+339369223+339103129
2878+338737610+338063055+337109387+336155823+335482691+335223054+335263602
2868+335186430+334648340+333912616+333562754+333655479+333664054+333252641
2858+332585098+331918041+331396823+331154753+331166001+331080670+330553169
2848+329701252+329008610+328786327+328873845+328858431+328508604+327958850
2838+327476097+327149078+326896349+326646190+326328613+325791496+324929928
2828+323864963+322880364+322198865+321822862+321549513+321179794+320725195
2818+320375819+320315831+320561269+320863675+320816358+320212587+319255309
2808+318315180+317594592+317100939+316786938+316588747+316367645+315940679
2798+315297090+314725466+314480028+314345957+313866953+313002053+312180443
2788+311704112+311454821+311194524+310851466+310472443+310079638+309616187
2778+308990129+308202332+307405474+306745811+306204701+305694766+305205036
2768+304720790+304161316+303573654+303181994+303024907+302766624+302112863
2758+301206200+300402364+299868996+299548364+299286992+298905018+298336171
2748+297736427+297298353+296985116+296587034+295992011+295267882+294518619
2738+293788588+293105145+292507623+292004597+291574125+291225166+290976030
2728+290750172+290407808+289935487+289469155+289057360+288576725+288011246
2718+287591484+287433720+287243566+286656597+285736968+284882014+284349149
2708+284090675+283950356+283829216+283700630+283592873+283529674+283407892
2698+282996202+282195751+281271730+280625190+280319399+280049018+279599141
2688+279099603+278789021+278716588+278716501+278586648+278280718+277916518
2678+277606266+277369472+277179492+276954432+276583480+276107428+275754632
2668+275679057+275788167+275884051+275850030+275667635+275340217+274854912
2658+274243938+273639438+273169947+272831488+272535522+272230755+271930901
2648+271663036+271402757+271082126+270701697+270349005+270053612+269759850
2638+269479054+269303342+269258784+269260173+269181872+268951813+268660013
2628+268503585+268524154+268515614+268269933+267800910+267295679+266931982
2618+266731605+266565370+266328923+266081489+265959377+265998450+266093882
2608+266125769+266069078+265934695+265681880+265309262+264928624+264613842
2598+264331744+264133189+264157160+264326988+264346151+264107396+263812297
2588+263610011+263407359+263113111+262831378+262723795+262819818+263013947
2578+263168760+263206600+263144546+263048419+262972253+262959443+263024500
2568+263076209+262958801+262651622+262342776+262250502+262437410+262802460
2558+263172162+263396042+263424717+263320692+263168882+262967567+262624127
2548+262085899+261464753+260970284+260718059+260660587+260683048+260687891
2538+260607334+260426571+260207100+260022535+259852933+259596542+259207417
2528+258763996+258377683+258108083+257987603+258003624+258015757+257839368
2518+257476470+257144053+257032304+257130757+257298293+257413097+257451319
2508+257467201+257502906+257515421+257419364+257193366+256900715+256608585
2498+256347160+256159002+256111963+256220796+256397740+256501974+256430616
2488+256196981+255918893+255675364+255413419+255075638+254740009+254543225
2478+254552858+254741537+254958612+254958699+254618436+254096888+253678949
2468+253511274+253522747+253539810+253464269+253326588+253135792+252801864
2458+252336903+251975480+251898690+251975359+251954373+251792877+251633950
2448+251567938+251564120+251572156+251567296+251517688+251381690+251128233
2438+250759242+250369284+250155281+250245089+250494086+250566988+250284491
2428+249816892+249473088+249379130+249451356+249585652+249741681+249902014
2418+250059831+250212058+250337554+250436337+250529426+250549613+250378431
2408+250092046+249981946+250202580+250547877+250699567+250621370+250593389
2398+250865072+251410886+252142375+253244295+255141805+258295408+263263342
2388+270818045+281706038+296302506+314618126+336525994+361774355+389762389
2378+419475606+449790649+479785478+508707912+535928179+560964984+583082291
2368+600982124+613613820+621147278+624542725+624396017+620707086+613342207
2358+601791132+585012261+562323573+534764691+506756419+484977518+474198272
2348+475668297+487836751+506109844+523559834+535340134+541100744+542586703
2338+541919889+541195552+541706771+543373147+544993038+545122944+542925179
2328+538443590+532356239+525399058+517836578+509463008+500029366+489609286
2318+478654241+467806501+457592631+448085219+438760202+428892167+418199397
2308+406887026+395209969+383452234+372161109+361871385+352628609+344076670
2298+335926354+328134059+320714364+313598533+306750914+300303425+294428116
2288+289143333+284392925+280225233+276732548+273881526+271514315+269465150
2278+267640108+266039674+264693705+263529558+262367667+261133516+260002851
2268+259192090+258630585+258012789+257186510+256310535+255596022+255062620
2258+254595575+254121502+253669142+253301020+253029944+252803061+252528862
2248+252113526+251533154+250896108+250372287+250034697+249798718+249526949
2238+249184464+248888133+248783396+248871330+248993806+248986464+248809537
2228+248540631+248280856+248085772+247976436+247969423+248048401+248133732
2218+248135311+248035244+247913046+247900774+248081693+248405571+248730559
2208+248957234+249084865+249158774+249228431+249344588+249541980+249811876
2198+250086266+250262326+250303151+250308324+250405805+250599152+250804182
2188+250975103+251102370+251156977+251126341+251068644+251082599+251214969
2178+251383929+251430795+251302765+251129031+251059045+251098343+251157984
2168+251182354+251152343+251033217+250812704+250545274+250275257+249996666
2158+249765201+249705803+249813299+249916855+249908089+249838468+249807831
2148+249913991+250256598+250882933+251795411+253026525+254639178+256692874
2138+259212728+262121430+265268037+268613459+272289789+276415718+280961062
2128+285841548+291078562+296796021+303050284+309715508+316576250+323455599
2118+330186400+336497146+341965278+346165428+348931485+350341869+350397587
2108+348945579+345947450+341610694+336309127+330501235+324570138+318642755
2098+312637749+306493499+300342202+294497963+289227657+284537480+280268680
2088+276342468+272817585+269786841+267285160+265255626+263600655+262242170
2078+261095363+260079729+259200040+258496670+257929889+257455311+257154450
2068+257124248+257250056+257231518+256914271+256488712+256214009+256091082
2058+255991275+255900286+255825213+255696332+255525602+255456536+255592134
2048+255901900+256274379+256618027+256928123+257202045+257356737+257373921
2038+257377150+257426324+257444723+257416170+257444827+257629270+257995397
2028+258472908+258930769+259320815+259711086+260180525+260798269+261553694
2018+262159687+262212263+261720745+261179236+261017393+261233687+261544460
2008+261705331+261699464+261675458+261719200+261772991+261772679+261701252
1998+261567788+261577873+262154254+263384690+264606257+265026400+264620299
1988+263928854+263318002+262877064+262636815+262552492+262523279+262538293
1978+262641207+262810306+262979630+263101846+263244561+263679007+264605198
1968+265673201+266161039+265847906+265289873+265046518+265126346+265331410
1958+265662578+266132451+266550720+266767015+266902717+267181881+267703446
1948+268519155+269816748+271688188+273522048+274119066+273066095+271417702
1938+270369262+270107750+270238003+270508262+270855226+271230708+271577255
1928+271947477+272688739+274096588+275728682+276872243+277757626+278971954
1918+279857632+279236225+277572714+276557808+277015931+278351555+279422543
1908+279580707+279121578+278783988+278894851+279222148+279533407+279994879
1898+280929384+282208196+283202342+283781292+284746988+286392395+287469286
1888+286811654+285112142+283754561+283186321+283186668+283533840+283979378
1878+284251009+284283832+284324033+285074407+287544201+291918676+296234360
1868+297321161+294507128+290483713+287775198+286758574+286603691+286625336
1858+286654480+286775984+287030222+287339294+287797103+288813155+290786154
1848+293962408+298283681+302319593+303173419+300068054+296012354+293752900
1838+293387972+293623134+293903392+295285622+298962333+303897340+306985660
1828+306999789+305864525+304745056+302872402+300292698+298466284+298120380
1818+298589975+299127023+299937767+301678816+304188776+306131105+306333461
1808+305235030+304400402+305159802+307901522+311765732+314865577+315777864
1798+315177877+315335138+318063250+322903137+326354442+324992173+320513986
1788+317301802+317141938+318883403+320932898+322784931+324195662+324760378
1778+325127772+327168310+332274013+339516138+345006731+345304729+341718555
1768+337407072+334131636+333183523+335206808+338571462+340576625+341103502
1758+341781494+342714645+343717643+346446346+352337798+359553331+363789655
1748+363386922+360936255+359438805+360065106+362409439+364976541+366283161
1738+367293102+371055839+378216556+383594046+381912535+376290266+371206156
1728+367598008+365677446+365697268+367176146+370144454+376203512+386419327
1718+397687367+402638690+398557405+390910983+384900839+382447604+383964043
1708+388919845+395186258+400112899+404124615+410329929+419089952+425544488
1698+426388802+423261289+417045907+409717514+405520557+406078885+409863110
1688+415875858+425454089+437867530+444800896+440301012+431715920+426688223
1678+427136260+431678115+436896643+440476915+444087910+449127411+452211947
1668+449877230+445857148+445644967+449535387+453415461+454292651+454290429
1658+457478000+466574103+482352962+499653398+505121357+500075677+498685740
1648+503641646+507848983+504990341+499118989+496669051+499497422+507420108
1638+519778733+533298277+540473297+538631435+535443829+537245317+544400828
1628+554188844+564482699+575488672+587036309+596853764+604479981+613192375
1618+625150106+636996192+643457081+646236121+650242143+656368931+662336584
1608+666406829+669181842+671997125+674898433+676929910+677864866+678760108
1598+680852893+684588065+689419759+694221251+698316908+701956127+705537996
1588+709064320+712446923+715588253+718211768+720377108+723249671+728696176
1578+737331848+746036743+749877589+750767554+755412756+765798642+777337705
1568+784480961+788522601+794071377+803081420+816323484+835679282+859550169
1558+874788994+874741295+870266684+867416686+866040497+865106374+863728032
1548+862487928+863884738+869407200+877599486+885386158+887770970+878967969
1538+864162253+854294947+851359618+850084520+844886439+837351038+833121796
1528+833978225+837584881+841894316+847233619+852646797+854426171+851658101
1518+847013732+841471482+835400586+831342213+832095121+838588782+849768749
1508+860939897+861685932+848821503+835117517+828438892+827933019+830789057
1498+833724872+833218235+828939766+825209176+825916052+830641447+834679616
1488+833423056+827860533+822258503+819051283+817948305+817814095+818678370
1478+821545726+826624108+832538229+836435453+835029895+828810764+822995304
1468+821420542+823558944+825732824+824943881+823216788+825185917+832783390
1458+842159056+844207336+836594519+827198093+820887105+817999822+817610732
1448+817759592+816377362+813586935+811170464+810340904+811539003+814859395
1438+819073432+820969172+818763979+815372489+814091837+814816278+815260011
1428+814249028+812892418+812247267+812371479+813872991+817544148+821226691
1418+820215986+814319639+808465923+805576905+804756787+803954652+802715867
1408+802281369+803196606+804097125+803838495+803603541+804973967+807487711
1398+809669924+810993623+811033407+808748507+804849269+802101543+802008922
1388+803288186+803764342+803285894+803644852+805947249+809535158+813289910
1378+817344673+822666063+828694814+832836157+833810689+833537964+833941705
1368+834906655+836202513+838647937+842195021+844743759+844454579+842174331
1358+839997743+838868380+838442075+838216147+838107140+838165323+838320224
1348+838567397+839050567+839964416+841655405+844424238+847817463+850636495
1338+852211535+853022904+853641394+854050897+854228779+854510321+855190674
1328+856307817+857929097+860271903+863424967+867155904+871062501+874723868
1318+877774938+880276393+882848807+885959865+889365588+892585931+895475921
1308+898158591+900997411+904451388+908319937+911565136+913431437+914186915
1298+914413606+914334039+913999868+913485802+912821210+912020741+911150842
1288+910166729+908894477+907363943+905907145+904812845+904010085+903203924
1278+902217519+901084060+899936507+898943993+898409236+898847345+900495217
1268+902702355+904548800+906025108+907642847+909215526+910278651+911129804
1258+912204733+913319376+914403539+915898247+917890704+919718125+920684741
1248+920718485+920288360+919781446+919046173+917739484+915882555+913844898
1238+912131067+911229090+911189723+911441202+911479250+911394752+911264639
1228+910635248+909321547+908194614+908200794+908967727+909255032+908645637
1218+908006457+908268072+909528381+911294147+912946949+913926757+913984524
1208+913460529+913124414+913660906+915384667+918392967+922543475+927054259
1198+930542674+931923238+931595594+931451108+933029619+935821503+938091545
1188+939456834+941127688+943425780+945277640+946448731+948092020+950759554
1178+953470413+954998170+955240483+955227430+955848767+956791083+957264810
1168+957546074+958700501+960917012+963166781+964587822+965487091+966718933
1158+968829007+971794121+974806726+976572839+976768079+976834871+978316665
1148+981114451+984179060+986526171+987186042+985992039+984484001+984428873
1138+985851719+987930827+990650503+993711432+995258005+993947081+991036191
1128+988910774+989317847+992621437+997260530+1001007367+1003217837+1004887510
1118+1006496432+1007610381+1008733494+1011396446+1016045259+1021041226
1110+1024023838+1024024671+1022626889+1022366453+1023474153+1024077647
1101+1023849150+1024708495+1027058105+1028385693+1027111984+1025388918
1093+1026230003+1029541578+1032061710+1031159664+1028058049+1026136827
1084+1026912648+1029289127+1032210986+1035987331+1041177913+1047349415
1075+1052849173+1056255729+1058012607+1059491277+1060054916+1057414391
1067+1052091543+1048009425+1047731979+1049427064+1049768247+1048888975
1058+1050180111+1055996821+1064806140+1072086313+1073741823+1069134599
1050+1061767776+1056539562+1055455607+1056760352+1057244424+1055177259
1041+1052348715+1051890749+1054291599+1056974269+1057229983+1054532316
1033+1050368130+1047167923+1047370661+1051061397+1054585222+1054348879
1024+1051394041+1049233283+1048575633+1047922914+1047469322+1048893627
1015+1052164237+1055012014+1055729859+1054792682+1053039413+1050372157
1007+1046944564+1044201489+1043571057+1044791859+1046126946+1046579982
998+1046744464+1047136123+1047439744+1047011425+1045234967+1042260271
990+1039738681+1039403608+1040894427+1041959705+1040919283+1037923619
981+1034013828+1030362876+1028132548+1027102194+1025490634+1022572732
973+1019952759+1019005375+1018451316+1016471495+1014240126+1014532985
964+1017554061+1020627696+1021439412+1019439942+1014829663+1008652330
955+1002801530+998340041+994912378+992198464+990547745+989787408+988590836
945+985800410+981745370+977682970+974469084+972312284+971562153+972705054
935+975385086+978402620+980881997+982699350+983520022+982261866+978431434
925+973572246+970057447+968543923+967763798+966593263+964982398+963050553
915+960962698+959638929+960080509+961969376+963967457+965030583+964853117
905+963665641+962070537+960706428+959869786+959677602+960086202+960487513
895+960121334+959121738+958182269+957390271+956433583+955385455+954291433
885+952871016+951330137+950709078+951672917+953345229+954283865+954239915
875+953860753+953150267+951754012+950156894+949027115+947940453+945971116
865+943310108+941487409+941996268+944715736+947879006+950168836+951814903
855+952661335+951309447+947856719+944825090+943836047+943770365+942961149
845+941382846+939808362+938394472+937057512+936443048+937792229+941196702
835+944246522+944262283+941954887+940753247+942626770+946137819+948635109
825+949222841+948706275+947946493+947862065+949451199+952333760+954752107
815+955706226+955790515+955975548+956610354+957347363+957655150+957344100
805+956534744+955456275+954775158+955098150+955692270+955104468+953440072
795+952557536+953602818+955912366+957966895+958666550+958236495+957848446
785+957839420+956901895+953937335+950390599+949371978+952238223+957156706
776+961227299+963011672+962882739+962137329+961575703+960317130+957561002
766+955505293+957261408+961604794+962904054+958220109+951870726+949863688
756+952985299+957396173+959854095+959965948+958652941+957662440+959277680
746+963696260+967844199+968624255+965510628+960237353+955890912+955008376
736+957360902+960141747+961511132+962724298+965139728+967099970+965677887
726+961262084+957904546+958286624+960793772+962139065+961545362+960826752
716+960553542+958515607+953471871+948028074+944959230+943665733+942823051
706+943443693+946441024+949809254+950600419+948263445+944849529+942955455
696+943759256+946129765+947807076+947996831+947788121+947908723+948022312
686+947183934+944040313+938911593+934315270+932703155+934205569+935946965
676+934288817+929187801+924497329+922790371+923055944+922971933+921906238
666+920154775+917722543+914952321+912082951+909479849+907712764+907971464
656+909800897+909956978+906692130+902477399+900434812+900431063+900298520
646+899063761+897810117+898353483+900498828+900911733+897091091+891812471
636+889036694+888256222+886952518+883994208+879835369+876085616+873778150
626+872559083+872056265+873512925+878045094+882789860+881617034+872669409
616+861445562+853572310+849678280+848362149+850158186+855615938+862185487
606+865468664+863964097+861290176+861240880+862664004
##END=
