##TITLE=<SNM>
##JCAMP-DX=4.24
##DATA TYPE=INFRARED SPECTRUM
##DATE=3/5/2025
##SAMPLING PROCEDURE=Instrument type and / or accessory
##ORIGIN=Admin
##XUNITS=1/CM
##YUNITS=ABSORBANCE
##RESOLUTION=4
##FIRSTX=4497.3318
##LASTX=599.83466
##DELTAX=-1.4281778
##MAXY=1.7165513
##MINY=0.18039016
##XFACTOR=1
##YFACTOR=1.598663e-09
##NPOINTS=2730
##FIRSTY=0.19744712
##XYDATA=(X++(Y..Y))
4497+123507658+124017853+124978067+125998923+126642399+126597752+125993592
4487+125331333+125009908+125108412+125563977+126255568+126889425+127065732
4477+126672255+126105667+125911371+126295415+127070048+127863639+128295537
4467+128158518+127524783+126658832+125917802+125582926+125480526+125056317
4457+124219392+123684058+124012895+124779809+125178944+125009572+124679990
4447+124602570+124811957+124886814+124318381+123334176+122896330+123402722
4437+124101705+124243646+123876081+123205452+122282402+121464958+121163479
4427+121143085+120910330+120540956+120376142+120224965+119619639+118668392
4417+118015129+117988835+118258408+118349735+118147599+117806646+117422229
4407+116974102+116580886+116575517+117103021+117813040+118174295+117953610
4397+117255886+116347805+115594704+115343037+115679348+116300640+116703970
4387+116625860+116229204+115704580+115031687+114372253+114149686+114431096
4377+114763148+114827454+114776906+114828023+114947602+114999520+114928885
4367+114780588+114615028+114372327+113892053+113218106+112838144+113317487
4357+114595696+115964459+116849797+117227541+117218835+116825423+116220852
4347+115802292+115780099+116009769+116225774+116255750+116083712+115824886
4337+115619759+115569528+115714740+115920986+115881139+115495510+115158453
4327+115356133+116006795+116449105+116143646+115264665+114499699+114304601
4317+114526730+114796993+115001897+115199055+115359768+115459288+115604547
4307+115872507+116245050+116757249+117406318+117950087+118120335+117953312
4297+117636920+117236964+116838193+116701211+117041055+117849523+118991263
4287+120166345+120831371+120574251+119586289+118427304+117437105+116769590
4277+116784429+117722039+119012385+119658266+119399486+118780096+118152651
4267+117524862+117236489+117755241+118826934+119682724+120062667+120337283
4257+120734153+121070306+121134034+120929158+120708166+120933856+121833306
4247+122897272+123320259+122976901+122417985+122064019+121972468+122068055
4237+122076808+121697387+121154997+120988934+121231215+121479163+121613339
4227+121775450+121957937+122143640+122439684+122747604+122761194+122510338
4217+122467899+122970488+123838480+124607305+124930931+124781449+124405859
4207+124102852+123994234+124055426+124290362+124688929+125085389+125263178
4197+125134949+124711868+124159654+123985137+124697234+126062325+127112318
4187+127115413+126263015+125331156+124932413+125159351+125767939+126515857
4177+127233669+127763074+128092218+128441914+129000131+129663760+130156142
4167+130321106+130253202+130137416+129964046+129602250+129234695+129287489
4157+129699981+129809233+129266740+128546431+128300440+128637283+129158179
4147+129439673+129440167+129497156+129861803+130321525+130450108+130146020
4137+129781773+129842164+130440349+131196153+131665998+131836805+132005879
4127+132269850+132398173+132160207+131610193+131095151+131004364+131413146
4117+132018546+132513082+132834648+132952139+132741167+132282443+131973479
4107+132142982+132740291+133481247+134092202+134344531+134051832+133255529
4097+132401780+132080885+132478063+133247699+133945582+134372037+134523280
4087+134461808+134251675+133905865+133480035+133220603+133370354+133818117
4077+134238905+134545408+134829065+134952354+134694833+134230041+134008928
4067+134246604+134819493+135484146+135949992+136002320+135812964+135867370
4057+136387026+137054812+137451775+137571420+137672441+137774347+137678248
4047+137440394+137372780+137540576+137720770+137830665+137877540+137646445
4037+137009120+136401259+136489902+137425322+138691088+139589466+139743505
4027+139294148+138774474+138695898+139127265+139684438+139955055+139914434
4017+139881344+140025950+140037415+139496507+138530347+137794891+137768624
4007+138325853+139009932+139507982+139849103+140225672+140648743+140926118
3997+141022432+141129148+141294196+141343961+141240180+141152619+141156021
3987+141162499+141137370+141134461+141157000+141176248+141274827+141634869
3977+142295291+142989371+143358884+143346972+143277409+143477727+143899158
3967+144289131+144675366+145284242+145961731+146222197+145971238+145609863
3957+145369446+145115784+144839462+144958128+145993152+147823343+149283349
3947+149190969+147907586+146871341+146652558+146519706+145930198+145330074
3937+145322971+146090864+147584110+149420564+150603447+150309127+149166091
3927+148782923+149892198+151539986+152395282+152487010+152771851+153419820
3917+153433662+152061347+149963877+148409737+147944013+148373357+149717242
3907+152538667+157000283+161908729+165309743+166158329+164454578+160552186
3897+155888509+152986803+153450551+156299202+158333505+157664368+156638702
3887+158051674+160892571+162315181+162493623+163161883+163091939+160623156
3878+158081949+158478819+161423701+164865429+167946845+169892122+169259747
3868+167088864+166221376+167009207+167027793+164834353+162038999+161174270
3858+163971507+171225400+181307737+186882617+181700878+171749838+164144710
3848+160802660+161371652+164680519+169271287+174229302+179213771+183075653
3838+183660529+180735501+176887078+174081005+172221593+170683476+169544019
3828+169052261+169417776+171727169+177000309+183081731+185304718+183683328
3818+182258368+181124187+177569711+172423300+169110667+169611187+173880249
3808+179582286+183421575+185555640+188442414+191070493+190056739+186473462
3798+183821223+182214597+180183902+178172129+177523311+178253632+179624958
3788+181591953+184367751+187366639+190155486+193538026+197830428+201262184
3778+202375896+202680898+204728147+209677214+216944977+224514909+230475679
3768+235034867+239277700+243338344+247898911+254864096+264749237+275195223
3758+283863040+291922772+302484657+317353856+335069116+350346445+359951043
3748+367992767+378978552+391236879+398496048+400691520+404545051+414214001
3738+429818498+448494046+465405387+476460297+480854819+481015849+480535258
3728+481978897+485491316+489111412+491225791+491973336+492245099+493229809
3718+496511850+503345421+514018505+527281601+539259067+545488301+546751113
3708+548093078+552947835+561324370+570432754+576757547+579648143+581561039
3698+584474937+588703359+593962872+600132079+607181637+613988140+618032156
3688+618893306+618885364+618464204+616693584+614414707+614133362+617683065
3678+624039774+628108956+625590045+620942661+620267894+622216546+621285563
3668+617227305+614829865+616449224+620891321+625652309+629422324+632621296
3658+635491572+637979687+642107852+650788029+663557968+674920210+677607571
3648+671414166+663548945+659060690+658489275+660041112+661824781+663348581
3638+664838228+665994108+666827929+668917700+674200255+682669926+690693082
3628+693227205+691135420+689498874+691515047+697138825+702808835+703935933
3618+701672343+702216019+707468299+712713495+712883734+708180946+702339653
3608+698818024+699091093+702098350+705921682+709979380+714390308+718170986
3598+720104239+720474470+720385212+720590647+721809612+724566172+727441146
3588+726912234+721861884+716592752+715836482+720132575+726604939+731691006
3578+733213986+731167985+727204615+723834659+723266971+725902507+729366271
3568+729775873+726289292+722904347+722952070+725206264+726417474+724984051
3558+721833698+719135301+718085904+717822902+716649573+714317753+712493966
3548+712473087+713320181+713161426+711949544+711584310+713422190+716765228
3538+719780986+721713792+723464652+725681860+727392005+727409901+726349916
3528+725819736+726112193+726176769+725540330+724800390+724800688+726163570
3518+728680617+730636837+729964456+726763620+723582767+722825155+724579072
3508+726962045+727780952+726211368+723415809+721485465+721909533+724754456
3498+728160802+729120494+726421874+722117206+718928747+718211700+720803465
3488+726915589+734232810+738603918+737972997+733961009+729726062+727399835
3478+727168972+727917561+728009355+726479068+723994160+721841080+720561416
3468+720343006+721401799+723211791+724317189+723332219+720277088+716903776
3458+715357382+716577093+720083211+724661917+728781582+731009603+730700742
3448+728458926+726031062+725398352+726950562+728769129+728910287+727776031
3438+727157563+727559933+727729202+726740131+725409686+725027077+725609305
3428+726400995+727360910+728659141+729577224+729481106+728924604+728633341
3418+728359899+727791317+727285522+726984267+726465944+725682158+725432653
3408+726266996+727295812+727077029+725494992+723838089+723328192+724309285
3398+726353644+728515076+729880343+730170115+729746195+729312432+729436961
3388+729982203+730477559+731107287+732245793+732905646+731215858+726834832
3378+722175145+720433681+722331962+725497155+727103128+726688977+725751507
3368+725562924+726648412+729324662+733132333+736218932+737038361+736139144
3358+734634210+732512523+729967961+728440507+728609777+728997158+728024045
3348+726192577+725042289+725018204+725513112+726300253+727402967+727907345
3338+727194027+726869506+728736916+731697419+733463565+734210439+735185492
3328+735420456+732937860+728234923+724377142+723840624+726341788+729468504
3318+731042487+730687543+729377232+728479805+728948018+730259373+731143602
3308+731472596+731766618+731631874+730618866+729577149+729115647+727846572
3298+724363943+720097752+717865108+718668952+721641610+725860227+730560181
3288+734379560+736246969+736573503+736101934+734758068+732943080+732111943
3278+732797523+733663855+733257906+731388409+728821029+726907163+727177846
3268+729986603+733416140+734387240+731932234+728862488+728971507+733144637
3258+738327345+740435311+738276191+733712995+729125416+726397714+726940271
3248+730451162+733922755+733849977+729957820+725555542+724282291+727146676
3238+731997780+735096532+733937669+729415635+724925590+723202246+724789802
3228+728658768+732600663+733549766+730015237+724612702+721593141+722230325
3218+724592643+726982477+729187382+730724827+730432669+728000481+724653491
3208+722130628+721659134+723143114+724606513+723611849+720000068+716443989
3198+715884877+718740165+722393630+723558085+721623043+718735840+716619298
3188+715383630+715004078+715499583+716085987+716330421+717284819+719362436
3178+720768045+720044287+718317214+717306443+716983713+716352792+715204443
3168+714188005+713598395+712844660+711310794+709137133+707004112+705539222
3158+704869227+704800252+705253999+706214138+707526686+708766903+709146603
3148+708076998+706080959+704613682+704569612+705273834+705268316+703792091
3138+701461762+699496296+698071747+696330357+694536547+694340656+696002407
3128+697436725+696857032+694746158+692765256+692041796+692469146+692844447
3118+692009284+690182663+688732164+688501898+688723664+687797006+685317616
3108+682775290+681696215+682100225+683161553+684291409+685178695+685599185
3098+685554370+685119712+684206924+682730400+680920483+679384454+678603726
3088+678604621+679029808+679278940+679029734+678541462+678332671+678352059
3078+677622261+675377611+672489364+670675793+670238526+669959864+669290094
3068+668997414+669311047+669147967+667715439+665449686+663162086+661560810
3058+661386246+662793197+664770073+665942880+665743112+664553601+663078644
3048+661773926+660698877+659843804+659417126+659454186+659265976+657925689
3038+655536750+653518266+653207391+654351341+655385600+655070699+653377481
3028+650996521+648738822+647256035+646702740+646639133+646420723+645609049
3018+644247659+642992827+642566819+642815951+642716999+641449639+639253236
3008+637218943+636171335+635737274+634869450+633427825+632433683+632541210
2998+633196216+633430808+632721889+631114051+629224868+627977865+627719636
2988+627783242+627304739+626197328+624994283+624040035+623217735+622309271
2978+621234484+619948333+618561179+617611032+617732914+618944870+620552670
2968+621674659+621714963+620652629+619180617+618273123+618175700+618104450
2958+617155570+615156847+612518291+609762067+607515404+606301435+605847949
2948+605117293+603401406+601066791+599092040+598138836+598092828+598396059
2938+598651678+598789480+598827808+598614282+597846827+596508777+595118119
2928+594098064+593156679+591795401+590030075+588160466+586355060+584822387
2918+583791968+583215817+582942786+582965716+583162613+583197548+582892303
2908+582188119+580864461+578952012+577128822+575947812+574963550+573455149
2898+571686505+570576633+570402404+570537634+570264416+569325641+567881480
2888+566332216+565030666+563995400+563119821+562489609+562143762+561783411
2878+561105475+560232283+559507108+558991991+558364165+557314991+556004904
2868+554978810+554406686+553637255+552093583+550328182+549327068+549073015
2858+548759269+548090431+547389080+546713530+545787469+544577862+543346109
2848+542301447+541505320+540981964+540703377+540454655+539832459+538573227
2838+536919157+535446586+534503075+533948065+533471202+532970141+532444995
2828+531705802+530447390+528542622+526204390+524003996+522603794+522206457
2818+522386800+522601967+522567926+522065076+520882202+519145697+517333692
2808+515855043+514812693+514083976+513423638+512608944+511691831+511009607
2798+510735345+510551237+510070571+509347596+508509375+507283252+505543205
2788+503864900+502800664+502044580+501012110+499828863+499048284+498747477
2778+498468778+497767763+496471546+494707264+492969491+491851678+491420003
2768+491106519+490409195+489398760+488372367+487360850+486187186+484805177
2758+483438008+482394651+481740316+481161033+480268416+479016939+477630979
2748+476229322+474755707+473177435+471546929+469955533+468575277+467615735
2738+467060426+466575174+465932173+465365605+465190407+465205731+464779760
2728+463491931+461507152+459370141+457583788+456307517+455352262+454481679
2718+453662549+452974322+452350895+451511258+450257507+448804473+447629615
2708+446956712+446482981+445700762+444507597+443378859+442788056+442586648
2698+442204374+441337371+440161357+439015021+438114611+437442454+436760492
2688+435820150+434616807+433387067+432354634+431503066+430643743+429718875
2678+428852878+428020884+426966752+425651781+424489376+423871131+423641275
2668+423291476+422619841+421912637+421418250+420973228+420292496+419334221
2658+418248173+417215591+416361675+415606374+414720579+413691055+412775246
2648+412070950+411320311+410252644+408962914+407894390+407433224+407469650
2638+407464878+407046812+406368205+405755888+405245656+404660818+403967186
2628+403277953+402579659+401730962+400729065+399765235+399051022+398734107
2618+398814044+398968773+398695332+397833100+396733221+395779196+395000966
2608+394253495+393516986+392921410+392603154+392565907+392617620+392450997
2598+391839315+390838835+389815723+389117020+388685867+388218287+387660070
2588+387224183+386978704+386796460+386609518+386349014+385826291+385038442
2578+384366061+384115773+384086841+383910785+383595288+383363828+383142734
2568+382644954+381874517+381142481+380650108+380382110+380298743+380350792
2558+380404033+380353551+380237485+380134954+380021760+379763493+379232307
2548+378473390+377746836+377305094+377159724+377183697+377337531+377594344
2538+377761526+377654931+377386150+377213152+377164384+377040750+376730771
2528+376369712+376227324+376466576+376920994+377149135+376873680+376321317
2518+375953808+375921967+375949744+375704229+375139151+374513338+374153100
2508+374135688+374189042+373986328+373498988+372961874+372604022+372513906
2498+372620278+372726985+372684033+372543211+372441202+372356195+372123393
2488+371715729+371365072+371267612+371273540+371077090+370619093+370060913
2478+369490952+368936053+368535809+368425299+368516421+368591400+368563325
2468+368524773+368561162+368617200+368568768+368316392+367779390+366979945
2458+366208053+365878835+366077112+366417478+366492121+366297647+366061415
2448+365824400+365437727+364878839+364329310+363980704+363931787+364175438
2438+364535006+364743573+364679444+364386988+363897597+363241137+362573156
2428+362087568+361859502+361860210+361993911+362084958+362014492+361892312
2418+361899843+361975604+361888732+361617603+361401542+361413435+361628341
2408+361962853+362264257+362252550+361806484+361235068+360989776+361177651
2398+361522789+361715212+361700336+361651755+361679308+361663350+361490576
2388+361263628+361037053+360542144+359420640+357554274+355030255+352025085
2378+348802065+345554996+342211772+338684775+335287526+332483019+330230502
2368+328113812+326178657+325016849+324918829+325605750+326873036+328896479
2358+331871859+335766104+340510389+346312385+353304152+360582672+366310771
2348+369021658+368637744+366587605+364607523+362980447+360703025+357149481
2338+352745264+348335791+344381257+340857839+337763448+335396134+334022925
2328+333481337+333284663+333102158+333026173+333287646+333881618+334680019
2318+335650523+336710733+337665503+338482509+339366141+340471986+341749412
2308+343009017+343977396+344444341+344530132+344656935+345106730+345732058
2298+346240874+346640484+347174318+347851210+348305367+348220807+347728321
2288+347294633+347292247+347685072+348111751+348291646+348267859+348188705
2278+348025475+347675154+347219021+346909563+346918922+347157540+347361036
2268+347363199+347230467+347100943+347002885+346890399+346758377+346667478
2258+346675643+346728959+346667515+346436130+346211680+346182263+346298962
2248+346378415+346360705+346370063+346580010+347030066+347526242+347791033
2238+347781973+347754756+347930550+348228562+348428516+348472064+348472698
2228+348529258+348657813+348825293+348948218+348972043+349035500+349402450
2218+350124829+350912082+351430293+351621896+351673758+351797914+352091265
2208+352486923+352799028+352926726+353052373+353524799+354495751+355721390
2198+356730185+357190904+357181881+357110407+357334373+357884126+358548826
2188+359131576+359588381+360020652+360564589+361226754+361847571+362284689
2178+362593513+362988314+363628146+364425950+365098293+365484295+365779510
2168+366343432+367311922+368530179+369859318+371396950+373319838+375643940
2158+378273995+381184463+384402562+387891716+391543019+395197938+398675907
2148+401859443+404711226+407233530+409563709+412002609+414722183+417586903
2138+420425003+423248413+426116788+429080535+432311310+436000568+440056552
2128+444107539+447908388+451589592+455307931+458735268+461178717+462219799
2118+462001799+460951396+459452539+457683448+455575966+453037556+450277007
2108+447736658+445676676+444041621+442788653+442032905+441615323+440799250
2098+438837885+435738051+432051739+428046349+423519878+418366066+412908164
2088+407612448+402753142+398428415+394678347+391455140+388609695+386004435
2078+383589099+381383597+379467980+377939706+376795458+375926479+375262599
2068+374777533+374335717+373733468+372949384+372186925+371619909+371252139
2058+371026421+370880529+370692058+370373727+370032018+369846083+369821885
2048+369861183+370018820+370488599+371350830+372492058+373813815+375439959
2038+377650717+380640750+384385635+388692205+393298166+397909607+402148768
2028+405518464+407578371+408204631+407572293+405972844+403762944+401245300
2018+398423680+395131535+391511215+388054499+385109021+382636901+380451421
2008+378446508+376581634+374809001+373077343+371385541+369796980+368341186
1998+366982331+365830179+365201384+365161639+365170214+364571731+363330917
1988+361916397+360714881+359866333+359353118+359014579+358670298+358293841
1978+357936324+357562253+357081736+356484557+355946250+355811841+356254142
1968+356879284+357012015+356514273+355890324+355485456+355113585+354587022
1958+354105461+353880378+353748317+353424319+352939253+352619878+352720769
1948+353259523+354205793+355499438+356629779+356643648+355217719+353286070
1938+351977138+351533570+351547850+351642588+351652543+351531706+351357291
1928+351387901+352010209+353333159+354782838+355654316+356091322+356595254
1918+356786633+355920226+354400938+353411829+353447510+354055613+354504214
1908+354357390+353691422+352907972+352311763+351954432+351826250+352021730
1898+352652129+353528863+354112769+354239013+354556748+355458164+356086102
1888+355452460+354001252+352859950+352369292+352174595+352041341+352051893
1878+352289728+352604368+352813196+353281670+354954830+358207528+361573831
1868+362460222+360136754+356623589+354044614+352942982+352796754+352948873
1858+353016991+352949879+352879711+352898800+353112885+353770949+355147364
1848+357477133+360730429+363715689+364152509+361570476+358421688+356798713
1838+356649204+356894906+357159883+358338022+361288906+365031257+367122109
1828+366811906+365750727+364823957+363366784+361375666+359955479+359650123
1818+359974308+360438606+361252592+362853234+365003033+366659377+367022598
1808+366484664+366133821+366822495+368852761+371787836+374375052+375459198
1798+375379820+375842627+378300802+382414054+385444726+384692707+381462006
1788+379305198+379782173+381973804+384514414+386986683+389192445+390653570
1778+391736150+394020209+398795439+405324661+410383138+411222664+408982712
1768+406222312+404344687+404407622+406958113+410653895+413234064+414529051
1758+415819266+417179426+418514680+421275266+426674520+433174399+437265094
1748+437621082+436293509+435662178+436705274+439163002+441865276+443646037
1738+445342238+449471709+456541885+462201754+461973613+458409033+455401179
1728+453857768+453869997+455490325+458262469+462325239+469212238+479850350
1718+491336748+497117157+494987342+489944263+486658195+486715911+490114688
1708+496053069+502802677+508601243+514059816+521546231+530941590+537991633
1698+540405813+540227670+538266156+535469702+534846014+537833213+543346519
1688+550748150+561502103+575275916+584781785+584234678+579770323+578361022
1678+581848648+589044732+596942987+603224046+609025408+615963152+622035867
1668+624338531+625015013+628254736+634523753+640527083+643824709+646333329
1658+651526178+661561854+676861069+692988438+699260288+696881565+697159107
1648+702216466+706517332+705461447+702261580+701519105+704260826+710261099
1638+719038959+727490584+729298786+723614981+717483394+715259176+716319982
1628+718235786+719443715+719863608+719072739+716345111+713217501+712387707
1618+713794360+713578485+708751467+701878747+696395455+692811786+689934874
1608+686746192+683404794+680646594+678674342+677138388+675836802+674948173
1598+674643190+674752805+674831474+674432162+673377843+671883125+670341131
1588+668899506+667488304+666319822+665839529+666220795+667660855+670849164
1578+675799518+679817248+679476322+676994770+677450381+681786293+686429352
1568+688049792+688213245+690121145+695302734+705096585+721375775+741677541
1558+753633421+753261177+751578920+753944892+759708933+767281623+775372040
1548+783808230+794174764+807787547+823364976+837705245+846067836+843040743
1538+832771520+825623197+824406543+825479056+824879231+823637000+825400835
1528+830936100+837898302+844313919+850649823+856971857+861089359+862266865
1518+862459996+862404816+861664205+861412239+864027791+870870758+881374124
1508+891944379+894716747+886820282+877642587+873748863+874919657+878966618
1498+882967347+883844566+881519756+879803422+881923766+887517493+892757693
1488+893482048+889687053+884886059+882171631+882285421+884199809+886986121
1478+890647117+895304195+900622169+905260753+906347807+902809103+898442767
1468+897448326+900412558+904336556+905611671+904805739+905692801+910197237
1458+915741302+916364394+911137541+905667000+902854366+901883862+901135198
1448+899702446+897796037+896198937+895426486+895694708+897422749+900931105
1438+905123846+906999011+905043984+902302040+902101601+904314037+906393369
1428+906610287+905656263+904810884+904708427+906017545+909148213+912500945
1418+913009499+910410204+907314658+904981570+902877705+900798150+899627356
1408+899947775+900820893+900871227+900507334+901514526+904222541+906869411
1398+907804197+906928618+904374437+899889015+894543823+890601258+888910202
1388+887727925+884789270+880747827+878580505+879941074+884197124+889898901
1378+896029519+902033520+906920863+909216890+909000195+908540557+909459759
1368+911231199+913063785+915284423+917947251+919740987+919540175+918111450
1358+917222747+917910563+919986838+922743547+925672806+928229747+929633790
1348+929652730+929091531+929032622+929969943+931712898+933696187+935451222
1338+936931697+938211435+939116916+939498928+939547174+939584682+939798469
1328+940371525+941603837+943460360+945253723+946488869+947758988+949809238
1318+952012353+953011566+952637756+951915937+951569642+951549360+951602527
1308+951559128+951279423+950672737+949572559+947821849+945937438+944992809
1298+945373032+946353379+947152600+947614699+947520370+946235412+943609421
1288+940495830+937849854+935819365+934100719+932601303+931168551+929192645
1278+926220435+922767931+919880057+917859559+915955537+913372497+910315726
1268+907741784+906233942+905484980+904742654+903393344+901236685+898539258
1258+895715587+892824954+889584447+885862156+881978797+878654103+876629579
1248+875968011+875942732+876076656+876748440+878161506+879483301+879823853
1238+879394266+878927545+878674684+878686093+879349600+880912100+882958100
1228+884817233+886087053+886688221+887015277+887913450+889864898+892454499
1218+895036719+897296058+898946251+899980138+901327956+904078923+907972199
1208+911502329+913465558+913851970+913474059+913368321+914505932+917366291
1198+921220717+924350788+925967872+927392869+930273286+934430981+938258861
1188+940519468+941320180+941730976+942648164+944156528+946072406+948534273
1178+951483591+954112788+955538083+955725249+955482157+955890343+957546948
1168+959855130+961538654+962480226+964239810+967870531+972065659+974625135
1158+975393485+976245500+978239974+980408265+981429401+981516497+982344054
1148+985248780+989654712+993594742+995744317+996329901+996433029+997221810
1138+999295773+1002002074+1004008851+1004985544+1005557333+1005588055
1130+1004439482+1003067130+1003542427+1006230534+1009329435+1011651636
1121+1014161748+1017755260+1021147214+1022345002+1021655918+1021494329
1113+1023061602+1025113716+1026316202+1027118406+1028550039+1030505662
1104+1032122672+1032540477+1031108247+1028288603+1026127395+1026375111
1095+1028324023+1029817249+1030174431+1030811764+1033043141+1036313848
1087+1038715165+1038799501+1036857673+1034930460+1035304270+1038450000
1078+1042840348+1046734668+1049609940+1051447447+1051997163+1051553408
1070+1051274524+1052296256+1054843876+1058118684+1060689271+1061101185
1061+1058972862+1056141286+1055633403+1058243735+1061157335+1061635316
1053+1060822300+1060890008+1061366722+1061223327+1061570666+1063738137
1044+1067088035+1070358742+1072803831+1073741823+1073215223+1072392587
1035+1071940556+1070938360+1067930953+1063059791+1058868019+1058351113
1027+1062028961+1067375570+1071075864+1070913827+1066670230+1060673537
1018+1056304143+1055055351+1055614985+1056014073+1055892825+1056015192
1010+1056416145+1056418307+1056053072+1055831530+1055231928+1053147377
1001+1049613892+1045750294+1042842510+1042074309+1043700789+1046185697
993+1047375580+1046426925+1043764172+1040101610+1036393412+1033815443
984+1033180868+1034455610+1036352548+1036351057+1032463448+1025622047
975+1019004947+1014717280+1012415810+1011112807+1010765916+1011427931
967+1012065489+1010975005+1006934307+1000228397+992835564+986920150+982789971
957+978960675+974374810+969724817+966247034+964001192+961854152+958981639
947+956042686+954542748+955151895+956917817+957935299+956767115+953675297
937+950670649+949685455+950651038+952225320+953966262+956287791+958708048
927+959927312+959551861+958218956+956255801+953772683+951590447+950703981
917+951174879+952322930+953474187+953959700+953117304+951010680+948836572
907+947802312+947561308+946603779+944339816+941658123+939290585+937249730
897+936056640+936655348+938676964+940487180+941230027+941239274+940671885
887+939423391+937833002+936517993+935721009+935127894+934538359+934298026
877+934564085+934368791+932400566+928805860+925228902+923169331+923082981
867+924488441+926233931+927376240+928072632+928858953+929734010+930711672
857+931976273+932953861+932769827+931682698+930746272+930571708+931289575
847+932561409+933151988+932086410+930198867+929032547+928895118+929077288
837+929172064+929583382+931149536+933872316+936011452+935799380+933391427
827+930026764+926728691+924443700+924157060+926320132+930532336+935537199
817+939577821+941651039+942405743+943195643+944711687+946791541+948611898
807+948752012+946136908+941680568+938377648+938763016+942051320+944660235
797+944401782+942867394+942649730+944151755+945822454+945819471+943701588
787+941520097+942039091+945194889+947710071+947479656+946350545+946797730
777+948331149+948785418+947396512+945154398+943164175+941644328+939995701
767+937871330+936202719+936075730+937078298+937990863+938648703+939846341
757+941565733+942639141+942397317+941866914+942835553+945606579+948033622
747+947574134+944379188+941471106+941488033+944307379+947767190+949772998
737+949863002+949151995+948896077+949188608+949228353+948636207+947915656
727+947504263+946706683+944243027+940211352+936480038+934510992+933982901
717+934108474+935001129+936628354+937931507+938189811+937668729+936690693
707+935736221+935938375+937759403+939730537+939962668+938139552+935145045
697+931885822+929142386+927022937+924474497+920810219+916749538+913120755
687+910262484+908745322+908937185+909662509+908640852+905101849+900965332
677+898894277+899480904+900742820+900055675+896004240+889673481+885797878
667+887529723+889254259+886177877+880652380+876487676+873657294+869624874
657+864339411+860652241+860400723+862381028+864162610+864728284+865003142
647+865404318+864696145+862052258+857902243+853224958+849458075+848122709
637+850285036+855170217+859442448+859611419+855433964+849618098+844976084
627+843171610+844829259+848954517+852676733+853047039+849030800+841343200
617+831694756+822576940+816271907+813503417+813615940+816086158+821664972
607+830258798+838601032+843005621+843065723+840183889+835060090
##END=
