##TITLE=<SNM>
##JCAMP-DX=4.24
##DATA TYPE=INFRARED SPECTRUM
##DATE=3/5/2025
##SAMPLING PROCEDURE=Instrument type and / or accessory
##ORIGIN=Admin
##XUNITS=1/CM
##YUNITS=ABSORBANCE
##RESOLUTION=4
##FIRSTX=4497.3318
##LASTX=599.83466
##DELTAX=-1.4281778
##MAXY=1.7145997
##MINY=0.18228009
##XFACTOR=1
##YFACTOR=1.5968454e-09
##NPOINTS=2730
##FIRSTY=0.20209245
##XYDATA=(X++(Y..Y))
4497+126557304+126722316+127163057+127098221+126642148+126252478+126098030
4487+126172319+126465948+127016728+127882806+128815921+129203968+128801784
4477+128133602+127745248+127551860+127306671+127201019+127541623+128157314
4467+128567075+128620237+128557062+128490724+128269993+127804756+127145122
4457+126401186+125822448+125647583+125813079+126186904+126791164+127351948
4447+127295333+126668668+126138473+125790917+125037024+123813667+122747902
4437+122157173+121916473+122063558+122598718+123022271+122863073+122339466
4427+121925833+121684750+121423950+121094096+120720579+120198484+119386791
4417+118440770+117948116+118413410+119540147+120459788+120750580+120673258
4407+120396482+119768053+118980688+118678064+119148275+119899144+120183581
4397+119692551+118677858+117618458+116923130+116853302+117427141+118264551
4387+118774086+118688720+118251347+117794387+117423968+117146539+116909226
4377+116527180+115912254+115260478+114819922+114726802+115066333+115658929
4367+115958306+115703459+115389217+115517667+115754186+115448370+114669861
4357+114150117+114437317+115518021+116976265+118155791+118490535+118001689
4347+117210311+116503646+116025064+116015154+116536213+117004904+116809705
4337+116287572+116324665+117101029+117874611+117949534+117392045+116823581
4327+116819419+117435278+118123401+118245571+117809187+117440317+117474051
4317+117541677+117343100+117186870+117342699+117539951+117584883+117786287
4307+118311825+118806747+119009682+119124890+119366224+119630851+119689276
4297+119354382+118589749+117680093+117139801+117385624+118526350+120204643
4287+121573200+121849276+121013751+119727116+118691735+118279622+118494445
4277+119084652+119765534+120305770+120528637+120499326+120527396+120739279
4267+120876454+120741584+120583031+120772593+121294091+121804186+122078106
4257+122154766+122155979+122220684+122473692+122844382+123168786+123506853
4247+123913487+124067440+123741020+123319072+123278620+123545122+123793865
4237+123927093+123963346+123871486+123659219+123406286+123242170+123303078
4227+123565082+123802581+123800276+123552298+123334637+123555284+124264002
4217+124911673+125016411+124828061+124868850+125179649+125465112+125598293
4207+125640976+125723552+126086869+126863606+127759302+128310315+128397631
4197+128194062+127796824+127275317+126845148+126654260+126573775+126422724
4187+126209104+125994206+125780363+125612804+125554565+125646967+126064763
4177+126997309+128228244+129190493+129543387+129471328+129462407+129917594
4167+130805909+131649254+131995056+131808256+131339090+130896024+130757972
4157+130918084+130945109+130505617+129926926+129822552+130295198+130930831
4147+131426546+131747936+131808125+131527122+131121448+130894475+130878322
4137+131003329+131352387+131963217+132640170+133188394+133651196+134156382
4127+134646096+134894327+134754576+134294630+133717264+133260285+133126366
4117+133355262+133800483+134307638+134821045+135285602+135640707+135926040
4107+136177957+136244482+135964123+135527813+135355822+135596933+136010977
4097+136268259+136153051+135628772+134929544+134425608+134299034+134540061
4087+135125723+135908142+136554292+136859035+136904060+136853856+136831068
4077+136878986+136851980+136593046+136313695+136416473+136864904+137131425
4067+136880245+136377794+136163222+136577565+137582525+138726358+139354311
4057+139218592+138803447+138725462+138997414+139205444+139191325+139191166
4047+139414099+139757894+139907611+139623211+138986356+138376450+138112095
4037+138119933+138123815+138175624+138735344+140084940+141822479+143095686
4027+143370390+142940006+142552874+142526018+142537981+142379969+142378354
4017+142814813+143337580+143265232+142366046+141177356+140474908+140473490
4007+140748661+140945978+141253156+142069039+143419717+144756444+145310248
3997+144763835+143613218+142761707+142718333+143218919+143630397+143717022
3987+143845528+144316057+144806518+144760279+144077568+143220757+142867443
3977+143460179+144768090+145939591+146287353+145906567+145349226+144978126
3967+144881758+145173064+145974576+147060749+147839706+147874858+147244908
3957+146363611+145753631+145935849+147145032+149030543+150655719+150997052
3947+149986903+148912824+149017982+149986063+150541388+150279599+149922422
3937+150100945+150900049+152130256+153233431+153258207+151853135+150158605
3927+149777632+151011208+152613914+153377764+153525334+153981949+154961527
3917+155657675+154986144+152796693+150250018+148743175+148791802+150240024
3907+153136914+157552154+162481341+165908455+166710097+165390774+162686805
3897+159318835+156788118+156578436+158393008+159852921+159320272+158592723
3887+159940303+162473857+163793461+164049521+164639690+164349383+161741064
3878+159126865+159418422+162256001+165521435+168140355+169374201+168252242
3868+166139450+165666393+166839098+167148516+165284001+162746919+161702393
3858+163721421+169812470+178798022+184083734+180018561+171817538+165664116
3848+163059771+163499739+165986691+169396019+173033654+176751671+179792586
3838+180470865+178586810+176180912+174590785+173461341+172379470+171674503
3828+171398679+171387947+172819848+177250559+182997850+185286468+183428467
3818+181295948+179757630+176680378+172258550+169227471+169583902+173384747
3808+178378080+181736494+183928250+187083459+190044215+189769175+187143405
3798+184955289+183257325+181199459+179542891+179364246+180540292+182527144
3788+185214204+188287985+190792835+192527118+194806927+198382282+201783902
3778+203428918+204278432+206598945+211737927+219346952+227304401+233256857
3768+237144337+240464361+244104777+248836022+255814378+264976428+274206039
3758+281782832+289038786+298732178+312255344+328200794+342181694+351646200
3748+359979266+370692829+382128958+389320206+392818594+398287673+408775000
3738+423685442+439977935+453549774+461991273+466283857+469211150+472889527
3728+477585760+481819332+484189788+485472961+487333612+489933403+492502921
3718+495117082+499162528+506795797+519288378+534241969+545893696+551961491
3708+555641884+560024686+566127344+573585925+580836522+585888327+587820608
3698+587840652+588891692+593222723+600348537+608024657+613965467+616003307
3688+613431064+608632407+604835705+603777648+605567304+609569749+615890021
3678+624829120+633274239+635693444+633222803+631109527+629108378+624285198
3668+618379736+615703127+617530259+621681488+625138407+627603971+631780806
3658+638647836+644883825+647661812+649270285+653578584+661005960+666944904
3648+666701162+662137998+658137045+657180218+658939490+661999890+665455502
3638+669267284+673190597+676474507+679330880+683106007+687574810+689063540
3628+685331264+680934501+680550934+685184795+693953386+703440213+707897221
3618+705694360+702434563+703599971+709444628+716344879+720622346+720406823
3608+715395143+708330507+704608906+707739330+716001848+723836157+727561416
3598+728581027+729354880+729647743+728302273+726077016+724920193+725474865
3588+726587643+727004132+726505226+725222239+723187796+720425486+716925082
3578+713305382+711347757+712367666+715661207+719789741+724325956+729311133
3568+733867578+736281558+735242836+730874815+725241276+721762745+722720842
3558+726793685+730615172+732351152+731929064+729575405+726419449+725025529
3548+727155752+731581480+734884278+734590294+731336394+727633382+725496067
3538+725397749+726076568+725574676+723962470+724091769+727731625+732609601
3528+735591167+736601222+736406228+734416726+731230685+728952351+728164836
3518+727798141+727419053+727684594+729068959+730938195+731861653+730941032
3508+728923535+728048228+730023024+734018377+737574174+738937263+737847404
3498+735598856+734686596+736600475+739607423+740095878+736816073+732644912
3488+731129605+732401319+733714988+733524623+732710382+731973259+731004263
3478+730114698+729924930+729720157+728319667+725704647+722906429+721608661
3468+723339267+727529315+731287198+732168103+730366353+727832705+726663490
3458+728149607+731725112+735308605+737347602+737746249+736843769+734491006
3448+730681687+726934480+725893295+728442247+731917792+732432300+728872771
3438+723491559+719002749+716213042+714213163+712658738+713120765+716939117
3428+722437086+726070521+726400338+725029485+723811074+723337326+723883786
3418+726008709+729461186+732376236+732781676+730749696+728252330+727462501
3408+729511427+733416824+735706804+733174276+727165457+722453957+721633222
3398+723245577+724844271+726100383+727883171+730041837+731595739+732100915
3388+731955193+731813352+732161310+733272893+735291883+737910710+740031153
3378+740518264+739411160+737566336+735210436+732211850+729245588+727283259
3368+726306649+725240604+723518658+722161392+722310399+723716862+725406408
3358+727231599+729761589+732606465+733936558+732175270+728005975+724110134
3348+722709494+723798383+725968993+728193354+730295806+732371756+734379623
3338+736324035+737897123+737850017+735066580+730293417+726005275+724336631
3328+725742944+729388175+733990308+738329961+741136988+740937889+737487203
3318+733096040+730669519+730674446+731182609+730478557+728880236+728296823
3308+730338060+734674876+739127778+741520331+741160355+738468442+734300864
3298+729868044+726404593+724929450+726243418+730265049+735124362+738077037
3288+738188494+737059516+736525076+736763667+736858775+736203918+734960200
3278+733619133+732503668+732085910+733491402+737488846+742712913+746148966
3268+746001153+743042730+739111279+735915385+734732209+735257020+735484637
3258+734522509+734097510+735406401+736714470+736021392+734076234+732978984
3248+733091187+732733226+730750517+728507643+728575876+731636723+735640438
3238+738440224+740044068+741144379+741312871+740536032+740340963+741335117
3228+741726448+740230402+738305251+737628969+737821350+737888239+737587238
3218+736713351+735106370+733562770+733036243+733016684+731902413+729024167
3208+725768699+724185011+724705790+726293435+728405368+730902063+732192963
3198+730274231+725999078+722531671+721848372+723456621+725448289+725951674
3188+724538642+722802811+722816995+724804855+726814364+726904022+725383863
3178+724227712+724310502+724256006+722558845+719755699+717359637+715865233
3168+715157448+715465765+716387282+716301580+714136195+710805328+708341332
3158+708236444+710354797+712888072+713805408+712474420+709676127+706986902
3148+706251720+707866837+709550785+708789623+706148923+704064387+703338461
3138+702912043+702103328+701333207+700959494+700489628+699479723+698605835
3128+698699972+699255913+698950881+697309934+695189341+693743686+693411554
3118+693670974+693796689+694029756+695308487+697610711+699226798+698224657
3108+694675877+690899332+689238527+689794766+690805418+691234598+691738431
3098+692710787+692890103+690929566+687612361+685165310+684586600+684780101
3088+684399669+683624025+683552283+684492537+685441974+685127237+683257254
3078+680612896+678237811+676953481+677101667+677967567+678024901+676670696
3068+674920979+673632543+672499758+671383248+670937196+671430877+672091780
3058+671916121+670687184+669178073+668355099+668507540+669228389+669801053
3048+669364258+667482331+665066037+663793577+664125633+664667241+663869126
3038+661906872+660478238+660773640+662008176+662399059+661267170+659215930
3028+656783213+654228214+652231023+651704943+652670356+653869955+653932663
3018+652758297+651406033+650757224+650661742+650339540+649384952+648212751
3008+647363125+646662507+645601763+644305787+643463477+643339030+643396439
2998+642865954+641405891+639242895+636849446+634797907+633867432+634499743
2988+635972497+636741274+635832150+633633918+631304819+629746886+629081877
2978+628848138+628633660+628394472+628204405+627937297+627221300+625837570
2968+624272694+623446024+623490368+623137035+621133573+618145811+616175009
2958+616141490+617101378+617884226+618295341+618301313+617299582+614917629
2948+611807846+609149043+607685695+607300373+607236470+606724687+605474100
2938+603721695+601999264+600739980+600041079+599906666+600497321+601772618
2928+603043249+603318345+602165778+600030105+597739191+595849425+594364055
2918+592912614+591287605+589860800+589179554+589116435+588856717+587862563
2908+586415265+585136049+584339726+583738806+582655405+580893370+579180569
2898+578170552+577555822+576917651+576647705+577042246+577259375+576177280
2888+573836946+571378361+569879068+569569370+569829498+569784930+569109619
2878+568170186+567291558+566280831+564958241+563743637+563230883+563302065
2868+563032082+561653540+559522720+557891141+557639561+558353542+558738639
2858+557899950+556034894+553874997+551894304+550348315+549541428+549414891
2848+549208849+548215479+546586065+544913204+543558812+542778165+542772081
2838+543179164+543121084+542081130+540325217+538427800+536822760+535714126
2828+534979279+534232563+533285291+532386245+531763788+531181196+530210073
2818+528739708+527074983+525693567+524869622+524381839+523731126+522764258
2808+521863085+521401766+521254476+521027382+520598426+520086381+519355453
2798+518021479+516078560+514104474+512666545+511785267+511105178+510390562
2788+509654670+508869619+507878862+506768698+505976293+505707580+505524083
2778+504767549+503159561+500937515+498710392+497108302+496294957+495910233
2768+495576012+495234922+494883643+494276303+493203502+491892446+490737415
2758+489754347+488715551+487608559+486474020+485095516+483383200+481788425
2748+480923309+480894530+481118900+480765007+479504604+477811101+476343348
2738+475228368+474212640+473249467+472493419+471798026+470702344+469083643
2728+467447175+466287478+465454948+464436494+463058438+461659478+460622398
2718+459921034+459217504+458299272+457158276+455734531+454039908+452485372
2708+451579420+451304660+451147441+450664473+449771437+448625289+447387319
2698+446027104+444422662+442732555+441450390+440894785+440790420+440578779
2688+440065876+439512361+439108227+438632576+437743123+436439569+435075398
2678+433944293+433002695+432065688+431141745+430408765+429940168+429592285
2668+429109616+428325573+427352807+426496911+425872438+425243860+424341380
2658+423165708+421912582+420754192+419768063+418993165+418463390+418135402
2648+417824398+417324484+416590309+415724671+414856158+414100072+413500273
2638+412932985+412214375+411356463+410558497+409911741+409286895+408584560
2628+407971099+407735681+407896670+408056017+407756509+406922859+405821727
2618+404687823+403597852+402630909+401903042+401405032+400954389+400343093
2608+399490631+398513610+397708328+397328830+397267614+397099048+396582785
2598+395956110+395528647+395176099+394540652+393628019+392853756+392503447
2588+392458170+392424464+392166538+391602758+390890270+390286813+389823516
2578+389316287+388724587+388242030+388027589+388030314+388024529+387763579
2568+387238880+386727993+386439534+386282352+386102699+385881726+385605585
2558+385241988+384897016+384732556+384732817+384746516+384695976+384578211
2548+384360037+384025890+383644936+383306721+383075707+383002211+383017254
2538+382854921+382320891+381622064+381180044+381124688+381206471+381193668
2528+381121180+381122337+381200387+381275338+381364063+381544276+381728109
2518+381667154+381280527+380797223+380459754+380251472+380018182+379729648
2508+379518529+379490833+379563097+379553131+379392440+379101331+378611607
2498+377884786+377180547+376885257+377037176+377260762+377195776+376825273
2488+376380267+376046717+375823691+375619292+375377341+375101386+374874479
2478+374850776+375071264+375308101+375264242+374903444+374422194+373948483
2468+373450286+372928313+372531457+372422464+372596555+372881916+373103112
2458+373235174+373351595+373391198+373140663+372575540+372011984+371737821
2448+371702137+371709117+371667871+371513900+371126077+370468384+369680646
2438+368955467+368395719+368007299+367767365+367651727+367615334+367582636
2428+367475023+367264875+367026807+366891648+366902995+366988771+367120758
2418+367364798+367677594+367814359+367598201+367193395+366955289+367040506
2408+367278611+367415898+367372488+367246212+367179398+367248004+367379206
2398+367373495+367098735+366662015+366337536+366337349+366637566+366945846
2388+366862757+366195994+365124163+363935352+362603318+360750469+358071621
2378+354691445+351037741+347466043+344148427+341231921+338783676+336504073
2368+333900437+331024543+328670958+327601143+327963136+329545891+332189354
2358+335846305+340397450+345607445+351507271+358341304+365538114+371443950
2348+374521967+374531150+372731341+370658264+368510236+365619822+361940251
2338+357978006+353949506+349792268+345731892+342356270+340108319+338917380
2328+338364612+338013183+337573365+337066807+336932991+337678028+339265599
2318+341032971+342317488+343040577+343575689+344194077+344901190+345752085
2308+346925332+348342805+349532513+350110140+350233803+350373329+350720428
2298+351044609+351138970+351184621+351506487+352084152+352544985+352666856
2288+352665326+352872376+353280392+353562505+353482179+353127054+352731617
2278+352425092+352236855+352192735+352237676+352180977+351900692+351522836
2268+351270322+351235646+351380548+351626119+351867957+351999272+351980944
2258+351863030+351710103+351534407+351349081+351234340+351229189+351230196
2248+351151811+351076822+351106496+351223067+351385661+351570838+351716635
2238+351806779+351929732+352128794+352328976+352487838+352673836+352962818
2228+353337949+353707183+354011842+354269618+354469390+354568230+354661808
2218+354911186+355217151+355295798+355177063+355265527+355774324+356408912
2208+356783334+356926145+357156151+357617021+358192857+358775598+359347478
2198+359855006+360223605+360488063+360792461+361251166+361809048+362285521
2188+362658748+363182551+363998247+364794384+365172053+365218711+365380223
2178+365858861+366468514+367046366+367688494+368518150+369463518+370382160
2168+371268515+372237026+373379478+374715095+376239359+377957759+379890040
2158+382095289+384663726+387607629+390794677+394075937+397420391+400799223
2148+403981232+406646605+408796948+410875175+413285384+415934819+418475185
2138+420849636+423330056+426140592+429286320+432628945+435955930+439104943
2128+442163625+445437532+449054171+452604742+455337937+456799419+457154767
2118+456822673+456001602+454660237+452797720+450525395+447926500+444988009
2108+441745307+438404324+435224555+432325368+429630955+426946620+424133210
2098+421240817+418348873+415315983+411915390+408164973+404321837+400654471
2088+397363506+394561891+392179602+389994434+387857754+385840257+384104089
2078+382679188+381460216+380402234+379578364+379003312+378543673+378091089
2068+377694607+377385843+376992981+376345292+375585586+375005980+374644809
2058+374309542+373911418+373526246+373213674+372972619+372802784+372718276
2048+372750265+372943654+373329759+373897010+374546416+375135167+375705180
2038+376561636+377932862+379679556+381499484+383265811+385024374+386780101
2028+388391784+389620908+390233884+390102644+389304379+388133970+386883084
2018+385558292+383934515+381902573+379673397+377664112+376205728+375248826
2008+374390167+373317367+372098283+370906560+369722265+368486012+367298394
1998+366352056+365883198+366101446+366817405+367276596+366809044+365532739
1988+364051997+362787637+361894824+361429102+361312680+361329626+361278340
1978+361091371+360845502+360664244+360573130+360538379+360644648+360976406
1968+361269717+361043482+360261790+359485250+359154350+359118218+359055136
1958+358951257+358882053+358693107+358225592+357614782+357138421+356935327
1948+357044657+357614035+358754845+359994570+360281349+359158904+357514597
1938+356483080+356233141+356237658+356169500+356129784+356236613+356357065
1928+356395512+356672064+357518218+358549026+359093097+359281858+359638997
1918+359842576+359163309+357892715+357073249+357175635+357777562+358139032
1908+357873678+357219793+356657506+356337245+356093839+355909931+356049868
1898+356660119+357398661+357733144+357728777+358047321+358848049+359339452
1888+358883658+357855985+356898449+356191933+355701724+355424202+355316888
1878+355341897+355488328+355746031+356401558+358149670+361225635+364291372
1868+365075714+363037351+360033352+357903838+357050293+356957985+357032414
1858+356987025+356884974+356895948+357031555+357270071+357766626+358814604
1848+360809108+363880631+366847453+367329151+364764747+361577624+359926486
1838+359922268+360572720+361301221+362640608+365281980+368437972+370061638
1828+369571093+368450701+367505743+366195882+364521154+363400874+363270306
1818+363665481+364098133+364756348+366137428+368109686+369665193+369953913
1808+369317385+368853640+369453664+371417672+374274082+376776637+377804833
1798+377680162+378065409+380401114+384366457+387382214+387021790+384504043
1788+382872539+383339381+385147104+387356272+389737777+392008311+393580913
1778+394693654+396774158+401098320+407123377+411898705+412773377+410784434
1768+408442458+407080787+407519784+410154662+413806014+416456979+417908196
1758+419303722+420709997+421996604+424512074+429506359+435661349+439667677
1748+440158259+438971687+438319406+439178252+441450054+444140324+446085408
1738+447898020+451866834+458584185+464245719+464696959+461895680+459195182
1728+457610598+457655800+459619995+462832612+466914563+472993482+482009883
1718+491781736+497121441+496179693+492709635+490277292+490177481+492742856
1708+497860841+504369724+510430837+516051909+523317922+532514648+539912946
1698+542911944+542968978+541008591+538345233+537993245+541235088+546823238
1688+553761039+563108676+574880632+583647431+584758380+582633867+582706729
1678+586590924+593433655+600811460+606947414+612967730+620036398+625817787
1668+627508714+627542308+630237057+636235500+642492391+646387933+649254011
1658+654189470+663269886+677065087+692099080+699273457+698962602+700831688
1648+707149721+712720700+712398423+709128099+708201954+711042575+716983237
1638+725015376+732489634+734250996+729204006+723160025+720452585+721307884
1628+723984791+726717240+728447174+727830615+724080944+719530173+717374792
1618+717489459+716286276+711457198+705384177+700645056+697322849+694417727
1608+691300368+688236758+685836217+684219233+682951252+681636762+680345414
1598+679404787+678833094+678138448+676878455+675264159+673835076+672657799
1588+671331663+669862417+668927986+668901484+669375008+670361697+672975970
1578+677596766+681504626+681180408+678901402+679732215+684524265+689712947
1568+691979934+692675028+694686403+699321160+707792931+722011340+740409719
1558+752605629+754146093+753764691+756279825+761509342+768503207+776210830
1548+783861045+792142525+802365506+814440403+826574351+834756767+833607559
1538+826017515+820972466+821152230+823296787+823687520+823288500+825519654
1528+830941328+837162833+842408400+847455316+852625260+855951349+856777982
1518+857075698+857924577+859187407+861311956+865150986+871250584+879857701
1508+889309292+893125553+887057608+878577626+874687906+876118482+880861858
1498+885359850+885867789+882468540+879562672+880691574+885649056+890838409
1488+892471070+890857595+889109222+889074882+890250666+891483336+893075685
1478+896298977+901155453+905977588+908755724+908095195+904605989+901140149
1468+899941744+900993978+902567365+903332185+904669817+909162135+917128281
1458+924383806+924092958+916692980+909182217+904778586+903547335+904697439
1448+906239247+906274110+905271595+904904377+905668375+907379721+910380398
1438+914313490+916465587+914698849+911554465+910456096+911478991+912397895
1428+912073975+911638077+911930866+912329587+912700911+914158511+916665806
1418+917882575+916592796+914323793+912255979+910162411+907774635+905689427
1408+905031809+906250519+908103033+908652853+907676317+906630354+906610272
1398+907615176+908857775+908895624+906472761+902283310+898535506+896214619
1388+893994514+890303446+886233141+884517764+886076743+889614175+893789666
1378+898258170+902712565+906154814+907755225+908185077+909123764+911275188
1368+913859600+916075898+918055696+919954494+921307953+921971245+922648273
1358+923976350+925794150+927361490+928150497+928341460+928325857+928198424
1348+928179612+928921364+930796274+933356050+935877828+937950569+939396821
1338+940170301+940498475+940782082+941250754+941905759+942749562+943911983
1328+945456628+947100487+948430878+949423539+950275778+950848665+950762366
1318+950128263+949771049+950435386+951987123+953403215+953537367+952300591
1308+950899503+950311312+950019569+949175393+948349507+948723369+950158647
1298+951427673+951793772+951220138+949696844+947513990+945561217+944347136
1288+943100953+940598958+936773067+932918360+930312672+929046258+928127429
1278+926393912+923461393+920055649+917182480+914881301+912389757+909709864
1268+907962014+907722900+907965299+907079466+904318724+900142710+895867707
1258+892963929+891905499+891506628+889963476+886746753+883003055+880171243
1248+878875267+878960521+879822016+880715463+881251323+881648029+882285267
1238+883221191+884182722+884685659+884471703+884229230+885231372+887750761
1228+890456410+891907664+892281452+893112787+895437108+898605306+901103643
1218+902371625+903302473+904939538+907346052+909805719+911577010+912398119
1208+912635291+913159878+914898322+918077644+921831420+925028136+927625388
1198+930451302+933417788+935056272+934520562+933102902+932866476+934533253
1188+937315122+940103785+942334491+944265092+946818523+950487792+954180353
1178+956206809+956715793+957687401+960136617+962756414+963875910+963695325
1168+963712868+964720833+966274063+967854840+969755879+972347980+974983305
1158+976444787+976672553+977246187+979441507+982430688+984420339+985312666
1148+986526002+988267805+989148860+988785524+988715350+990037828+992218591
1138+994995607+998993947+1003169513+1004383744+1001662344+998223453+997149719
1128+997819655+998228903+998568574+1000512762+1004363513+1008527433+1011227333
1118+1012171171+1012944053+1015348626+1018917114+1021322433+1021745417
1110+1021716974+1022410799+1023785161+1026124636+1029709547+1033156127
1101+1034399174+1033277214+1031692032+1031782512+1034084885+1036828531
1093+1038188933+1038723896+1039666763+1040716683+1041692174+1043986857
1084+1048231029+1052560007+1054902095+1055473041+1055554861+1055102837
1075+1053159694+1050104222+1047677477+1046713334+1046222565+1045756805
1067+1046487509+1048719932+1051157576+1053183509+1055604356+1058771659
1058+1061954638+1064568911+1066292649+1066491823+1065138812+1063426944
1050+1062563284+1062596952+1062915945+1063305335+1063986021+1064847292
1041+1065075283+1063889121+1061495074+1059468022+1059737818+1062067513
1033+1063993859+1064637144+1065986049+1069253387+1072690037+1073741823
1024+1071887592+1068724694+1065774258+1063297198+1061332779+1060419847
1015+1060465535+1059931691+1057298382+1052940588+1048752182+1046389937
1007+1046305878+1047890462+1050099668+1051893953+1052209287+1050281672
998+1046903998+1044679637+1045547627+1048341441+1050064208+1049398229
990+1047417685+1045348155+1043567979+1042038937+1040276380+1037552964
981+1033881082+1030196807+1027209941+1024827018+1022686268+1020438168
973+1017803739+1014902574+1012129514+1009569887+1006747332+1003213558+998974313
963+994069462+988636890+983256798+978867948+976299885+975717293+976263231
953+976212243+974135844+970254561+966085490+962798369+960598122+959235630
943+958398247+957863284+957476955+957498977+958656547+960532875+961106732
933+959217937+956147609+953977148+953600747+954671719+956246300+956971628
923+955641088+952475129+949273561+947771244+948393029+950558862+953202399
913+954836926+954320551+951864169+948454991+944918007+942161893+941184387
903+942076266+943698177+944900986+945342857+944941896+943631885+941790569
893+939930515+938010440+935966068+934583420+934737355+935972190+936718720
883+935963007+934314147+933351795+933913186+935149215+935542935+934670167
873+933196069+931431422+929098441+926437584+924347748+923155913+922219840
863+921309969+921228373+922199907+922896793+922196025+921078918+921530643
853+924209342+928065318+931567589+933728718+934441132+934334975+934297350
843+934914432+936154343+937347298+937306015+935088597+931353782+928460531
833+928401182+930498334+932053654+931732497+930928335+931384763+932991818
823+934399624+935057989+935854238+937523479+939171593+939206531+937458755
813+935731509+936137845+939195258+943570371+947028522+947615294+944888295
803+940476303+936919835+935564808+935820719+936604426+937656958+939028558
793+940620981+942477974+944363858+945403699+944930176+943592767+942681627
783+942441991+942247595+941886797+941664406+941692849+941928080+942519182
773+943803438+945986441+948539872+949995530+948997644+946001969+943307369
763+942508432+942548894+941145343+938029925+935239471+934167528+934458302
753+935791380+938491206+941651043+943186282+943010548+943535135+945939335
743+948344878+948626693+946968277+944927563+944262106+946059377+948971963
733+949577922+946277139+941280913+937500187+935713890+935209460+935269033
723+935371532+935570781+937037936+940717955+945352935+948276123+948520089
713+947404698+945792492+943228908+939743136+936387783+934329824+933998141
703+934721379+935147573+934201346+931146322+925606249+919152199+915080326
693+915202682+918294884+922155713+925552424+926420787+921697866+912313985
683+903627288+899336980+898360669+898120883+897805400+897211386+895646958
673+892825149+888732672+882834041+875736184+871064922+871014904+873941451
663+877723073+880644095+881800395+881915436+881824956+880962490+878541120
653+874517399+869418002+865210037+864614530+867979439+872587544+875303719
643+874198481+868807266+861061944+854533987+851488966+851748684+854076215
633+856937515+857700842+853558198+844990423+836301786+830915946+827948937
623+824717134+821204487+820034899+822866935+828604540+834621272+838931363
613+841111529+841670978+841151543+839376220+835007004+827298560+819647450
603+817235635+820965672+825553770
##END=
