##TITLE=<SNM>
##JCAMP-DX=4.24
##DATA TYPE=INFRARED SPECTRUM
##DATE=2/5/2025
##SAMPLING PROCEDURE=Instrument type and / or accessory
##ORIGIN=Admin
##XUNITS=1/CM
##YUNITS=ABSORBANCE
##RESOLUTION=4
##FIRSTX=4497.3318
##LASTX=599.83466
##DELTAX=-1.4281778
##MAXY=1.8381366
##MINY=0.34850714
##XFACTOR=1
##YFACTOR=1.7118981e-09
##NPOINTS=2730
##FIRSTY=0.37177068
##XYDATA=(X++(Y..Y))
4497+217168701+218305835+218688431+218093655+216974278+215948996+215586995
4487+216128343+217041807+217418606+216997676+216176252+215179469+214101038
4477+213460580+213805486+214931688+216087624+216647164+216263019+214940531
4467+213344846+212569713+213126677+214390409+215220624+214892413+213528667
4457+211976643+211111871+211067513+211320448+211492431+211721027+212293503
4447+213109529+213577029+213285655+212655156+212384099+212536009+212825381
4437+213302699+213945854+214125027+213264660+211704297+210538386+210730946
4427+212221395+213785866+214169890+213381126+212422590+211940171+211608026
4417+210805387+209590087+208714104+208635694+208996668+209338493+209773803
4407+210525103+211307339+211660531+211546607+211299052+211260909+211558846
4397+211939422+211855633+211018246+209829843+208963835+208590483+208394023
4387+208278637+208505319+208996546+209169887+208793158+208290336+207944176
4377+207691973+207784780+208600928+209719452+210185751+209745879+208980095
4367+208291624+207463028+206265259+205112805+204810847+205631382+206988582
4357+208180485+208980687+209305172+208964949+208078538+207209397+206743151
4347+206440532+205913128+205327509+205196994+205537931+205765117+205491344
4337+204982951+204798434+205276692+206258643+207150642+207483014+207305651
4327+206856344+206202064+205394725+204621490+204078766+203864079+203909673
4317+204013848+204150212+204571804+205263061+205610909+205155613+204304664
4307+203748031+203593004+203579373+203702507+204126797+204798190+205463769
4297+205799639+205511243+204730034+204178241+204495588+205497925+206394590
4287+206601286+206111068+205237157+204322996+203734278+203819425+204650806
4277+205807473+206505833+206223582+205408843+205187576+205979404+206913707
4267+207109575+206828368+206752430+206943319+207080345+207038668+206785664
4257+206181957+205274412+204515312+204340457+204643355+205018274+205377507
4247+205834144+206148775+206006475+205638137+205492023+205574159+205552902
4237+205241631+204801985+204627687+204931682+205462933+205917585+206403120
4227+207103777+207832185+208237308+208124080+207513079+206725446+206259322
4217+206299119+206613664+207020406+207494225+207825134+207734416+207368115
4207+207282689+207885021+208939793+209623529+209347371+208583398+208329889
4197+208721572+208920121+208455250+207800135+207525248+207645822+207803007
4187+207631390+207050941+206310766+205629380+205004329+204557425+204684144
4177+205617803+207121830+208696382+209884002+210445597+210439503+210081106
4167+209515072+208809522+208017590+207122788+206166463+205544616+205773630
4157+206651720+207147630+206745554+206386547+207145333+208458976+208864726
4147+208178274+207479184+207177191+206640856+205657722+204939464+205043169
4137+205712751+206388409+206833486+207197333+207659923+208095373+208196188
4127+207940816+207646849+207451347+207111681+206489886+205892394+205730038
4117+206032936+206479301+206821753+207088893+207318081+207317925+206934023
4107+206424568+206280753+206711345+207475336+208117534+208291746+208004934
4097+207561685+207174231+206727065+206050641+205271104+204680819+204393624
4087+204371532+204650980+205174554+205513785+205258065+204686077+204606483
4077+205474475+206910033+208002096+208028714+207098415+206040004+205500972
4067+205440963+205618256+206008111+206485482+206666221+206406497+206039047
4057+205885935+205890357+205897251+205952281+206118641+206277393+206323283
4047+206359894+206517619+206709865+206711084+206467516+206210090+206197050
4037+206411128+206625571+206778805+207115720+207809919+208550860+208800713
4027+208482078+208108673+208174270+208636390+209030302+209016654+208814919
4017+208947593+209460703+209788932+209585143+209155177+208872316+208749931
4007+208746310+208936921+209309124+209782473+210356149+210948697+211270519
3997+211112411+210592511+209952541+209310464+208751934+208427936+208449801
3987+208864326+209638431+210438650+210716427+210362382+209957746+210054818
3977+210521813+210822517+210692542+210361668+210231101+210434768+210703301
3967+210707479+210570506+210848979+211797957+212870818+213307277+213047049
3957+212645477+212511776+212676082+213160833+214088312+215157186+215449064
3947+214606820+213848678+214519792+216035571+216540691+215439054+213895665
3937+213168772+213815218+215837179+218424094+219899902+219184882+217362793
3927+216585676+217660730+219392745+220381346+220922607+222171907+223998714
3917+224579580+222460391+218596704+215371855+214212333+214939104+217000148
3907+220554408+225795072+231553356+235602535+236815677+235547645+232143292
3897+227471465+223834930+223252445+225222475+226726955+225881194+225043459
3887+227028896+230684145+232654523+232741986+232921837+232435031+229890803
3878+227642648+228638125+232312681+236320392+239545833+241137044+239991467
3868+237745766+237389649+238718560+238608867+235740361+232476482+231635631
3858+234571195+241717911+251596628+257117385+251580334+240733018+232340083
3848+228797713+229592274+233048662+237440344+242112815+247149725+251471946
3838+252693983+250431953+247098177+244151401+241147194+238111389+236324936
3828+236428972+237921248+241111001+246997379+253641673+255991653+253690854
3818+251264449+249488929+245861028+240899412+237802937+238395067+242318397
3808+247086182+249927895+251804874+255387354+259395936+260011150+257814369
3798+255992385+254568490+252304911+250155482+249851383+251575128+254640494
3788+258777779+263660446+268318555+272528679+277777769+285103449+293072911
3778+299874757+306344230+314640806+325791508+339146006+352224121+361985171
3768+368058348+372240322+375434792+378147766+381346693+384605471+385840565
3758+384867162+384962285+389495571+399155128+411036587+419722148+423709769
3748+427725697+435154055+444067221+449612559+452355580+458060384+470248031
3738+488556799+508581218+523472159+529771861+530709158+531788965+535852384
3728+542948684+551767354+560327676+567105288+571956984+575249605+576910244
3718+577096902+577351073+579546165+583003719+583894639+579983164+574198767
3708+569821082+567670068+568171585+571037966+573635936+573203081+570534883
3698+568763732+570202233+575131991+582259034+589595786+594534492+594718400
3688+591030979+586826373+583964274+582955113+584346575+588430432+595090882
3678+603029774+607045807+602241149+594713317+593305979+596934140+596841733
3668+589356936+579898209+573354016+570569492+570383843+571522526+573316482
3658+575030601+575820792+576497025+579129674+584125412+589025052+590130241
3648+586341430+579797829+573229438+568985104+568092200+569235828+570047711
3638+569988138+570449892+572334653+575935866+582362444+591537718+597754379
3628+593935416+583832767+575662267+572861448+575811809+582826113+589297397
3618+591248730+590347086+590440468+592555862+595975534+600394827+604380359
3608+604526316+599863785+594310126+592138466+594000386+597636486+601157617
3598+604403339+606987243+607534650+606368947+606723741+611232307+618414747
3588+623097402+621930655+617683432+614588054+613643445+613724222+614163067
3578+615178356+616364879+616185080+614054644+612269462+614345443+621181862
3568+628665754+630706221+626493398+620622687+616839795+615405717+614634292
3558+613475762+612592224+612877104+613726729+613627986+612538186+612111667
3548+613083782+614257423+614213762+612897646+611130361+609431040+607971962
3538+606853333+605826763+604449995+602739254+601425924+601191948+601274188
3528+599913993+596826831+593855196+592602101+592481700+591912289+590480648
3518+588784739+587382414+586837097+587523288+588733557+588863706+587087159
3508+584423870+582683255+582653451+583601612+584281256+584081611+583285988
3498+582705400+582922837+583596702+584066256+584481668+584974619+584293860
3488+581077420+576064135+571746510+570128628+571027695+572255930+572034454
3478+570998030+570761094+571395615+571560582+570207943+567309947+563880108
3468+561653436+561734492+563311254+564414354+564118750+563504145+564193748
3458+566272618+568002927+567445145+564200746+559847189+556720823+555832132
3448+556084840+555974850+555336082+554542687+553155508+550657535+547637224
3438+545171422+543662207+542865017+542508900+542446123+542487278+542330423
3428+541675255+540491134+539149149+538121778+537506268+536893648+535901025
3418+534888591+534738630+535771328+537085807+537313133+536070031+534212010
3408+532731798+532091845+532452663+533491942+534034683+532997806+530805673
3398+529034906+528670119+529220973+529377235+528282387+526307692+524736257
3388+524575921+525491422+525993426+524983917+523039896+521760931+522022413
3378+523218755+524077259+523967478+523283238+522667135+522209698+521584717
3368+520715280+519903676+519339522+518749742+517712309+516346334+515380904
3358+515341769+516131577+517527530+519263689+520400562+519710506+517276911
3348+514972316+514787782+516890642+519443558+520436320+519536034+517688319
3338+515594129+513513726+511941386+511365359+511453483+511249903+510252406
3328+508904676+507953904+507721739+508165771+509130226+510202825+510704655
3318+510112926+508312076+505660556+503346595+503054229+505328045+508550857
3308+510316784+509751725+507826924+505820857+504500320+504292736+505055038
3298+505934920+506291421+506310327+506208554+505698368+504646241+503519500
3288+503049529+503800759+505656586+507453363+507829779+506771664+505674552
3278+505721765+506663171+507237770+506752200+505914865+505608990+505445869
3268+504616263+503605431+503582939+504459931+505020603+504819878+504629041
3258+504938329+505062489+503985921+501652009+499193415+497999162+498585669
3248+500157905+501228902+500886260+499482333+497943279+496705399+495789063
3238+495541125+496422191+498025798+499036142+498348907+495958452+492918538
3228+490625607+489816440+490069322+490370253+490015598+488869115+487244618
3218+485807859+485141410+485148930+485146772+484617018+483579480+482316566
3208+481158942+480425295+480107268+479774374+479216871+478747247+478439736
3198+477782270+476595816+475435302+474627423+473885628+473077958+472419169
3188+471942965+471499664+471113534+470834434+470537890+470086511+469372257
3178+468282110+466866067+465345605+463881166+462584827+461576362+460822172
3168+460220554+459724748+459037129+457629652+455516590+453521700+452411184
3158+452154020+452156561+451876486+451174837+450274168+449419703+448664677
3148+448012643+447522129+447142753+446659586+445936453+445057720+444093195
3138+442900509+441425589+440083430+439441667+439491387+439579337+439119462
3128+438095991+436898187+435898357+435122092+434298719+433324306+432464897
3118+431958053+431671432+431296931+430709415+430081091+429689773+429540892
3108+429264508+428587962+427759680+427211263+426944106+426580851+425979895
3098+425385936+424866280+424083678+422946840+422036423+421926154+422405109
3088+422741937+422503957+421890013+421383727+421157689+420841369+420079902
3078+419183098+418751774+418793521+418716748+418108723+417112653+416099697
3068+415219223+414274579+413053621+411755959+410825347+410293051+409658496
3058+408647663+407724084+407393489+407346276+406908476+406086147+405452288
3048+405181962+404923927+404477631+403982556+403580201+403283413+402979801
3038+402400432+401377135+400168432+399256239+398856634+398784004+398708380
3028+398404698+397752037+396660602+395207199+393807068+392973076+392793555
3018+392804209+392500911+391872135+391240225+390679971+389981733+389209508
3008+388751757+388659107+388503471+388058673+387537832+387019011+386196265
2998+384904348+383505157+382541781+382167628+382076371+381925923+381588224
2988+380997783+380140950+379253756+378616589+378097419+377333898+376381455
2978+375681303+375341202+374941980+374200046+373408880+373006594+372974631
2968+372846780+372221556+371189101+370220607+369649629+369410291+369288046
2958+369158175+368907625+368390406+367606691+366814758+366311814+366022860
2948+365475001+364434574+363347943+362780481+362737133+362888695+363031239
2938+363010732+362612067+361761815+360625325+359494266+358670719+358315681
2928+358308126+358291970+357907163+357078010+356072331+355132701+354191957
2918+353191535+352420563+352227011+352563943+352958116+352827967+351940285
2908+350696835+349818624+349654527+349879659+349859987+349254888+348284305
2898+347457450+347112405+347214212+347437047+347356826+346731149+345713806
2888+344705654+343957627+343431390+343054173+342895612+342962115+343026110
2878+342871205+342511676+342012074+341365541+340639589+339992185+339537533
2868+339325493+339293808+339185664+338788079+338263861+337934832+337753117
2858+337318973+336449223+335450438+334734408+334335047+333964689+333467107
2848+333008208+332763438+332597392+332263349+331830528+331596900+331577924
2838+331459962+331106316+330690243+330273438+329684215+328926195+328362111
2828+328291535+328491564+328397208+327770207+326961423+326418404+326188780
2818+326009711+325673023+325212243+324815981+324581134+324396495+324089401
2808+323531236+322648986+321633349+321003737+321039182+321281828+321026160
2798+320180399+319266360+318673656+318277707+317788446+317164197+316536256
2788+315914862+315208930+314490741+314004579+313847586+313799154+313573569
2778+313135212+312627950+312115814+311574745+311023404+310473142+309865048
2768+309196023+308571564+308045919+307561811+307096366+306693453+306306383
2758+305805841+305234062+304819695+304574995+304121562+303185309+302069083
2748+301315381+301035480+300865708+300513525+300076561+299781271+299614946
2738+299350678+298836209+298119971+297351680+296679068+296189146+295857888
2728+295593412+295333531+295027273+294562350+293826266+292848232+291844241
2718+291116252+290842653+290887672+290865389+290499662+289905373+289434775
2708+289280601+289318344+289304312+289106164+288727154+288228562+287698338
2698+287234825+286902158+286684024+286483020+286184039+285747493+285253636
2688+284845675+284594534+284410504+284138611+283750253+283348472+282962829
2678+282492335+281934431+281507338+281387390+281419335+281261280+280804887
2668+280291393+279976918+279846438+279746789+279625031+279475698+279197677
2658+278701574+278090242+277573145+277229092+276957687+276647616+276325551
2648+276120944+276094795+276146448+276127350+276013879+275898858+275807757
2638+275604821+275164827+274583421+274087597+273767795+273522277+273229859
2628+272866517+272494854+272190685+271931710+271620316+271293811+271152033
2618+271276994+271490062+271543595+271337160+270982627+270734549+270733714
2608+270810417+270718446+270468175+270201505+269926113+269610594+269325557
2598+269100616+268869756+268671660+268665828+268872977+269090624+269105752
2588+268871724+268492400+268143403+267998126+268121799+268399297+268627476
2578+268707157+268683080+268602024+268462057+268303322+268190721+268098436
2568+267954412+267793292+267737619+267829259+267984756+268138303+268337060
2558+268600353+268763910+268638339+268271429+267862806+267494642+267139796
2548+266822849+266583284+266388113+266201889+266059084+266017302+266081124
2538+266141167+265984765+265490090+264845507+264434691+264424402+264562316
2528+264469161+264049762+263516805+263106267+262899606+262835767+262771650
2518+262585253+262286324+261994115+261815029+261786531+261885918+262043208
2508+262174976+262226716+262190662+262125274+262126649+262190227+262141273
2498+261851118+261494113+261388319+261567474+261720255+261609830+261351116
2488+261188604+261164597+261111273+260892460+260586951+260406437+260418867
2478+260443623+260306876+260072047+259884483+259727263+259492051+259179525
2468+258893340+258711103+258635740+258596709+258471191+258185719+257812593
2458+257508668+257351605+257257631+257073584+256765341+256480096+256364274
2448+256378602+256374511+256285342+256155402+256038779+255930931+255780744
2438+255568268+255371669+255316848+255443185+255627702+255656705+255421389
2428+255056637+254802553+254727399+254706212+254658756+254660427+254793431
2418+254997429+255125333+255110761+255026258+254963725+254919420+254863415
2408+254870065+255071347+255466443+255861974+256046492+255990678+255851738
2398+255825381+256025740+256513695+257467757+259338539+262789077+268458157
2388+276812305+288222695+303106412+321860048+344555554+370726198+399488822
2378+429764040+460337716+490014658+518025704+544080752+567732357+588102030
2368+604704862+618058351+628677940+635471046+636181470+630305467+619905160
2358+606431759+589152625+567073603+540694958+513420971+491330460+479602096
2348+480334037+492714854+512324034+531324355+543487456+548258166+548637437
2338+547844669+547603973+548225715+549551058+551026186+551466249+549846557
2328+546094305+540735103+534210861+526684456+518267097+509257973+499967834
2318+490379828+480395281+470326824+460651913+451248337+441278275+430023189
2308+417636906+404957108+392807343+381623460+371491355+362240874+353531497
2298+345055330+336747682+328789605+321388858+314556860+308137942+302070789
2288+296521517+291687021+287572715+284060045+281078051+278571582+276388728
2278+274363599+272486898+270855994+269471601+268221152+267056964+266048482
2268+265246121+264602774+264023213+263425982+262785838+262142770+261532343
2258+260920645+260249966+259525632+258833714+258271075+257840099+257432904
2248+256963646+256477537+256080596+255812080+255631219+255472589+255275432
2238+255001451+254672683+254383068+254211677+254108912+253951970+253729188
2228+253551930+253469934+253416698+253346505+253286427+253246264+253183836
2218+253078947+252983076+252969010+253051336+253192366+253371191+253575798
2208+253751768+253852809+253910607+253976047+254044116+254095542+254152835
2198+254248932+254378176+254492901+254539539+254526430+254553832+254720819
2188+255000563+255272682+255469194+255601049+255668491+255671555+255685500
2178+255789292+255939618+256009585+255900866+255588114+255164520+254837110
2168+254742510+254796861+254832671+254798967+254727608+254602629+254380335
2158+254086959+253812490+253620539+253503325+253419240+253359753+253383673
2148+253557536+253865431+254260370+254805095+255642291+256825472+258301610
2138+260029151+262002837+264215600+266694580+269536484+272830324+276540882
2128+280534091+284776910+289416652+294559252+300116427+305964750+312001542
2118+317925037+323232847+327560430+330859458+333213424+334571878+334686951
2108+333320350+330476183+326413355+321558560+316392180+311227819+306126967
2098+301090980+296168464+291393054+286859175+282789662+279314787+276291429
2088+273493204+270889559+268649011+266897568+265538400+264378965+263369908
2078+262569010+261952786+261433547+260985267+260636880+260421026+260371724
2068+260494875+260703260+260816853+260703086+260435980+260208620+260084877
2058+259975079+259824074+259676046+259614018+259711891+259963415+260267236
2048+260538798+260764470+260970644+261219922+261513750+261681520+261595085
2038+261433338+261469009+261712299+261971762+262131628+262241600+262417082
2028+262695660+262999324+263251005+263459408+263712534+264178623+264955288
2018+265774761+266122609+265835988+265299062+264947297+264890457+265022573
2008+265211930+265353639+265403063+265391138+265375156+265379021+265367549
1998+265335325+265495365+266185351+267352167+268341308+268551068+268107524
1988+267552840+267214341+267141188+267267281+267446454+267573104+267692094
1978+267854189+267996629+268063636+268098593+268227088+268648924+269463210
1968+270369797+270819070+270656383+270310450+270197188+270317814+270551756
1958+270936214+271459562+271914179+272152333+272273847+272478907+272893745
1948+273583504+274665330+276224474+277864709+278600133+277871064+276406172
1938+275339805+275014362+275115508+275393981+275804571+276238315+276507352
1928+276673956+277233287+278555879+280168782+281302678+282088309+283033997
1918+283593450+282822844+281238265+280348669+280810737+282040695+283053408
1908+283304027+282995401+282711583+282766334+283042022+283383829+283892083
1898+284731316+285702003+286288040+286488539+287107653+288490549+289601866
1888+289356452+288224488+287346277+287049072+287018658+287046130+287114825
1878+287208955+287292727+287457764+288242750+290554674+294591876+298602303
1868+299725806+297358678+293957982+291803243+291150164+291163012+291242954
1858+291300386+291440528+291754463+292242470+292933570+294034233+295831740
1848+298615116+302407374+305952912+306694846+303989637+300543782+298761246
1838+298601293+298832449+299069628+300366037+303677982+307950692+310568195
1828+310657015+309835174+308957276+307366204+305177031+303627252+303317234
1818+303730453+304262853+305062062+306683809+309011488+310869509+311188963
1808+310313050+309585078+310195783+312577882+316040937+318885662+319800292
1798+319402463+319719933+322280126+326574527+329550271+328351666+324512021
1788+321834109+321899288+323691468+325726747+327524950+328961745+329737974
1778+330324551+332233649+336666312+342901949+347692645+348082257+345070894
1768+341322402+338471724+337830935+340043193+343519235+345589541+346069087
1758+346566461+347276118+348012238+350259453+355362534+361755826+365699925
1748+365718692+363939742+362848724+363442125+365447948+367688269+368957206
1738+370101809+373789091+380591876+385771696+384347436+379103691+374379219
1728+371262254+369904252+370321858+371932672+374748323+380213998+389223365
1718+399010007+403293058+399832057+393264397+388113163+386171405+387797399
1708+392377586+397942839+402277699+405950497+411685035+419553978+425154398
1698+425922062+423536794+418461602+412084222+408328244+408998488+412841650
1688+418782101+427766121+439007871+445163392+441163828+433561103+429089513
1678+429496604+433683940+438689288+442227305+445404715+449449263+451856396
1668+450007428+446954528+447198705+451008546+454815776+455878870+456055153
1658+459096250+467457448+481742629+497453357+502985847+499133563+498233138
1648+502966767+507202361+505176135+500284607+498313254+501041199+508371614
1638+519748841+532333725+539683395+539417142+537953051+540763375+548263145
1628+558129833+568503330+579602187+591337933+601650917+610012080+619397168
1618+631928328+644523205+651935512+655405043+659607421+665717469+671859342
1608+676225642+678909543+681175072+683788153+686478948+688823722+691124766
1598+694067224+697836189+701861134+705481148+708733555+712064790+715543652
1588+719035258+722668085+726380505+729582635+732082349+735085321+740597617
1578+749337389+758218941+761924328+761522042+763380760+770292664+779673782
1568+787286291+792922887+799319905+808239964+820946537+839300081+861269461
1558+874577686+874666820+872211812+871979089+872807058+873370133+873079752
1548+872373994+873034071+876205352+881105828+886001987+887071801+879044889
1538+866018897+857271743+854192241+852176426+847217386+841205454+838497668
1528+840297195+844754440+849713688+854264593+856979899+855752987+851681525
1518+847846893+844760219+841759894+839846095+840804909+845453791+853372768
1508+861702038+862826516+852702385+840184664+832855433+831611112+834799871
1498+838959353+839548124+835790161+832402940+833369762+837638015+840094486
1488+837188795+831204160+826058218+823226620+822291343+822501503+823757384
1478+826543719+831173103+837154743+842201872+842188363+836259854+829713886
1468+827273919+828960566+831413207+831696276+831062173+832763862+837737803
1458+842900527+842657916+836640622+830268743+826560571+825596046+826165736
1448+826143244+824276031+821628619+819577916+818317509+818406086+821210108
1438+826243310+829372322+827266120+822725243+819669835+818303095+816893598
1428+815014199+813967086+814611217+816582396+819486763+823066040+825391595
1418+823547362+818328094+813515220+810873518+809776825+809277467+809150521
1408+809527529+810041371+809636997+807920545+806375816+806868001+809545774
1398+812921436+815327769+815529434+813090442+809627874+807833152+808424778
1388+809180743+807560180+804619881+804065162+807644300+813858594+820382975
1378+826359880+831963190+836688741+839395134+840066353+839962944+839889269
1368+840116351+841620553+845406300+850341524+853328131+852778148+850390199
1358+848379189+847289320+846696580+846355156+846368596+846763849+847208751
1348+847310489+847256243+847871405+849818142+852910178+856162724+858342114
1338+858828658+858134669+857298413+856976000+857293956+858147273+859541032
1328+861770281+864982090+868668258+872141550+875193754+877792142+879999456
1318+882608359+886474117+890953784+894561890+897229636+900242635+904014524
1308+907465115+909748679+911675152+914809735+919300196+923338094+925309273
1298+925664206+925764134+926017956+926089472+925961760+925804174+925215613
1288+923556890+921066646+918850071+917542938+916632799+915271838+913315352
1278+911447583+910473657+910622747+911561785+912832777+913868330+913953634
1268+913017520+912070335+912070474+912969681+914314556+915990061+917988886
1258+919990426+921493792+922246067+922635261+923507588+925212062+927154133
1248+928544480+929104839+929033462+928752064+928441141+927645761+925933349
1238+924021848+923373817+924452823+926114959+926907831+926266416+924289667
1228+921212533+917551295+914299654+912560431+912975948+915230683+918040695
1218+920028099+920607398+919913060+918524733+917668979+918806618+922297179
1208+926856161+930637452+932685509+933437087+933982822+934855846+935801290
1198+936736498+938106163+940032358+942035639+943927015+946109678+948628124
1188+950721096+951803931+952354123+953256185+954598344+955886187+957009273
1178+958167385+959164568+959594151+959717894+960384935+961953967+963782045
1168+965121349+966267623+968153219+970850281+973210376+974102827+973582300
1158+972962194+974135765+978355064+984887036+990922505+993670679+992983584
1148+991283079+990783373+991570744+992549892+993482175+995081708+997335330
1138+999295994+1000667539+1002289565+1004623476+1006759274+1007458208
1130+1006543612+1004978549+1004084774+1005047488+1008417022+1013222585
1121+1017361176+1019869734+1021634443+1023118659+1023349432+1022184217
1113+1021193161+1021306250+1021910897+1022597087+1023732289+1025266434
1104+1026603928+1027888081+1030298940+1034280781+1037898218+1038712469
1095+1037855949+1038392075+1040380106+1041766623+1041827345+1041401523
1087+1041040044+1041009195+1042448496+1046410282+1052433078+1058370569
1078+1061421171+1060520503+1057190382+1053859426+1052343247+1053390082
1070+1056276204+1059006413+1059948933+1059285025+1058902586+1060957815
1061+1065603703+1069767920+1070033511+1067065496+1064242324+1063341864
1053+1063906750+1064897805+1065733782+1066342399+1067313748+1068743161
1044+1068735013+1065659203+1061272638+1058733998+1058913519+1060504138
1035+1062061890+1063156773+1064463139+1067046068+1070933135+1073741823
1027+1073260013+1070236847+1066561055+1063169864+1060322807+1058572443
1018+1058133181+1058024549+1057237038+1056310883+1056926602+1059893503
1010+1063685935+1065363808+1063752437+1060991937+1059537246+1058733928
1001+1056315270+1052177584+1048259042+1046106740+1046182225+1047905222
993+1049225098+1047833985+1044453797+1042957046+1045364354+1048610563
984+1048474912+1045163803+1041765927+1039760905+1039073670+1039877962
975+1041786469+1043146316+1042908997+1041758545+1040564501+1039218373
967+1037580401+1036007747+1034104394+1030615295+1025541844+1020982095
958+1018680982+1017816037+1016510088+1014546012+1012712642+1010509228
950+1007077927+1003674968+1002284133+1002130865+1000523463+997102886+993916563
940+991739054+989608479+987200614+984910991+982510925+979791371+977710864
930+977643039+979848542+982628401+983368420+981212288+978096507+976594673
920+977385108+978848434+979004627+977885650+977236157+977773954+978357014
910+978098805+977269791+976055065+974379421+972738524+971879428+971948646
900+972277048+971873787+970424180+968580435+967169824+966719628+967325738
890+967963462+966746647+963160476+959457039+958548989+961029135+964935422
880+967826976+968555853+967223931+964321374+960442593+956754963+954905786
870+955456535+956804195+956737763+955086351+953379579+952550496+952556346
860+953087875+953472125+953178471+952821727+953381320+954702798+955911883
850+956624396+956738807+956137364+955287111+955058010+956002131+958455050
840+962542598+967221424+970291037+970173909+967059869+962337451+957999841
830+955896981+956137155+956794586+955905964+953689946+952444162+953902892
820+956990680+958957054+958943684+959241029+962156607+966529453+968916149
810+968256211+966686203+966442826+968678969+973411275+977857308+977364148
800+971183558+964261278+961070916+961191386+961522086+960562297+959434059
790+959550629+960697947+961575636+961697777+961717624+961615886+960122687
780+956920626+954308033+955295398+959906607+964343518+964948513+962201244
770+959657729+959960923+962744612+965309992+964971145+961523479+957494494
760+955959026+958202551+963114029+968320972+972042933+973670250+972957946
750+970048078+966058089+962693986+961563311+963725431+968856471+975028844
740+979744785+981015985+978366206+973579167+969922107+970179271+975011713
730+982546300+988723269+989648867+985915626+981920414+980263153+979935656
720+978616059+974825716+969054584+963180253+958923072+956938314+957348538
710+960741818+967231103+973868851+975052032+968974643+960773015+956275242
700+956459498+959109417+962176245+963817420+962365932+958697800+956068424
690+956025668+956405392+954447304+950172436+945544862+942551152+942729628
680+946225134+950326679+950995182+947546472+943999367+944418922+947242999
670+946332303+938679892+929862127+924829831+922150666+921471647+923946293
660+927187976+927111794+924616676+924127555+926482426+927507673+923646441
650+915802950+906996675+899554425+895185687+894426101+895397102+896022082
640+896864187+900008937+905188931+908171291+905516567+900751603+899612292
630+901307226+900067710+893785522+886778564+884256079+886888450+890261326
620+888062717+878740372+869140737+867663275+875614632+886602943+893393751
610+893342012+886988029+876538350+868297796+870437215+883567382+896189069
600+895291882
##END=
