##TITLE=<SNM>
##JCAMP-DX=4.24
##DATA TYPE=INFRARED SPECTRUM
##DATE=2/5/2025
##SAMPLING PROCEDURE=Instrument type and / or accessory
##ORIGIN=Admin
##XUNITS=1/CM
##YUNITS=ABSORBANCE
##RESOLUTION=4
##FIRSTX=4497.3318
##LASTX=599.83466
##DELTAX=-1.4281778
##MAXY=1.783698
##MINY=0.24126528
##XFACTOR=1
##YFACTOR=1.6611982e-09
##NPOINTS=2730
##FIRSTY=0.25935248
##XYDATA=(X++(Y..Y))
4497+156123742+156836813+158134916+159081247+159232842+158588500+157394737
4487+156261541+155939585+156672283+157905514+158728523+158535558+157377999
4477+155872237+154768786+154537895+155266161+156623862+157858098+158275675
4467+157891377+157334386+157159433+157393571+157560236+157166555+156386154
4457+155975124+156303862+156888301+157067148+156728239+156236478+156010413
4447+156240299+156764890+157181571+157178306+156708379+155889280+154988949
4437+154433949+154371391+154299774+153679112+152752373+152198467+152209877
4427+152422379+152471841+152236752+151801288+151401686+151235309+151293256
4417+151460728+151670719+151885446+152056883+152214882+152490409+152894424
4407+153154737+153017404+152655657+152487287+152645323+152811611+152528927
4397+151675168+150715884+150374374+150966868+152129487+153118479+153381412
4387+152953501+152239927+151406154+150253923+148767285+147491670+147121868
4377+147772310+148819267+149541479+149765679+149618739+149020225+148003317
4367+147137655+146965500+147339295+147722875+147768802+147422241+146892107
4357+146658937+147189422+148471998+149913282+150844516+151142181+151158291
4347+151110839+150880540+150374266+149755094+149291840+149088568+148923527
4337+148460005+147744502+147231312+147138911+147178119+147118836+147146545
4327+147424457+147751113+147854485+147674760+147255370+146708121+146341960
4317+146440820+146815018+146859796+146245890+145424038+145235701+146022668
4307+147273678+148216071+148556478+148519351+148426133+148406202+148362140
4297+148157343+147884194+147767735+147769655+147656039+147463621+147464939
4287+147699786+147903919+147793982+147248338+146461828+145984204+146182588
4277+146693508+146904378+146842529+147006620+147536001+148165506+148743613
4267+149228924+149453446+149335507+149096399+148996033+149110321+149481487
4257+150160580+151008562+151621975+151544599+150679806+149556163+148910449
4247+148905766+149058590+148970136+148725260+148563027+148597032+148866136
4237+149266850+149492422+149391597+149269693+149506191+150036567+150574102
4227+151173791+152072509+152994512+153205759+152479268+151513688+151116921
4217+151342215+151691063+151820538+151781482+151790434+151971792+152194484
4207+152146404+151756599+151447093+151721812+152603128+153668115+154503988
4197+154935505+154864963+154158099+152925640+151789734+151425601+151756509
4187+152056093+151949456+151788209+151885463+151984207+151766537+151411087
4177+151342394+151741026+152482713+153288930+153819961+153887901+153727641
4167+153881066+154641356+155604748+155929197+155220109+154021879+153205203
4157+153042556+153167241+153275277+153488300+153977082+154477866+154450095
4147+153811458+153246627+153477105+154407846+155274665+155472116+155013814
4137+154358905+153967448+153918705+153958101+153962335+154128659+154595447
4127+155160942+155481803+155342425+154783981+154160109+153882178+153949364
4117+154015815+153989587+154127117+154516079+154913241+155096662+155044886
4107+154846288+154666903+154695195+154965501+155301270+155471039+155389967
4097+155187888+155033835+154853535+154347584+153389736+152334616+151824126
4087+152216318+153178185+153965905+154176201+154029737+153874715+153751340
4077+153582576+153462179+153564707+153961420+154528745+154875082+154568967
4067+153698775+152942288+152855332+153355327+154005984+154524332+154932544
4057+155356706+155665404+155422098+154469237+153388857+152954362+153246250
4047+153736414+154115366+154521766+154969089+155155398+155012181+154879818
4037+154942053+155032597+155149837+155574285+156332315+156991314+157041027
4027+156311468+155221634+154628475+155015877+155907131+156468912+156468822
4017+156273507+156166852+156080757+155883432+155620320+155394847+155176352
4007+154938267+154939433+155576241+156878901+158355079+159379432+159622217
3997+159145796+158286619+157469404+156984407+156873878+157019301+157301394
3987+157693891+158236942+158879616+159325539+159192261+158493524+157816261
3977+157782677+158415376+159185157+159621284+159734882+159813999+159944747
3967+160007646+160156353+160788657+161812346+162498650+162396983+161869055
3957+161489457+161505962+161982168+162996403+164515333+166096802+166912617
3947+166585782+165902276+165896069+166474947+166702214+166149869+165234432
3937+164678463+165260122+167383621+170286749+172106304+171602506+169736880
3927+168618574+169180571+170438219+171074004+171229097+171832177+172804736
3917+172933475+171480243+169181378+167261538+166244002+166194003+167646123
3907+171477336+177602230+184188690+188791819+190310749+188843200+184703181
3897+179248966+175157332+174519699+176940450+179340174+179210807+178394382
3887+179922497+183084396+184735312+184733016+185088520+184846057+182130189
3878+179038258+178913573+181942050+186318934+190823625+194032671+194131468
3868+192353158+191661435+191856069+190223093+186245935+182628031+181997736
3858+185579186+193811342+204921905+211079862+205478124+194421795+185702364
3848+181762378+182389785+186127512+191185121+196624948+202154907+206367172
3838+206818423+203543644+199585934+196788079+194593896+192458324+191081660
3828+190895907+191668863+194334552+200303114+207417412+210106262+207847135
3818+205298166+203063940+198562586+192824036+189420787+190192254+194719388
3808+200347013+203997389+206566165+210918669+215512307+215740400+212389716
3798+209912794+208925381+207590966+205933304+205474124+206917292+210149211
3788+214934308+220458203+225250566+229053344+233773390+240928108+249205509
3778+256441605+263208741+271939816+284110791+299285558+314905368+327449124
3768+335736913+341031621+344193519+346118581+348538183+351941809+354831877
3758+356677319+359974308+367964934+382064720+400275552+416276647+425458865
3748+431390883+439183951+448897345+456083817+460428122+467394073+480319992
3738+497853077+515271488+527904227+534420990+536985693+539221085+543836898
3728+551497531+560777058+569055159+574677779+577308466+576448948+572420392
3718+567552877+564746052+565703344+569755977+573104023+571690367+566185112
3708+560028446+555666488+554349028+555791281+557525171+557013658+554913679
3698+553940384+555729817+560150763+566790560+575775148+585396759+589905110
3688+585919969+578740278+574550116+574584310+576954971+580022038+585050799
3678+594425014+605120565+608410665+604148992+599981830+596409314+588100858
3668+575664708+565713822+561393162+560979818+561362125+561650317+563181195
3658+565802052+566850516+566194979+568374146+576706032+588336916+594215472
3648+588924926+578575120+570604730+566614207+564882398+564289114+565480132
3638+568670376+572031770+573672227+574737699+578812003+587452246+595879539
3628+596793308+592215420+589192236+590554727+595799417+603164216+609656293
3618+612484036+612039835+610600811+609852057+610639706+612481524+613219228
3608+611053480+607096361+604800008+606966474+613380546+620784849+626021610
3598+629055810+631141401+631850472+630583315+629251072+630518228+634328667
3588+637365665+636795381+634131826+632555954+632996136+633984286+633627418
3578+631809496+630162150+630090461+631754097+634660131+638401679+642453451
3568+645191206+644156842+639022269+632963485+629498289+629262912+630402908
3558+631385604+632044729+632132205+631036486+629231266+628358580+629116161
3548+630200686+629973705+628409889+626611558+625303426+624718287+624836692
3538+624957897+624086933+622228179+620441329+619481741+619047802+618386237
3528+617331709+616514638+616381808+616401040+615740336+614581252+613942076
3518+613826254+612724579+609982159+607331522+606638670+607470667+608211241
3508+608599181+609465911+610612436+610380792+607413760+602471148+597925697
3498+595660022+595783486+597287239+599362532+601259283+601775425+600529187
3488+599224607+600031775+602569317+603660587+601008156+596307737+593122623
3478+592500671+592464001+591148549+588583451+585653341+583331405+582819641
3468+584630459+587397242+588973939+588858117+588194722+587515073+586110746
3458+583758419+581429630+579824193+578671352+577609288+576593906+575692767
3448+575052084+574804509+574866869+575126859+575663955+576354906+576640586
3438+576224516+575583618+575149213+574485459+572981563+571023599+569738575
3428+569662974+570204842+570305989+569304564+567239712+564765177+562826014
3418+561875970+561468044+560998727+560513156+560327367+560259983+559668924
3408+558153295+556291599+555412885+556098848+557159333+556777636+554631766
3398+552220488+551239981+552082025+553321912+552781444+550092235+547493984
3388+546983870+547865239+548268070+547938220+547938184+548493938+548708144
3378+547938651+546427148+544676538+542840855+540889206+539022558+537670652
3368+537204780+537856908+539636653+541951198+543631374+543836109+542879749
3358+541953386+541936020+542517392+542679464+541983418+540992470+540440413
3348+540532590+541125085+541936164+542513338+542512584+541926799+540862619
3338+539421263+537897955+536776689+536194313+535662025+534768672+533813963
3328+533359824+533527565+534059601+534653998+534859558+534355293+533576040
3318+533132054+532742428+531886749+531080550+531206060+532210894+533311026
3308+533763838+533235462+532093708+531126011+530698745+530744601+531348398
3298+532502674+533620209+534062292+533779195+533078449+532433891+532605436
3288+534052856+536051042+537237754+537166531+536555306+536187962+536191083
3278+536057823+535130276+533549416+532484232+532683548+533372920+533355052
3268+532527037+531664182+531412337+531862386+532556674+532838229+532454235
3258+531588152+530389384+528940816+527457730+526190969+525410855+525375225
3248+525931804+526557919+527040906+527370397+527107214+525967541+524613339
3238+523783135+523280951+522666928+522074505+521699913+521329195+520766912
3228+520050593+519193766+518219287+517205017+516039546+514585668+513088661
3218+511900514+511030303+510423026+510263501+510547962+510728871+510209680
3208+509035957+507944579+507654772+508094990+508475754+508118743+506956215
3198+505354437+503772788+502485108+501581744+501186269+501294987+501454332
3188+501105215+500231022+499173408+498008763+496683910+495430030+494452358
3178+493473717+492086540+490528644+489627649+489680285+489850215+489150438
3168+487546615+485631026+483857811+482435435+481304876+480213678+479286741
3158+478957429+478999553+478519293+477201904+475764423+474987322+474892490
3148+474899307+474421666+473226163+471396508+469346009+467847315+467424571
3138+467628767+467531890+466891638+466165560+465550245+464781577+463837668
3128+463101938+462673058+462143569+461311716+460480830+459748868+458689065
3118+457097190+455498068+454639411+454789643+455507648+455892143+455256089
3108+453723561+452000614+450607554+449591059+448946393+448925116+449575594
3098+450206768+449935547+448746037+447378128+446304619+445509973+445037247
3088+445019092+445288877+445496625+445488983+445196593+444449883+443322697
3078+442349402+441986004+442082020+442140865+441822497+441081887+440128291
3068+439264252+438579580+437933946+437322255+436988746+437097751+437441450
3058+437502016+436807836+435312659+433444935+431780330+430670115+430097283
3048+429838226+429719210+429611281+429307194+428639422+427590455+426241419
3038+424909140+424096410+423831361+423457773+422508841+421293532+420350054
3028+419844605+419590571+419307869+418923050+418639092+418503894+418118932
3018+417066951+415517667+414246276+413903330+414258440+414428119+413829883
3008+412548518+410939205+409416113+408359109+407763242+407277204+406668276
2998+405887982+404942567+404075371+403639638+403550582+403364542+402926728
2988+402386080+401680059+400626823+399477211+398768140+398614213+398646577
2978+398578404+398324980+397771021+396952443+396181873+395582525+394864878
2968+393808843+392569710+391444281+390652793+390260942+390119250+389967188
2958+389597942+388948397+388208361+387677940+387308909+386700232+385691200
2948+384564193+383617629+382930374+382512976+382389618+382523919+382724850
2938+382626717+381916713+380672233+379324059+378251770+377542376+377090712
2928+376776758+376542853+376359611+376105828+375564391+374718077+373922535
2918+373471086+373158603+372640596+371960373+371335765+370777428+370280663
2908+370003450+369936138+369723797+369055343+368006233+366922892+366148985
2898+365799330+365648129+365334677+364751224+364097409+363549083+363063656
2888+362526238+361903316+361225390+360520553+359822426+359256985+359037073
2878+359214251+359501008+359538467+359238937+358689534+357947489+357139998
2868+356507066+356121063+355738326+355059538+354073542+353100570+352454183
2858+352103415+351796349+351401879+350907732+350286784+349600462+348995911
2848+348524297+348212891+348137434+348124266+347746946+346940532+346175164
2838+345774738+345541335+345227129+344898033+344649274+344334243+343748458
2828+342869780+341874490+341083827+340787562+340920248+341069475+340929577
2818+340519785+339943580+339277674+338667346+338180125+337679592+337079526
2808+336466830+335851623+335144597+334436818+333947731+333674465+333357819
2798+332770276+331892316+330877866+329930046+329152229+328531819+328088048
2788+327872981+327745174+327385149+326703025+325997363+325536944+325205480
2778+324702255+323915180+323006435+322240637+321741144+321365475+320853604
2768+320105997+319286774+318654128+318265686+317880652+317263974+316525409
2758+315961009+315638873+315339486+314818753+313992604+312990138+312120825
2748+311648494+311517889+311394783+311003039+310333007+309527094+308694559
2738+307902568+307231961+306716502+306259994+305731115+305134028+304597614
2728+304224385+304035976+303992633+303924244+303539749+302716793+301718274
2718+300927235+300442058+300079629+299672655+299217151+298802749+298507686
2708+298329970+298185515+297978951+297663041+297244638+296760126+296224950
2698+295595857+294821035+293952601+293175321+292653009+292342230+292075889
2688+291853645+291847007+292029387+292054647+291660661+290977496+290283406
2678+289672737+289121182+288674900+288381398+288165325+287939655+287726130
2668+287535030+287261495+286835540+286359136+285980094+285723028+285503404
2658+285211552+284761753+284145775+283449208+282773542+282177513+281709452
2648+281411249+281256245+281148406+280995161+280741019+280362695+279887906
2638+279405403+279017140+278770820+278644664+278605070+278629343+278617700
2628+278386988+277883692+277295323+276822293+276471381+276158288+275861054
2618+275615882+275468180+275402985+275296886+275046207+274721740+274456655
2608+274248404+273987248+273602644+273128645+272681018+272348064+272120169
2598+271992488+271997368+272010375+271770585+271263325+270802081+270609169
2588+270621925+270749857+270989987+271267164+271429290+271387471+271124736
2578+270664999+270114126+269626725+269306473+269169320+269129869+269023932
2568+268759457+268429984+268211992+268209229+268410896+268696325+268895085
2558+268934231+268885667+268840080+268806604+268735237+268566904+268267176
2548+267860632+267426047+267056837+266829013+266748713+266703934+266545755
2538+266231549+265812106+265334195+264887878+264648429+264692957+264857989
2528+264923274+264854168+264772791+264777509+264836891+264802572+264536033
2518+264051951+263522534+263155620+263048571+263097853+263104347+263029554
2508+263017893+263127508+263231382+263227686+263150705+263027258+262773600
2498+262306257+261712775+261249055+261120944+261287178+261503717+261540028
2488+261371659+261195199+261183322+261214448+260999452+260495098+259993865
2478+259759924+259749357+259734646+259575534+259305228+259018148+258755449
2468+258506582+258269089+258076680+257974438+257955960+257929534+257794802
2458+257560969+257333038+257181712+257089338+257011656+256931679+256851378
2448+256771885+256682488+256557068+256373432+256137768+255868090+255567178
2438+255252614+254997199+254881394+254911606+255026369+255147071+255187975
2428+255090829+254910547+254800771+254852439+254998652+255108159+255109092
2418+255014009+254896159+254846805+254898294+254995674+255065964+255093448
2408+255110509+255136056+255140487+255092497+255039035+255086577+255290558
2398+255603992+255929966+256230824+256663597+257641287+259710535+263368140
2388+269040975+277194840+288346629+302900250+320971866+342395188+366846646
2378+393847235+422633490+452139113+481145029+508490286+533273890+554880310
2368+572737648+586400409+596218394+603117284+606824961+605390243+597446189
2358+583505569+564516166+540630866+512461721+483909084+461638192+450714980
2348+452719660+466343635+486826923+506328090+519115116+525220831+527523894
2338+528366763+528584056+528080042+526744498+524567770+521301854+516548439
2328+510268094+503011188+495400177+487437251+478664752+468956023+458687056
2318+448224729+437702768+427214032+416856117+406560096+396142153+385578320
2308+375034508+364646991+354515841+344907255+336155782+328279722+320935232
2298+313861855+307188187+301189073+295903514+291129110+286673754+282470173
2288+278528860+274915136+271741056+269112395+267074185+265566504+264406343
2278+263384681+262428681+261608076+260966927+260431051+259905509+259368665
2268+258825901+258272013+257764071+257419869+257264129+257172796+257000749
2258+256666629+256133821+255439821+254711805+254045647+253419389+252807698
2248+252317337+252096008+252112154+252137647+252000099+251759090+251578557
2238+251527625+251572673+251670716+251792871+251897822+251943641+251928482
2228+251880707+251808103+251723155+251710884+251846262+252041846+252139908
2218+252168199+252329159+252717745+253214386+253682734+254124118+254587533
2208+255056455+255497732+255936227+256429674+257023569+257729320+258485646
2198+259173942+259732368+260208431+260673657+261161381+261687982+262232038
2188+262694322+262989117+263174350+263389400+263686131+264016394+264345597
2178+264687108+265049376+265377324+265530856+265396843+265059691+264727151
2168+264474050+264225846+263964941+263755794+263591317+263373774+263051208
2158+262691829+262414203+262280046+262280997+262398344+262648790+263106661
2148+263838695+264793709+265947734+267594237+270142292+273570208+277475103
2138+281674612+286367747+291739347+297730694+304150435+310842725+317790628
2128+325077027+332726717+340640990+348686406+356808498+365024526+373228247
2118+381085900+388321923+394950741+401018064+406390561+411018286+415176622
2108+419360936+424038320+429383655+435159557+440904530+446210576+450848599
2098+454782718+458070521+460684919+462474567+463295729+463088913+461712896
2088+458686015+453299848+445092503+434069112+420628810+405559783+389856892
2078+374344777+359626661+346196513+334337393+324114748+315554734+308632772
2068+303177284+298918285+295499159+292528701+289836496+287492494+285512338
2058+283828430+282453793+281399444+280616819+280124628+279958591+280089321
2048+280587935+281670522+283533851+286364339+290388984+295758629+302571692
2038+311026684+321296728+333225851+346201931+359304849+371742829+383239018
2028+393865606+403686785+412726306+420911871+427963325+433646009+437903340
2018+440516518+441111453+439600273+436142970+430822141+423780949+415426638
2008+406172013+396163215+385472400+374410294+363459382+352981877+343148177
1998+334131403+326251935+319778911+314490410+309625586+304610531+299670448
1988+295353430+291809673+288879886+286475676+284550650+282965162+281568154
1978+280293679+279154885+278168422+277276253+276484298+276062308+276236884
1968+276625147+276447377+275491359+274372461+273677509+273373781+273179811
1958+273052202+273076295+273190736+273251123+273231120+273259968+273505731
1948+274089059+275145686+276727173+278297287+278726723+277555906+275767154
1938+274545997+274091552+274023415+274142108+274444437+274871774+275304834
1928+275773505+276645743+278226513+280073283+281451758+282499344+283726924
1918+284600506+284198358+283032689+282563928+283404537+284976032+286335060
1908+286981340+287131016+287317540+287784543+288413762+289094290+289926825
1898+291070427+292369786+293302446+293750648+294435212+295736867+296674371
1888+296170429+294696386+293424422+292745670+292393288+292118317+291831704
1878+291545252+291320586+291285261+291961304+294235662+298198845+301890716
1868+302397564+299338751+295345608+292681121+291582854+291226704+290951268
1858+290604124+290333405+290276840+290424649+290849385+291828690+293607448
1848+296389605+300201354+303755283+304326178+301236650+297420524+295465018
1838+295328798+295672749+295992301+297307286+300637159+304956024+307576055
1828+307613228+306796587+305980808+304343580+301957669+300230399+299870859
1818+300290571+300803626+301587239+303244093+305622756+307452196+307613299
1808+306545998+305755550+306462862+308984366+312526992+315355669+316129719
1798+315515731+315746551+318546271+323349273+326714291+325424279+321173622
1788+318147567+318063930+319881637+322123989+324264405+325952655+326690287
1778+327069580+328955854+333794844+340762481+346103619+346440106+343038454
1768+339039284+336162671+335530277+337639692+340933559+342924784+343552012
1758+344316913+345235490+346106920+348545252+353945807+360642977+364817173
1748+365051365+363489665+362525269+363156730+365248600+367642871+368957712
1738+370005961+373676251+380690317+386205224+385045207+379916805+375088293
1728+371621302+369881492+370204094+372143076+375661197+382138168+392369245
1718+403210901+407825064+404063889+397262199+392325005+391002413+393486349
1708+399064513+405664483+410822558+415000449+421242331+429992261+436623159
1698+437932224+435592348+430548444+424451879+421116031+422187603+426439193
1688+432991477+442923347+455274137+462237002+458632984+451395167+447400302
1678+448305496+452926368+458271811+462209087+466211236+471706767+475822262
1668+475311969+473303127+474820657+480257883+485714089+488148403+489498192
1658+493707012+503299344+518804606+535346600+540902087+536835067+536101346
1648+541272733+545644164+542880359+536613828+533139948+534425439+540543282
1638+551153294+562981233+568108595+563892491+558582139+558651245+564094929
1628+571724812+579234532+586887487+594634808+600783113+605685109+612591749
1618+622926557+632736290+636657815+636446550+637050922+639816089+643181897
1608+645511403+646702780+647717768+649280221+651367175+653701561+656272615
1598+659227806+662619089+666377501+670281875+673958408+677090633+679658458
1588+681957323+684335411+686847406+689233963+691470754+694461610+699793598
1578+708013106+716227734+719614281+719461789+721892048+729245257+738325108
1568+744968313+750172423+757263848+767180146+780467848+800097073+826602941
1558+846684548+849882865+847542522+848320340+851809792+854710301+854998709
1548+854157885+855690198+861004245+868428570+875606251+878599117+871193450
1538+856891764+846459218+842765391+841601714+838069421+832938938+830509540
1528+831998581+835055242+837939390+841663070+846070201+847669683+845004048
1518+840729889+836505461+832650028+830495044+831572034+836455515+845090950
1508+855161104+858191357+848527945+835911926+829124696+828791079+832512893
1498+836397030+836068867+831551223+828254952+829931505+834757362+837396015
1488+834920332+829707324+825124305+822520098+821565676+821452150+822404275
1478+825666460+831682976+838953588+844122679+843349884+836886584+830283852
1468+827990871+830005491+832843280+833163550+832444720+835031633+842766970
1458+851907746+853686773+846029369+837094260+832206114+831610641+833432008
1448+834947816+834381550+832242210+829963654+828562448+829154477+832678732
1438+837847105+840374242+837777282+833610549+831687713+831575837+830691598
1428+828338051+826455616+826329030+827184349+828356494+830315714+832096033
1418+830489949+824938086+818864663+814952395+813462564+813288400+813253309
1408+813023961+812746461+812212487+811527313+811846936+813793024+816175346
1398+817644869+818383003+818518918+817136944+814694127+813456465+814357424
1388+815555977+814757061+812623032+812008542+814406294+819019164+824211075
1378+828945652+833069830+836579375+839178631+840992104+842869444+845196583
1368+847463083+849636796+852596078+856175302+858214751+857187922+854588020
1358+852876304+852785024+853473356+853912677+853484336+851948075+849719106
1348+847990885+847810048+849087968+851038217+853377986+856384773+859707524
1338+862026697+862483671+861687841+860869765+860797215+861730252+863841677
1328+867194136+871223662+874728040+877040611+878871809+881260231+884310218
1318+887557046+890761391+893786118+896502489+899144945+902026222+904855185
1308+907010241+908521097+910228723+912774158+915815175+918554078+920635292
1298+921956269+922096849+920775082+918604885+916684632+915427666+914196390
1288+912280729+910000307+908186404+906673897+904415649+901241874+898293644
1278+896480027+895616958+895231816+895275231+895820974+896807401+898267308
1268+900204138+902287145+904325876+906683800+909404260+911431581+911843059
1258+911364413+911482890+912710793+914335965+915428312+915697774+915411878
1248+914917445+914458103+914132953+913752620+912890268+911228856+908833186
1238+906215990+904078157+902662742+901552384+900439370+899709848+899845476
1228+900612889+901309903+901674880+902078608+902678601+902946198+902606769
1218+902475231+903478163+905396263+907444538+909420263+911445790+913267300
1208+914528500+915339400+916217468+917657711+919909286+922852205+925770726
1198+927664069+928331877+928791650+930072011+932073856+934034511+935465713
1188+936528996+938112116+941073120+944764938+947348478+948288045+949346377
1178+952310466+956776729+960740019+962561457+962397627+962207747+963927070
1168+967402528+970788142+972974198+974369519+975339728+975635743+975393908
1158+975231154+975721138+977516814+981055853+985754693+990188592+993099793
1148+993862900+992818634+991917387+993535670+997535343+1000873881+1001308824
1138+1000224372+1000400402+1002444802+1005019157+1007169117+1008514780
1130+1008540399+1007731149+1008012524+1010569657+1014369762+1017331125
1121+1018368717+1018514607+1020236226+1024696174+1029357986+1029911263
1113+1025412349+1019820730+1018047658+1021948157+1029565806+1036894329
1104+1040567202+1039626487+1035559717+1031607048+1031607120+1037685279
1095+1047618799+1055170787+1055769991+1051181591+1046175757+1043279338
1087+1042630977+1043927556+1046504422+1049472674+1052545625+1055341147
1078+1056654302+1056095284+1055594105+1057095920+1059809204+1061790957
1070+1062772432+1063551470+1063157430+1060300552+1057378012+1058162647
1061+1062160095+1064990853+1064140341+1061503267+1060646727+1062981400
1053+1066873575+1070240746+1072482776+1073741823+1073696327+1071938181
1044+1068866451+1065599673+1063511284+1063495496+1064897994+1066068201
1035+1066196007+1065568529+1064671301+1064516943+1066701205+1070679278
1027+1072965010+1071357348+1067819744+1065448473+1065232400+1066343117
1018+1067362555+1067348418+1066555674+1065723963+1064654796+1062609750
1010+1060028434+1058486002+1059257003+1062461707+1066628368+1069130316
1001+1068034597+1063486813+1057539690+1053032523+1051897192+1053793764
993+1056201992+1056300592+1053439695+1049770769+1047997913+1048569561
984+1049485519+1048855672+1046794409+1044920226+1044748430+1046275720
975+1047846210+1047720198+1045276950+1040861853+1035383257+1030266265
967+1026800208+1024733633+1022600896+1019759518+1016851689+1014200693
958+1011339437+1007889526+1003673853+998715094+994066414+991326220+990424471
948+989362551+986763438+983526729+981168087+979628598+978078057+976481303
938+975119853+973979785+973382374+973836335+974856561+975240770+974842568
928+974836038+976102692+978355127+980758762+982401301+982002453+978768470
918+974151581+970766111+969295584+968457343+967826205+968326092+969771073
908+970366976+969156368+966914840+964399042+961736995+959318146+957750096
898+957223944+957669795+959003330+960572600+961056198+959958111+958548294
888+958399174+959826286+962074630+963867221+963734535+961222684+957758061
878+955284100+954351924+953851534+952610643+950925622+950045545+950248341
868+950002416+947778255+944504373+943065780+945143118+948990729+951155472
858+950537395+949130304+948916026+950105250+952133791+954547975+956148748
848+954944168+950625302+945927753+943950880+944831747+946197359+946528250
838+946553079+947110590+947685827+947918835+948768916+951024078+953965563
828+956318320+957404997+957150963+955912439+954492288+953735712+953771736
818+954424690+955783485+957339407+957714646+956459689+955083528+955430205
808+957618773+960359901+963137627+966358979+969157731+969720912+968107724
798+965816968+963174584+959955599+957190073+955881941+955677852+956365610
788+958490239+961281528+962311370+960695599+958916643+959764715+963247062
778+966976052+968457702+967022625+963982900+961607610+961697598+964115227
768+966578568+966665183+964307834+962038822+962258985+964668863+966915127
758+967800371+968273635+969215857+970133035+970016495+968450813+965775275
748+963046275+961541446+961537571+961824400+961450166+961206753+962046141
738+963580249+965091823+966131210+965949582+964724263+964739548+967854910
728+973072080+978093630+981219325+981016456+977007957+970993593+965522676
718+962235016+962399493+966410647+971999324+975076294+973481692+968918910
708+964772486+962753562+962151917+962362823+964649344+969468528+973471861
698+972306820+966064615+958985677+954142884+950787697+946644431+941398556
688+936912774+934390661+933055045+931729547+930499204+930078110+930762352
678+932475287+934148755+933844201+931451760+928925485+927040251+924639485
668+921638224+920205372+920161741+919512519+918119924+916611794+914895127
658+913179752+912626976+913773359+915057594+913539059+907748375+900113791
648+895216459+895102861+897388091+898335481+896954440+894411300+890273129
638+883531611+876527663+873346281+874920575+878514797+881556102+883303770
628+883620308+882935420+882139160+880810792+877617928+873458085+871967393
618+876295516+883973587+887669639+884085247+878809448+878815046+883358093
608+884781329+878075620+868038907+862050378+862500893+869113816+879491896
##END=
