##TITLE=<SNM>
##JCAMP-DX=4.24
##DATA TYPE=INFRARED SPECTRUM
##DATE=2/5/2025
##SAMPLING PROCEDURE=Instrument type and / or accessory
##ORIGIN=Admin
##XUNITS=1/CM
##YUNITS=ABSORBANCE
##RESOLUTION=4
##FIRSTX=4497.3318
##LASTX=599.83466
##DELTAX=-1.4281778
##MAXY=1.8750529
##MINY=0.40432563
##XFACTOR=1
##YFACTOR=1.7462791e-09
##NPOINTS=2730
##FIRSTY=0.42670697
##XYDATA=(X++(Y..Y))
4497+244352099+246363264+248884417+250607129+250742788+249563686+248133130
4487+247456302+247684938+248055240+247787301+247174727+247392321+248907798
4477+250465121+250346375+248468361+246282558+244964127+244650911+244942623
4467+245378374+245715534+246039194+246469296+246978807+247594162+248312410
4457+248758622+248406803+247216010+245684064+244360530+243614465+243699488
4447+244614816+245861911+246766606+247024032+246585687+245499527+244286207
4437+243626974+243370111+243013803+243173986+244931360+247650430+249203709
4427+248708294+247351447+246185673+244843128+242910706+241220420+240888381
4417+241868406+243211703+244262280+244947931+245233414+245014728+244495336
4407+244103326+243965328+243853391+243672200+243558453+243459862+243116115
4397+242543135+242099960+242079140+242526598+243289064+244054789+244587203
4387+244944535+245123508+244731173+243591442+242311035+241531281+241011684
4377+240225342+239399680+239212311+239773976+240502292+240876571+240925619
4367+240986136+241196408+241283207+240837080+239808091+238657131+237997471
4357+238073109+238564461+238972514+239152835+239314571+239578500+239758702
4347+239568311+238945037+238191036+237741734+237712841+237818003+237832356
4337+237885432+238119392+238358080+238431874+238544289+238962103+239629647
4327+240386498+241117426+241495101+241178181+240355608+239597426+239180909
4317+238952649+238680835+238177451+237369077+236504556+235964872+235786325
4307+235767723+236017743+236806286+237833431+238307308+237946768+237317793
4297+237004185+237021337+237112078+237109262+237017753+237037515+237299601
4287+237486953+237084618+236022077+234771194+233885801+233652660+234013678
4277+234639443+235138527+235339584+235506559+236166236+237371927+238320568
4267+238222984+237297280+236349509+235685703+235074665+234561946+234558191
4257+235088711+235651827+235961834+236248853+236715340+237258471+237773631
4247+238258601+238710121+239252689+240023483+240700209+240688962+239908577
4237+238798319+237589180+236250594+235081816+234600993+234810412+235207662
4227+235605116+236318142+237298338+237774638+237335576+236807054+237131721
4217+237776106+237470177+236295171+235616414+235996393+236564151+236514420
4207+236111419+236068412+236668562+237590033+238256434+238368593+238148490
4197+237980781+237937449+237780168+237268592+236428423+235652885+235431895
4187+235862867+236486022+236702967+236370705+235851962+235613018+235825560
4177+236167413+236140073+235783595+235804893+236678119+237889511+238479966
4167+238160300+237484888+237086888+237133291+237403756+237529790+237188517
4157+236346608+235331853+234580497+234422140+235041898+236281159+237483540
4147+237984689+237764415+237264939+236730000+236088021+235319838+234657704
4137+234465846+234935286+235846279+236713650+237243590+237556720+237869031
4127+238110978+237965831+237289242+236408661+235819297+235682102+235822881
4117+236069334+236354322+236574442+236560601+236272814+235944529+235816174
4107+235776103+235586002+235427509+235731850+236377447+236596952+236009790
4097+235321511+235425427+236119355+236467693+236215557+235970486+236163454
4087+236621817+236972220+236936091+236446172+235735178+235137469+234800104
4077+234679105+234631217+234498221+234266342+234001885+233580521+232880381
4067+232265486+232408108+233561543+235201911+236411084+236625231+235991239
4057+235009131+234126826+233715890+233926435+234392410+234545323+234308923
4047+234052059+233950994+233796357+233336730+232580681+231840743+231535514
4037+231805484+232384198+232940607+233439827+234098650+235003858+235810132
4027+235949990+235322074+234676596+234973872+236288105+237642904+238051964
4017+237503354+236706926+236134783+235690737+235159979+234589320+234222465
4007+234330238+235046079+236134731+237122113+237837612+238411377+238682269
3997+238360350+237716374+237163088+236464791+235430120+234772645+235224831
3987+236476277+237721613+238556935+238929780+238845934+238381819+237733287
3977+237297160+237569861+238564461+239521567+239614475+238774478+237624780
3967+236928650+237212546+238527428+240355318+241923445+242690160+242528066
3957+241679040+240702803+240262359+240720944+241917147+243173065+243623936
3947+243181154+243001396+244031375+245384365+245316544+243687645+241992153
3937+241401749+242168413+244142868+246601610+247931783+246983688+244863300
3927+243911143+244982610+246578759+246964676+246616714+247336139+249461306
3917+250973079+249715779+246140175+242653656+240970503+241270254+243354666
3907+247501391+253591664+259914770+264046408+265114018+263585297+259754229
3897+254691665+250937121+250427900+252416179+253745532+252670158+251868064
3887+254206319+258115943+259874921+259754399+260504578+261076039+258788948
3878+255442969+254851029+257727739+262372574+267053931+269636710+268382892
3868+265424008+264249786+264647940+263712833+260688978+257957125+257771821
3858+261245284+269117779+279920725+285576186+279082076+267481661+259082436
3848+256006580+257586226+262213927+267889423+273146917+277482377+280117276
3838+279588003+276230163+272596925+270070772+267924887+265644384+264168978
3828+264213828+265509868+268614429+274671440+281512010+283681225+280855645
3818+277835818+275463021+271241461+265857813+262595732+263316454+267603513
3808+272691131+275648479+277606824+281225042+284943730+285029709+282622934
3798+281050387+279918455+277581088+274862666+273713344+274933491+278350056
3788+283346335+288609700+292701966+295972496+300565689+307423155+314597370
3778+320028751+324751477+331328955+341294276+354450461+368490709+380103804
3768+388231131+393935367+397662622+399987070+402412107+405187614+406658583
3758+406396583+407068957+411995964+422274279+434697540+442513306+444152275
3748+445952347+451694470+458186959+460191177+459952080+463892355+474667978
3738+490917034+508049880+520461502+526335273+528617056+531241460+536636525
3728+545379668+556063270+565947936+573404220+578715559+582280002+584434369
3718+586242565+589283282+594663772+600939964+602745429+596077125+584730911
3708+574921063+569906506+570167277+572970603+573399305+569774721+565339765
3698+562779053+562532719+565446361+572899403+584212577+594799892+597865456
3688+591858501+583402411+578805327+579620612+584106425+589931728+596856708
3678+605438473+611912838+610301244+604361461+601709922+601124961+596351413
3668+587269267+579277650+574606021+571535541+568391780+566343018+567990485
3658+573350496+578481615+580794220+583628435+591042600+600915525+603652668
3648+593678712+578611318+566965729+560533689+557340196+555594462+555555073
3638+558049467+562153611+566055521+569991905+575883528+582822502+584671179
3628+578079536+569754924+566031526+567467816+572508041+578872499+582778744
3618+581991515+579713043+579937293+582477287+584669200+585058104+583756773
3608+580945085+577649263+576281238+578584285+583801555+589179997+592803831
3598+595119166+596841417+597496144+597023274+597103144+599585728+603937468
3588+606638090+604736917+599912033+595569030+592921041+591683675+591697464
3578+592945821+595052676+597431361+599759735+602489164+606696183+612204670
3568+615226067+610990581+601216436+593050608+590442690+591420582+592268294
3558+592331643+593499926+596436129+599285909+599738163+597467200+594169876
3548+591479973+589725364+588672926+588044003+587093144+585334781+583695471
3538+583467535+584430956+585276005+585456360+585433969+585568246+585695969
3528+585440864+584504886+583063476+581935060+581899153+582659895+582788916
3518+581133154+578116331+575351199+574186057+574712651+575689178+575485612
3508+573606967+571070488+569118765+567996868+567071608+565950018+565121967
3498+565231259+566126141+567125673+567967787+568623982+568304640+566004118
3488+562298093+559330147+558531723+559242530+559834556+559409744+558046975
3478+556252739+554516254+552943094+551290848+549437563+547762551+547108438
3468+548040866+549988937+551507657+551512196+549837901+546899650+543588537
3458+541034958+539841998+539802848+540382006+541016732+541017312+539965420
3448+538375432+537376105+537473314+537887373+537304905+535311642+532970571
3438+531648659+531374610+530722784+528676446+526284177+525493432+526585873
3428+527785455+527483691+525937255+524451030+523813915+524093937+525085789
3418+526122867+526122731+524718047+522856980+521576845+520852181+520243259
3408+519947775+520425970+521315630+521451682+520115297+517885259+515986134
3398+515113335+515139787+515537668+515730585+515420321+514740473+513867845
3388+512595799+510737428+508772291+507382148+506634342+506291278+506372274
3378+506681240+506546485+505748334+504867924+504369386+504297504+504819763
3368+506026547+507298899+507765250+507338049+506674004+506149014+505332022
3358+503694862+501688186+500672714+501595380+504060079+506642466+507841126
3348+507247735+505892270+504851335+504066769+503095259+502258265+502300760
3338+503230082+504074312+503896380+502848004+501861886+501285117+500395901
3328+498637469+496801660+496231956+497161312+498480597+499083238+498922850
3318+498656208+498735839+498929062+498507766+497063592+495114838+493517443
3308+492579656+492204473+492365885+492941937+493542906+493901944+494177597
3298+494708492+495466094+495880495+495470497+494429733+493323605+492587916
3288+492486987+493122020+494389491+496124235+498015134+499358754+499527300
3278+498760789+498021073+498017182+498429330+498170777+496725715+494983428
3268+494101789+493931844+493504234+492577335+491691293+491220403+491064793
3258+491052642+491190810+491344508+491040389+490109974+489221168+488990023
3248+488987190+488429911+487362694+486372412+485655700+485007697+484352731
3238+483897508+483837878+484025914+484058817+483717596+483094680+482336020
3228+481533568+480734051+479857054+478897696+478224196+478115075+478150333
3218+477691970+476705510+475628668+474706309+473826957+472926886+472275129
3208+472206727+472691782+473307428+473505327+472880705+471511280+470093865
3198+469285201+468939099+468482408+467888846+467714157+468142996+468486231
3188+467836419+465953165+463329478+460756341+458996920+458325912+458150505
3178+457570870+456336336+454790071+453156428+451450321+449829853+448620816
3168+448034217+447889120+447690914+447132235+446359171+445648228+445088935
3158+444578963+443893039+442897569+441815095+441017865+440525301+439985600
3148+439114200+437975954+436921093+436290498+436104647+436063176+435877223
3138+435519242+435066340+434378334+433172949+431497562+429818215+428547638
3128+427757064+427290816+426930685+426472253+425794691+424978860+424402364
3118+424507628+425181913+425631709+425278610+424400930+423530043+422735612
3108+421833596+420821605+419815349+418852440+417943427+417153468+416570145
3098+416325689+416573900+417217739+417781845+417862909+417558687+417123534
3088+416461604+415362303+414036568+413042087+412698954+412776196+412781179
3078+412398590+411602145+410595991+409684725+408934598+408118902+407303787
3068+407019499+407411509+407809629+407525921+406497547+405027329+403524890
3058+402436341+401962993+401992244+402372786+402887741+403063967+402512319
3048+401367724+400039600+398745096+397559064+396636227+396067787+395706188
3038+395326773+394779426+393940009+392811081+391716183+391064459+390835806
3028+390558686+389878018+388923950+388048352+387467146+387231292+387197603
3018+386952430+386239712+385493305+385324009+385539350+385396233+384740448
3008+384132345+383902771+383724361+383133530+382080853+380894719+379929251
2998+379347431+379089219+378907396+378528800+377894655+377190538+376633907
2988+376246881+375769266+374905069+373780441+372879791+372392414+372063720
2978+371786906+371754549+371900874+371751443+370996298+369845116+368710078
2968+367795330+367093671+366627355+366480586+366564381+366563834+366217118
2958+365535187+364706863+363869323+363054651+362346609+361915449+361761205
2948+361585935+361120438+360474722+359982943+359749477+359530382+359112499
2938+358576143+358017772+357320243+356473794+355821320+355643456+355717250
2928+355579560+355103823+354582349+354247612+353905674+353184969+352037780
2918+350825979+349998747+349735245+349736201+349439829+348623520+347614635
2908+346815221+346338050+346164555+346285862+346570048+346717875+346473453
2898+345834837+344988013+344073743+343189339+342560894+342399072+342582739
2888+342748383+342619328+342078126+341155835+340131488+339413821+339219813
2878+339437611+339725757+339711285+339248040+338536244+337875339+337340007
2868+336829967+336320302+335876684+335528568+335274930+335094711+334841039
2858+334310793+333547696+332863580+332417539+331996448+331362883+330626067
2848+330127769+330059436+330288157+330543740+330683990+330704367+330562410
2838+330177056+329623907+329140558+328853402+328642294+328365275+328084093
2828+327922852+327799054+327471451+326835360+326047073+325335823+324762945
2818+324226282+323687263+323268357+323050797+322925566+322764904+322596052
2808+322469523+322297223+321963954+321489719+320951486+320336147+319619436
2798+318932727+318475319+318259841+318083650+317747822+317231228+316686851
2788+316285011+316005501+315654074+315149529+314632151+314181330+313630366
2778+312836651+311972317+311356262+311079176+310945377+310746112+310461721
2768+310199004+310025748+309867784+309537075+308908118+308077814+307284202
2758+306682619+306269106+305970925+305731999+305499796+305152841+304535523
2748+303671974+302859418+302393853+302270737+302247562+302093044+301700932
2738+301067571+300255323+299390477+298663594+298236872+298098431+298063308
2728+297955279+297760896+297578970+297412541+297059305+296323855+295332719
2718+294475245+294013230+293865778+293753824+293465985+293014380+292584107
2708+292313130+292138680+291902416+291562969+291239326+291037638+290891483
2698+290635525+290216413+289736717+289288559+288849651+288373811+287898791
2688+287500125+287185220+286897279+286606983+286346075+286141674+285928483
2678+285537889+284861300+284088151+283621203+283609376+283743039+283686925
2668+283496279+283392175+283372344+283294249+283137769+282944990+282638873
2658+282098729+281363961+280657797+280211209+280084697+280139343+280153098
2648+279975678+279622494+279241047+278949813+278727850+278523295+278387431
2638+278349271+278246857+277893604+277377027+277004029+276945936+277077362
2628+277171329+277127213+276952062+276625927+276131896+275600676+275277340
2618+275279866+275436210+275416413+275066607+274558547+274136364+273831459
2608+273571985+273408150+273415164+273518858+273608626+273675645+273712815
2598+273636700+273406375+273100736+272831364+272665293+272640820+272750453
2588+272847525+272675140+272148665+271595055+271514776+272013262+272611875
2578+272761768+272434660+272037871+271870299+271879565+271870145+271745784
2568+271562954+271440470+271411201+271376488+271246632+271077625+271040387
2558+271283068+271763311+272211639+272394350+272368887+272304121+272169452
2548+271829459+271330666+270890631+270660408+270599294+270543351+270360931
2538+270043398+269652633+269243301+268871343+268599428+268448426+268388609
2528+268381970+268396664+268404412+268387380+268305923+268072458+267648380
2518+267172319+266879736+266848608+266921600+266912794+266785787+266633028
2508+266607650+266830910+267213705+267450020+267347708+267053897+266823418
2498+266740954+266765256+266826166+266799798+266602445+266342595+266197311
2488+266177480+266168742+266107987+265983079+265754478+265396019+264967078
2478+264589881+264361843+264299927+264371451+264537249+264698183+264664477
2468+264340271+263913173+263675117+263657334+263625795+263450065+263256722
2458+263158506+263048276+262771769+262354979+261970580+261761110+261717250
2448+261683749+261513479+261231700+260999685+260924423+260941097+260853803
2438+260511507+260019437+259734534+259914958+260369328+260603528+260384790
2428+259992643+259799915+259824337+259857974+259798294+259664324+259500915
2418+259397955+259423964+259517811+259586076+259634168+259701511+259784282
2408+259865483+259908166+259851284+259718748+259664939+259837904+260259268
2398+260871876+261652654+262673587+264129947+266398163+270107771+276094282
2388+285163730+297847319+314381278+334822130+358990920+386279271+415718645
2378+446366987+477467379+508113571+537163358+563830705+587740498+607989117
2368+623301786+633788752+641162777+646321953+647935117+644365417+635743512
2358+622847484+605454311+583065661+556624816+530014162+509099382+498318741
2348+499242329+510869384+528757784+545384924+555618150+560210114+562244949
2338+563654411+564735998+565222418+565329048+565332461+564745999+562995896
2328+560382790+557273194+552936062+546330425+537676504+528238494+518771915
2318+509039684+498767172+488376255+478545108+469339335+460081954+450000993
2308+438743659+426499320+413967996+402023919+391142520+381163751+371649694
2298+362408628+353589165+345307321+337399124+329710500+322439589+315913992
2288+310161527+304945759+300106609+295671585+291733597+288354868+285527752
2278+283155603+281087626+279199576+277449013+275857847+274451798+273220763
2268+272114993+271071413+270076472+269188928+268453136+267825766+267231880
2258+266629580+265994667+265331185+264698627+264141757+263616511+263056194
2248+262475569+261958395+261566043+261271413+260980298+260637557+260279765
2238+259943493+259601555+259274806+259107728+259191250+259377117+259412922
2228+259225945+258949285+258703942+258480443+258230765+257982895+257823565
2218+257781139+257758748+257629233+257383941+257133597+256992835+257009969
2208+257136122+257209234+257069240+256750819+256472436+256400092+256497506
2198+256603828+256592616+256467094+256338859+256314215+256411390+256587137
2188+256788058+256958293+257059564+257101069+257100420+257026575+256845980
2178+256613914+256451103+256414905+256440351+256425794+256340548+256224208
2168+256129388+256106810+256197568+256365823+256471514+256389767+256151677
2158+255901247+255726592+255609040+255525211+255495567+255502325+255456554
2148+255311304+255163442+255173050+255384722+255684746+255955979+256211903
2138+256528157+256924672+257386722+257925894+258554766+259261426+260034268
2128+260866825+261777254+262852953+264179866+265695975+267232512+268710204
2118+270164243+271585344+272864284+273903683+274691783+275251400+275551338
2108+275470376+274870363+273761914+272383701+271040131+269863127+268796047
2098+267765403+266763550+265799430+264891185+264098785+263459895+262896284
2088+262290656+261677673+261241717+261072250+261032111+260945756+260812110
2078+260744767+260792757+260897219+260956576+260895957+260751662+260717222
2068+260990759+261497676+261890147+261948923+261828368+261746433+261676376
2058+261544813+261480968+261650145+262028742+262468759+262848960+263133606
2048+263371612+263624976+263890867+264119776+264259821+264281973+264238045
2038+264260709+264449546+264798601+265201789+265487358+265570112+265594721
2028+265764427+266069605+266368314+266643336+267010190+267548629+268192177
2018+268707678+268852519+268659211+268427435+268360706+268407109+268488480
2008+268639380+268853970+269014170+269053508+269059686+269165189+269390718
1998+269652753+269982471+270622573+271648848+272592881+272857338+272448057
1988+271839187+271333055+270976150+270796853+270784497+270855048+270983591
1978+271201065+271476599+271740749+271973668+272271217+272872442+273902540
1968+274960473+275318641+274786688+273979747+273538296+273549150+273823523
1958+274266579+274792678+275229060+275485719+275649144+275871670+276278084
1948+277003995+278275306+280194091+282147811+282849300+281747831+279901816
1938+278672743+278376218+278579152+278906294+279232719+279534227+279794077
1928+280095636+280823885+282304342+284064890+285270820+285992823+286752046
1918+287015650+285854399+283877469+282722600+283094626+284321906+285267066
1908+285333641+284797149+284291068+284117966+284168447+284306991+284642887
1898+285403851+286482776+287360285+287940808+288923718+290506982+291497026
1888+290861993+289344502+288271141+287953266+287981801+288072184+288209635
1878+288482694+288939385+289579810+290774750+293409940+297769907+302070073
1868+303276448+300716418+296981722+294559109+293889159+294172423+294618738
1858+294901252+295060513+295271997+295645269+296281360+297387385+299237803
1848+302221007+306495915+310697678+311853537+309083388+305345484+303376524
1838+303262522+303681121+304032138+305289029+308578843+313004378+315827193
1828+315980243+315126763+314180375+312369618+309819589+308026752+307733418
1818+308258340+308823777+309668109+311482518+314031626+315898496+316008129
1808+314956374+314258026+315052252+317667440+321369880+324389059+325268821
1798+324597062+324617814+327160846+331834763+335297526+334197473+330034246
1788+326961548+326706067+328175943+329939051+331716699+333373006+334338781
1778+334967329+336979637+341806193+348682227+353972471+354317584+350795362
1768+346431436+343119470+342263772+344447800+347915887+349901367+350349184
1758+350999303+351945589+352880816+355409615+361046234+368099518+372439244
1748+372389513+370210673+368600547+368784486+370646851+372897130+374089408
1738+375146897+379055770+386403343+391921147+390217942+384428375+379186872
1728+375590413+373860652+374058040+375493511+378197307+383917311+393784331
1718+404677199+409311624+405080883+397376149+391297105+388737212+390086942
1708+394797721+400797031+405547677+409492696+415590239+423982740+429779441
1698+430040758+426778762+420915060+414096675+410191829+410733271+414298329
1688+420000619+429154033+440972810+447422326+442987473+434810654+430082605
1678+430541992+434889739+439903682+443312277+446583523+450969908+453353713
1668+450834846+447194151+447430552+451465271+455140099+455638022+455230550
1658+458004009+466577207+481509710+497590902+502196349+497105813+495854862
1648+500862388+505232389+502744276+497174522+494707536+497149776+504404201
1638+516011153+528993195+536084877+534403721+531264431+532980163+540029316
1628+549784177+560184173+571323306+582662148+591814402+598907381+607813199
1618+620705814+633666148+640558224+643044495+646898244+653822405+661648274
1608+667833606+672066975+675637767+679253136+682428061+684641750+686199483
1598+687845756+690180546+693362229+696946811+700243452+702971037+705356003
1588+707786364+710531767+713529408+716386083+718868530+721676668+726444551
1578+734029310+741902896+745479559+745928195+748970686+756665215+765920480
1568+772853037+778300222+785409039+795674076+810455167+832705649+860893116
1558+878256867+876544036+870787953+868687106+868705811+868658435+868050606
1548+867749422+869232132+872781147+877055885+880629886+880710711+872952219
1538+861168155+853830992+852111949+851336598+847200711+841444969+838449854
1528+839117756+841348034+843788976+847040971+850411543+851219524+849445529
1518+847660337+846223843+844026264+841677684+841280588+844883055+853739244
1508+865651305+870385260+860099743+845286499+836250432+834033398+836112333
1498+838578260+837669861+833772832+831566242+834439983+841180990+846213057
1488+844474832+837354888+829821191+824894456+822769375+822586357+824255703
1478+828299433+834375746+840749284+844397010+842010065+834515074+827846702
1468+826100763+828518154+831160545+831135970+830572035+833560324+841156483
1458+849040787+848770254+839421330+829359517+823276719+821085898+821093544
1448+820962476+819061507+815889791+813124045+812085739+813695012+818329914
1438+824464252+827948962+826108613+821948014+819101784+817669043+816299516
1428+815139016+815457471+817326696+819613906+821986856+824897801+826967110
1418+825278923+820207604+815191033+812062324+810362668+808909858+807322157
1408+806579368+807459096+808785275+809004063+808966791+810456327+813223917
1398+815587924+816599540+815909724+813356418+810168933+808286396+808170141
1388+808502386+807800761+806488235+806802252+810192348+815604854+820689075
1378+824516679+828276838+832846206+836778938+838181778+837655935+837057526
1368+836923250+837052680+838054192+840414377+842893138+843711700+842968638
1358+842166186+842174105+842608269+842609771+841978458+841448519+841750454
1348+842741658+843805359+844778746+846013928+847679042+849254934+849921402
1338+849666706+849557005+850502745+852240151+853942741+855451734+857169889
1328+858966617+860129233+860417447+860607974+861933812+865048186+869312957
1318+873256952+876082771+878265605+880523188+883062500+885938220+889259573
1308+892814049+896140795+899127923+902147068+905467260+908753184+911343353
1298+912930849+913686540+913829008+913433346+912597990+911506232+910389762
1288+909524029+909004876+908670242+908439029+908276627+907664566+905813431
1278+902849990+900266579+899700596+901334649+903617491+904676550+904127565
1268+903287635+903518985+904951452+907013525+909511673+912407258+914832568
1258+915672361+915320047+915658094+917962575+921475342+924304437+925448623
1248+925642699+926293808+927827444+929062763+928459644+926059660+923496661
1238+922143585+921950533+921915581+921148422+919538739+917853897+917243064
1228+918249560+919995635+920691389+919553348+917796145+917040864+917441237
1218+918112757+918653550+919267455+919943617+920523049+921240648+922528598
1208+924485202+926731454+928589005+929438970+929280322+928998116+929798110
1198+932233114+935588804+938594500+941024179+943581308+945991667+946748791
1188+945458042+943944203+944305869+947007924+951105993+955232324+958249830
1178+959915694+960974549+962145699+963403135+964518922+965770556+967539227
1168+969326876+969862686+968745056+967549262+968470359+972148872+977189268
1158+981350891+983168371+982982623+982432819+982786908+984279107+986623250
1148+989149864+990975468+991950357+993004501+994763752+996550445+997458502
1138+997613600+997732722+998158557+998825640+999653077+1000543522+1001246922
1128+1001592342+1001621218+1001441818+1001479910+1002667102+1005420082
1120+1008730240+1011411201+1013571711+1015732632+1017400203+1018223407
1111+1019382543+1021428369+1022534189+1021263441+1019180616+1018561523
1103+1019504259+1020628920+1021620056+1023502183+1026420979+1028899671
1094+1029817764+1030342378+1033008185+1037934578+1041307334+1039359468
1085+1032655529+1025288262+1021594320+1023322442+1029128017+1036657208
1077+1044107622+1049780285+1052366563+1053113311+1054754259+1057588679
1068+1059567674+1059640512+1058307507+1056211847+1054863482+1056405241
1060+1060169905+1062586818+1062757071+1063965561+1067764699+1070947201
1051+1069873602+1064740912+1058759010+1055530838+1057004879+1062183579
1043+1068049636+1072254676+1073741823+1072306693+1069222424+1066162867
1034+1063326330+1059838207+1056164267+1053752678+1052568217+1051321362
1025+1049667921+1049038452+1051203878+1056058388+1061137626+1063926241
1017+1063651339+1060660456+1056792712+1055054009+1056208093+1057307087
1008+1055813318+1053321109+1052711573+1054098986+1055444620+1055693991
1000+1055488856+1055393899+1055059607+1054451095+1054361600+1054094821
991+1051163260+1045501656+1040742784+1039655327+1040970311+1041848878
983+1041245349+1039806602+1038395570+1037506694+1037369004+1037718725
974+1037828904+1037240325+1036231031+1035485102+1035161459+1034333886
965+1031412496+1025997259+1020387468+1017584040+1017828564+1018387516
957+1016204751+1010171103+1002056883+995485378+992748781+992959993+993985807
947+994919532+995675700+995658839+994071206+990832454+986719435+982759192
937+979822580+978465272+978323008+978226209+977788427+977988989+979224513
927+980042119+979250931+977830956+977228452+977432700+977658656+977448196
917+976562188+974775426+972389301+970716815+970752654+971919981+973177144
907+974125341+974491991+973713091+971653065+968914216+966313329+964953154
897+965925108+968923295+972061698+973630149+973316063+971484861+968661158
887+966049554+964908441+964973907+964702691+963310705+961518550+960092568
877+959016170+958457355+958948315+960321665+961700066+962222496+961258189
867+959160072+957727332+957997455+958332908+956783299+954210127+952571432
857+951642827+950306408+949571265+951250032+954438063+955953336+954455130
847+951731640+950047207+950064615+950763646+950637219+949513855+949012109
837+950330574+952197069+952608637+951911654+952047432+953534853+955218602
827+956372550+957004818+956797702+955814349+955431793+956723499+958764000
817+960033041+960170254+959015487+956313774+953597588+953704217+957709173
807+963885357+969707589+973286299+973336884+969866441+964808570+960873039
797+959599287+960899321+963864059+966963141+968032782+966363777+964281771
787+964135138+964861884+963796954+960813512+958373935+958275634+959767492
777+960871742+960835016+960271285+959754794+959253868+958567056+957793685
767+957253097+956973279+956127411+954217773+952633349+952861353+954091825
757+954939400+956074369+959291209+964409357+968721504+969449207+966653970
747+963391052+962398893+963698858+966009005+968511727+970507174+971711978
737+973013923+974757200+975577196+974799046+973383850+972448486+972909546
727+975010394+977567318+978198357+975957430+972927568+971591764+971660097
717+970847883+968600471+966492456+965363152+964195552+962332539+960600799
707+959440230+958690615+958541662+958599687+957428400+955081390+953949493
697+955118253+956554885+956152396+954466530+953559769+953874197+953866824
687+952955626+952225194+951773076+949702675+944381097+937478918+933238858
677+933141035+933651928+931806869+930130287+931330722+932057878+928013465
667+924605075+927673985+932011390+930930008+924493121+917769863+915210891
657+918186551+923586156+923997587+915942826+906803474+906021843+913569466
647+919319746+914973740+904954456+899245202+900916869+904383967+903132333
637+896911026+889988913+885275916+882691549+880756517+877825297+874651601
627+873827782+875660349+877984081+879916997+882627722+885290797+885851933
617+884771439+883111241+879481536+873496016+869503006+870355291+874041041
607+876793339+876473109+875293494+878654714+888346532+899267047
##END=
