##TITLE=<SNM>
##JCAMP-DX=4.24
##DATA TYPE=INFRARED SPECTRUM
##DATE=3/5/2025
##SAMPLING PROCEDURE=Instrument type and / or accessory
##ORIGIN=Admin
##XUNITS=1/CM
##YUNITS=ABSORBANCE
##RESOLUTION=4
##FIRSTX=4497.3318
##LASTX=599.83466
##DELTAX=-1.4281778
##MAXY=1.7612609
##MINY=0.20189053
##XFACTOR=1
##YFACTOR=1.640302e-09
##NPOINTS=2730
##FIRSTY=0.22616088
##XYDATA=(X++(Y..Y))
4497+137877588+138044041+138483526+138609863+138260150+137587632+136810180
4487+136173608+135985670+136556834+137829595+139048295+139270599+138391183
4477+137209167+136428008+136140296+136273392+136810916+137403655+137445125
4467+136782182+135905419+135391968+135509730+136175952+136907455+137068395
4457+136575203+136123989+136376281+137138663+137666693+137571135+137087754
4447+136555199+136026396+135472974+135029392+134779344+134536699+134159106
4437+133876391+133941835+134166546+134196252+134018616+133817805+133609736
4427+133356954+133136848+132984248+132862744+132768639+132562714+131925506
4417+130849877+129905263+129670903+130134626+130837468+131357650+131590710
4407+131757663+132095975+132454527+132458615+132123919+131793955+131457950
4397+130811259+129999704+129598192+129828436+130383983+130923642+131225735
4387+131047154+130297255+129251994+128318790+127681102+127319688+127166625
4377+127108285+127019212+126884363+126751195+126545443+126176779+125859062
4367+126010907+126762169+127712543+128204872+127881158+127083039+126573059
4357+126703311+127106777+127310422+127246540+127086246+127002888+127094713
4347+127183613+126841885+125970146+125168511+125221355+126202933+127200755
4337+127159684+126063242+124947714+124669450+125067374+125393922+125100532
4327+124192119+123262676+123081315+123805705+124794124+125355232+125372819
4317+125143347+125042728+125322700+125848505+126169276+126142622+126165442
4307+126524775+126961926+127135220+127158258+127436104+128139619+128973721
4297+129391213+129079236+128297115+127657046+127518046+127721745+128018387
4287+128412896+128773673+128501805+127245059+125704917+125004437+125409229
4277+126188089+126557552+126391498+126074925+125916766+125878048+125920581
4267+126279270+127049345+127847192+128277774+128452449+128783939+129503224
4257+130428788+131063333+130975115+130195691+129260379+128850991+129273079
4247+130164141+130880119+131221774+131450301+131652793+131609442+131251825
4237+130790002+130376262+129950485+129456284+129060368+129082988+129666943
4227+130558113+131302971+131588012+131341452+130761531+130316259+130370475
4217+130760105+131089278+131318178+131635641+131993103+132214545+132252981
4207+132083684+131785625+131725822+132098573+132522669+132661234+132776070
4197+133149502+133512224+133516194+133266428+133057686+132988127+132994749
4187+132984793+132879950+132692384+132506090+132331243+132150618+132123401
4177+132485869+133196759+133937229+134488361+134872041+135154202+135316577
4167+135326915+135229376+135120490+135010760+134787956+134499453+134560183
4157+135321392+136435058+137056294+136798561+136140087+135701728+135455396
4147+134950794+134060350+133133114+132583808+132596980+133064599+133652079
4137+134076002+134337342+134561145+134725319+134744950+134768188+135143628
4127+135918918+136536376+136349392+135376016+134264612+133642276+133788481
4117+134710620+136159092+137631419+138552123+138540885+137736035+136873898
4107+136639002+136878158+136920183+136625594+136489700+136754674+137110192
4097+137239590+137098909+136745971+136373692+136342924+136754937+137183094
4087+137153134+136697015+136205567+135918019+135689110+135172998+134325205
4077+133760710+134249305+135687184+136958437+137126962+136483941+136015213
4067+136130766+136385684+136249972+135711957+135136742+134863165+134991028
4057+135340260+135554388+135398546+135028602+134834223+134976076+135276406
4047+135598920+136017266+136425019+136386265+135740355+134983697+134698810
4037+134907452+135262043+135612638+136085862+136729310+137300865+137429218
4027+136980939+136284166+135896107+136053113+136423993+136522186+136279732
4017+136040849+136042248+136201316+136430543+136780365+137168023+137327900
4007+137172475+136940541+136935190+137326019+138109994+139014092+139561463
3997+139475816+138934276+138337476+138005396+138118588+138684092+139484609
3987+140243547+140825839+141160590+141132510+140725693+140166203+139830380
3977+140025249+140757325+141602156+141934173+141520542+140809987+140432258
3967+140581296+141094565+141819200+142557426+142990688+143042015+143017932
3957+143142471+143266636+143220796+143269025+143968079+145341804+146391379
3947+146181194+145256783+144869306+145169173+145265259+144711946+143885974
3937+143344916+143703614+145473101+148253418+150462962+150760985+149684366
3927+148895540+149083478+149354902+148814771+148118942+148549188+150109734
3917+151238425+150481258+148181442+145918209+144774837+144854026+146159155
3907+149172650+154022512+159350168+162980241+164046168+163075881+160415732
3897+156644361+153578412+153012327+154684856+156002367+155162623+154231381
3887+155889411+159221751+161169629+161489945+162124181+162447077+160705434
3878+158463495+158585353+161375717+165261406+168901744+170851965+169883222
3868+167603692+166673486+166840112+165725855+162734344+159915745+159360343
3858+162222038+169173476+178873673+184451858+179928081+170742988+163543237
3848+160326160+160954256+164263921+168503356+172579200+176529697+179867306
3838+180711047+178422305+175079809+172548495+170887721+169710819+169168316
3828+169208215+169580930+171227750+175508992+180952184+183376083+182367624
3818+181352333+180450852+177246020+172491826+169349714+169646447+173262547
3808+178090252+181483567+183872183+187342932+190894061+191585202+190139874
3798+189067352+188006911+185954527+184224548+184620774+187168294+190911521
3788+195398198+200528068+205888083+211466614+218233421+226665634+235532845
3778+243661840+251956770+261963674+274092094+287412243+299441697+307447562
3768+311576459+313944035+315452554+316537595+318562799+322453975+327507518
3758+332761282+339053283+348491213+362361640+379115165+394075501+404875946
3748+415242992+428758327+443563212+453611504+458250181+463157356+471893280
3738+484657227+499739912+514262599+525759199+533918227+540307068+546883484
3728+554740437+563020287+569372246+572762471+574106490+573914228+571836335
3718+568259661+564804391+563168436+563233771+562276202+557973212+551730375
3708+545979986+541700470+539343286+539090376+540254487+541596472+542545137
3698+543795296+546849000+552735764+560883563+569600264+576742347+579594413
3688+576983266+571838261+568319981+568666097+572997830+579909933+588134731
3678+597058084+603966553+604311651+599720359+595471148+591231131+584201731
3668+575763158+569374499+566055167+564379313+562309124+559351497+557148094
3658+557393009+559706806+562622790+566564839+573561172+583128936+588824528
3648+584370955+574188468+566438747+563739990+564047151+564368303+563837265
3638+563868298+565594479+568611264+572481037+577836981+584287815+587871902
3628+585390915+580958709+579772032+582688887+588039055+593481410+596686423
3618+597017023+596669781+597914271+600979457+605244365+610346746+614998613
3608+616757717+615026375+612301927+611201116+611934990+612991179+614041335
3598+616773487+621628264+625723803+626401571+625495457+626872580+631285345
3588+635437135+636067520+634188284+632976716+633890388+636332493+638731066
3578+639703315+638979106+636934753+633958994+631392033+631440652+634340757
3568+636585839+634569247+629499352+624880770+622183357+621104130+621036906
3558+621565254+622428273+623323922+623740496+623515712+623296451+623260912
3548+622222892+619351931+616071735+614753480+615822169+617443117+617998210
3538+617705111+617505763+617466227+617147183+616765202+616807572+616843982
3528+615943609+614420627+613727669+614193445+614234870+612575549+610101104
3518+608394472+607373749+605474164+601982738+598253301+596126969+595688556
3508+595264315+593637698+591482406+590272872+590496421+591483932+592705312
3498+594535964+596648450+596771380+593419782+588711518+585930674+585712067
3488+586381115+586885663+587647081+588739389+588897639+587041733+584026947
3478+581683135+580532796+579799866+578986812+577887890+576067994+573869678
3468+572846448+574156709+576851033+578445346+577443046+574606750+571792548
3458+570477672+570937270+571896474+571657118+570378252+570050741+571472486
3448+572880278+572452512+570621024+568829943+567579348+566482825+565016602
3438+562925809+560564701+558776927+558314531+559176968+560366479+560668917
3428+559778064+558288477+556788170+555481324+554391596+553358373+552105379
3418+550739376+549571813+548426161+547023965+545934600+546030677+547011247
3408+547446026+546450412+544723686+543608848+543561464+543826401+543363606
3398+542004543+540638612+540153651+540330687+540145620+539124424+537679060
3388+536181660+534691019+533657359+533764301+534793345+535716975+535990996
3378+535820936+535409704+534785932+534063105+533372763+532715925+531954906
3368+531020085+530329816+530624732+531981905+533685921+535182594+536037218
3358+535510214+533682832+532125802+532056506+532881115+533433847+533417567
3348+532898412+531646363+529690964+527625390+525955786+524782626+524253623
3338+524648068+525778604+526853543+527269971+527178800+527041553+527113901
3328+527461071+527729933+527069933+525120348+522692451+520878550+520001215
3318+519890567+520567319+522118716+524249008+526200301+527004453+526086347
3308+523903147+521784120+520882656+521425577+522853681+524206094+524461838
3298+523162260+520847881+518549274+517048894+516843296+518137096+520263064
3288+521714860+521674744+520956567+520676113+520775315+520581345+520018294
3278+519655427+520094494+521636480+523876839+525393570+524751448+522106798
3268+519073044+516954961+515814723+515242515+515189281+515600186+515877806
3258+515457670+514632625+514144647+514150316+514226661+514183056+514098244
3248+513784433+513047433+512240012+511733284+511192253+510253035+509435693
3238+509472867+510197148+510860055+511122085+511141599+510980950+510310085
3228+508690409+506206189+503823641+502732423+503060333+503522730+502735076
3218+500701478+498634631+497549082+497317139+497022950+496068288+494727903
3208+493585449+492815491+492285434+492010286+492048005+492109778+491747384
3198+490943341+490119931+489427954+488440698+486918007+485381980+484396541
3188+483806854+483171091+482374353+481418856+480227200+478930348+477784260
3178+476787228+475806513+474828377+473811469+472700193+471636228+470744357
3168+469907284+469030058+468086843+466857869+465253273+463796499+463017021
3158+462462291+461201667+459393616+458352326+458738958+459556591+459428573
3148+458192332+456541987+454831103+453089478+451693933+451158898+451332010
3138+451364968+450692250+449645836+448728675+447761441+446409609+445065590
3128+444327501+443982330+443323129+442240559+441395638+441425798+442243285
3118+443025851+442920763+441836594+440397553+439230825+438575985+438263372
3108+437752030+436558049+434859157+433373239+432572250+432290379+432111743
3098+431880454+431665699+431346982+430587853+429382607+428289500+427850941
3088+428041532+428460250+428797972+428952879+428914434+428676459+428174564
3078+427341996+426282901+425259343+424394690+423500385+422366034+421099669
3068+419957069+418912726+417680954+416215022+414957705+414451668+414782848
3058+415444011+415749719+415492413+415050184+414633610+413792576+412138779
3048+410215430+408993105+408725079+408839543+408729294+408245568+407589384
3038+407005911+406576001+406262698+406060297+405848849+405251640+404066671
3028+402616256+401273072+399965500+398518101+397145411+396235082+395876211
3018+395811967+395695323+395361707+394936521+394606794+394340584+393972920
3008+393440211+392791549+392108474+391408430+390472592+389025665+387326664
2998+386144238+385831117+385853065+385493104+384641569+383686798+382963462
2988+382477955+382012689+381446513+380975359+380838766+380800176+380262561
2978+379086203+377887353+377271831+377127643+376881710+376184791+375198261
2968+374313295+373671319+373099256+372536096+372135619+371780564+371013441
2958+369719932+368401930+367557808+367190180+367040469+366960091+366867393
2948+366570661+365938532+365199643+364789391+364852873+365045571+364857306
2938+364095488+363017461+361969520+361059045+360326225+359927456+359863211
2928+359849694+359669713+359313423+358747102+357920603+356953841+356037189
2918+355252769+354635066+354277104+354221580+354247271+353932296+353074983
2908+351929259+350920054+350290178+350004347+349772913+349298162+348658438
2898+348173913+347841678+347336149+346579964+345849905+345297973+344782342
2888+344204720+343677643+343296752+342978980+342591730+342088563+341495025
2878+340885825+340363944+339955437+339537227+338966436+338327149+337943242
2868+337957741+338031797+337795530+337396652+337132259+336818230+336062517
2858+334933180+333949231+333565178+333740326+333898649+333499880+332695801
2848+332092343+331937399+331905022+331573623+330856937+330019319+329373927
2838+328993908+328747176+328512398+328232926+327847384+327300248+326613141
2828+325912552+325372139+325076460+324907599+324605742+324030736+323369683
2818+322936575+322756122+322571236+322216000+321674824+320904249+319981891
2808+319244819+318907279+318732350+318354475+317742150+317133968+316664341
2798+316249874+315788714+315263999+314611194+313694832+312545183+311482053
2788+310858427+310679755+310551629+310104095+309413281+308817163+308409891
2778+307987720+307379683+306569500+305619562+304667426+303863711+303220735
2768+302616586+301945104+301233359+300659770+300410131+300436058+300430952
2758+300117486+299484121+298706079+297933650+297213784+296575078+296082831
2748+295707300+295225318+294459830+293565725+292824020+292231263+291591067
2738+290902469+290340199+289962379+289669226+289332630+288860659+288259090
2728+287621365+286994814+286399223+285961228+285774053+285641547+285221012
2718+284419096+283464017+282607085+281890507+281237375+280667093+280275101
2708+280041178+279829984+279544061+279142331+278612819+278025676+277483337
2698+276989836+276499261+276033340+275621635+275228734+274838378+274501601
2688+274254233+274077723+273928066+273721396+273337853+272743697+272082043
2678+271548244+271173948+270797818+270268960+269642500+269145892+268949706
2668+268974361+268967202+268775085+268458203+268122462+267753290+267263459
2658+266644720+266029307+265574396+265270850+264942086+264501619+264095765
2648+263880101+263787822+263635422+263338544+262954982+262610447+262370528
2638+262102375+261579785+260833502+260219196+260012563+260103552+260205679
2628+260199265+260130187+259995466+259721789+259338863+258981901+258671451
2618+258278060+257792935+257419602+257273797+257203757+257045706+256869069
2608+256811801+256808385+256646483+256265011+255882630+255761008+255888190
2598+256010739+255969659+255848855+255787462+255806558+255810191+255647744
2588+255267507+254852714+254617282+254499658+254314626+254097382+253984427
2578+253901668+253680517+253356586+253122372+253090267+253236744+253474737
2568+253670906+253665746+253428225+253188233+253264651+253727284+254356651
2558+254913070+255277155+255381371+255206297+254841812+254425674+254016059
2548+253570977+253047044+252501616+252067981+251808204+251630622+251398279
2538+251094733+250824381+250642693+250460206+250171340+249815868+249522332
2528+249350565+249294005+249374711+249600077+249845537+249923045+249783291
2518+249536522+249286701+249057320+248861715+248754682+248805192+249000979
2508+249167078+249096692+248790566+248430079+248157874+248045572+248141304
2498+248360201+248466380+248307821+247954892+247566043+247234335+246955644
2488+246669158+246331509+245957650+245595255+245300975+245124792+245042197
2478+244898172+244517209+243936807+243445304+243272737+243333166+243377862
2468+243263798+242991520+242668443+242445748+242299616+241999758+241473426
2458+240954143+240618602+240382153+240148284+239962200+239874226+239870320
2448+239923191+239987818+240005278+239957439+239850389+239658999+239360013
2438+239000834+238680827+238468488+238358966+238297701+238220956+238085253
2428+237900586+237740101+237673457+237685358+237702854+237703745+237736303
2418+237832525+237974478+238144738+238330169+238482859+238550938+238530171
2408+238442888+238322047+238231294+238209546+238197446+238138924+238131729
2398+238328933+238714075+239127652+239480999+239800206+240117543+240466493
2388+240918042+241504131+242176722+242896806+243663584+244433487+245135075
2378+245822111+246746394+248176388+250099555+252193710+254158266+255920585
2368+257471401+258772960+259840486+260600251+260816441+260514003+260230116
2358+260513149+261362977+262456067+263918365+266420299+270138109+274229032
2348+277657358+280097010+282000556+283777029+285044866+285173083+284124489
2338+282314949+280075735+277544584+274895500+272409336+270220940+268173080
2328+266094587+264022544+262000211+259946483+257896061+256116735+254814650
2318+253882282+253044100+252138531+251177692+250233114+249384286+248709315
2308+248185090+247645822+246949358+246134014+245358170+244746445+244297603
2298+243890058+243413836+242926585+242594387+242460791+242369275+242148088
2288+241808495+241507965+241346753+241267137+241153928+240957432+240694057
2278+240390547+240055315+239668392+239199891+238689420+238294776+238164142
2268+238220956+238188252+237902293+237502198+237233264+237171581+237207155
2258+237197471+237075831+236869706+236662781+236522300+236429403+236303657
2248+236134469+236029399+236059141+236143971+236187976+236213213+236265666
2238+236325296+236395082+236537399+236747012+236924285+237041692+237205811
2228+237489989+237837340+238212126+238723923+239495716+240476976+241467158
2218+242319820+243100442+244012462+245157478+246426241+247664863+248879847
2208+250206715+251699736+253234382+254663195+255996949+257356902+258821798
2198+260390601+262021069+263649448+265195758+266575843+267777309+268931737
2188+270175209+271460979+272652144+273661712+274388100+274773025+274987126
2178+275266780+275606954+275843803+275890406+275736698+275364074+274734997
2168+273835660+272748784+271642685+270649815+269773461+268860061+267712664
2158+266350077+265017922+263877140+262903419+262046360+261290992+260688824
2148+260305516+260066451+260158258+261625080+265618328+271976392+279459903
2138+287237059+295254279+303539307+311988091+320519143+329077920+337742985
2128+346737669+356172510+365954084+375836241+385412290+394304283+402331877
2118+409330682+415110069+419669493+423201218+426083589+429087074+433302308
2108+439670364+448570970+459713569+472177767+484357478+494219612+500450676
2098+503319966+503971753+503384211+502018643+499599140+495383978+488996373
2088+480428184+469530936+456201249+440568921+423010300+404506865+386334611
2078+369221162+353507837+339611865+327682702+317526523+309061024+302177628
2068+296493882+291715560+287677598+284057500+280706992+277850020+275581137
2058+273802665+272561954+271838472+271427621+271358907+271920486+273376552
2048+276026726+280158857+285914334+293597484+303748703+316654893+332308043
2038+350670088+371253706+392763496+413630183+432478753+448218931+460420735
2028+469386167+475677333+479895256+482497610+483584141+483162261+481269181
2018+477718670+472379768+465575697+457742363+449053388+439518691+429111056
2008+417857446+405908624+393475967+380866601+368537651+356841885+345818328
1998+335460294+326074835+318102729+311494953+305523413+299566172+293846833
1988+288911514+284821989+281342609+278405731+275980323+273870962+271894578
1978+270040942+268423246+267131590+266081015+265121212+264342697+263956301
1968+263786968+263290251+262247543+261070332+260226936+259726295+259354616
1958+259114224+259127560+259299528+259390844+259346894+259340335+259511976
1948+259852950+260409605+261322715+262333954+262599546+261642976+260116125
1938+258976341+258508567+258473247+258608696+258769980+258905301+259028068
1928+259271094+259992977+261389867+262909069+263810460+264306705+265008947
1918+265539876+265092196+264039787+263549556+264067094+265058748+265766804
1908+265892005+265708355+265624324+265736989+265919531+266165264+266648754
1898+267490478+268470576+269106175+269340226+269802222+270774907+271451749
1888+271035557+269958074+269105267+268708896+268550646+268493723+268498011
1878+268511692+268489254+268532968+269182866+271266682+274860526+278290450
1868+279070528+276796230+273636021+271564414+270876307+270916896+271089554
1858+271136357+271051545+270997220+271165536+271705822+272724056+274300945
1848+276643321+279860253+282927165+283647939+281477004+278701083+277318510
1838+277301668+277653961+278012340+279178232+281982460+285622579+287870496
1828+287890482+287053972+286185812+284807345+283058671+282010458+282105190
1818+282737501+283272408+283881081+285175481+287150267+288816273+289251489
1808+288755880+288454986+289284011+291557473+294718953+297335279+298218029
1798+297896386+298266394+300772053+304914649+307860393+307020486+303781988
1788+301526131+301622262+303168318+304935907+306617175+308154183+309203940
1778+310017684+311870175+315919674+321616030+326064407+326615030+324199670
1768+321254907+319180502+318923813+320915840+323917581+325877777+326648752
1758+327470672+328529150+329752528+332372578+337438876+343553550+347529465
1748+348129654+347136947+346649550+347609081+349911722+352486641+354032225
1738+355136052+358200620+363817360+368014862+366724877+362294451+358234233
1728+355426898+354129319+354454359+355865094+358357054+363280690+371477582
1718+380423464+384448653+381594080+376070473+371906365+370598357+372380680
1708+376723896+381925806+386009026+389464114+394774201+402083837+407436657
1698+408374131+406371856+402071010+396812631+393946249+394943970+398646990
1688+404129135+412326281+422646960+428618246+425643141+419472616+416204848
1678+417445123+422109054+427322774+430881243+433927569+437851631+440518666
1668+439494890+437432513+438336811+442368541+446311425+447842764+448671661
1658+452079838+460227274+473620915+488188152+493761650+491118961+491032550
1648+495867704+500300093+499312836+495765632+494591055+497228402+503570695
1638+513388425+524618307+531596981+531485388+529591763+531081677+536527594
1628+543854890+551465837+559661530+568367838+575829074+581864096+589376242
1618+600306157+611527791+617423131+618536006+619324968+621386328+623624724
1608+624845959+625261443+626161453+628571435+632441753+637254378+642980894
1598+649871012+657675966+665634919+673134201+680155280+686920325+693246629
1588+698739130+703437510+707576799+711041808+713858117+716976465+721893306
1578+729271512+737320945+742601598+745677504+751073057+761063499+773253748
1568+783334308+791210484+800153822+812070957+827816695+849372162+875923105
1558+894475777+896329576+892051986+888883347+887286019+886456286+885559401
1548+884474869+884403066+886367331+890039828+894031077+894626360+886955274
1538+874558264+865500680+861201942+858274148+853620827+848037991+844187585
1528+842949054+843594556+845696977+849320199+852850543+853346260+851019564
1518+848649407+846879402+845137814+844157134+845091156+848405582+854244017
1508+861102304+862899198+855490615+845737457+840156364+839327794+841309066
1498+843127472+842171357+838937238+836738885+837868258+841612921+844528214
1488+843334887+838734474+834144090+831942322+832115071+833366465+835189450
1478+838216154+842571870+847110728+849988375+849308426+845164413+840731080
1468+838828007+839438188+840302223+839522346+838245588+839242692+843798410
1458+849700799+851156120+846217913+839891100+835715764+833958913+833644956
1448+833101200+830968401+827686025+824641879+822584734+822127680+824229229
1438+828361759+830728864+828098384+823276239+820512038+820165522+820067047
1428+819242038+818761437+819062458+819221762+819224305+820353460+822254498
1418+821900788+817987228+812992697+809199342+806816395+805083745+803706695
1408+803270935+804045798+804864484+804504887+803747975+804085842+805404897
1398+806548732+807079333+806960946+805848724+804296745+803837583+804805035
1388+805330913+803442811+800387909+799749893+803191791+809016782+814595694
1378+819301414+824261351+829703925+834085368+836422239+837804958+839388841
1368+840907971+842034800+843448769+845516306+847118213+846911016+845218483
1358+843574352+842982049+843269043+843667086+843564832+842737788+841443442
1348+840483330+840640672+841994756+844210841+847163199+850685766+853966035
1338+855949922+856601819+857161127+858846902+861734651+865089193+868416482
1328+871717100+874965899+878059029+881226069+884911356+889139091+893322203
1318+896968246+900388123+904185548+908223237+911786575+914761026+917831263
1308+921375851+924854668+927587547+929695273+931855616+934460732+937304367
1298+939675541+940667848+939937463+938168548+936307263+934421414+931816081
1288+928289080+924701105+922026585+920263702+918690866+916998987+915650716
1278+915091771+915136612+915259869+915159359+914895039+914675270+914728904
1268+915313794+916578561+918373275+920445826+922766855+925353293+927920617
1258+930053198+931558593+932458312+932878592+933146037+933731509+934520979
1248+934324829+932044862+928341842+925015353+922684005+920374169+917506405
1238+914718875+912389707+909948111+907095318+904466583+902662712+901587482
1228+900902809+900408763+900039646+899919949+900182452+900540450+900453676
1218+899837899+899246468+899216962+899722709+900526497+901748240+903497169
1208+905244135+906525835+907894745+910138374+913075906+915920559+918221093
1198+920010938+921662337+923563593+925569719+927257310+928661686+930110975
1188+931697984+933513483+935820485+938521750+941126938+943514972+946308971
1178+950161702+954630936+958288752+960589068+962430658+964077114+964497322
1168+963693171+963755527+966165727+969433277+970944703+970449422+970132921
1158+971531192+973994301+976276884+978129593+979837605+981262839+982095043
1148+982602970+983366568+984414908+985476402+986940517+989406823+992178074
1138+993627726+993767262+994599466+997159814+1000158393+1002147077+1003492877
1128+1005280178+1007255781+1008364369+1008934578+1010567154+1014022134
1120+1018772985+1023867662+1027691105+1028516695+1026950472+1025847044
1111+1026806575+1028731450+1030092657+1031018539+1032722482+1035619970
1103+1038493548+1039649956+1038679814+1036571943+1034759205+1034489798
1094+1036095484+1038432791+1040130775+1041457969+1043578705+1046226481
1085+1047578675+1046858028+1045788394+1046400538+1048856669+1052498278
1077+1057380017+1062957985+1066738549+1066776268+1064163521+1060953021
1068+1058028353+1056225935+1056875215+1059842980+1062789596+1064018389
1060+1064633439+1066096318+1067487831+1066960790+1064813528+1063542366
1051+1065171599+1069163285+1072733018+1073571254+1072432143+1071928795
1043+1072868122+1073400395+1072061790+1069999268+1069298315+1070678127
1034+1073023937+1073741823+1070565408+1064709966+1060743208+1061709280
1025+1065717753+1068429411+1067957749+1065791373+1063728778+1062016986
1017+1060391242+1059234107+1059285271+1060921480+1063776889+1066502936
1008+1067117696+1064760112+1060978603+1058352048+1058059167+1059210997
1000+1060056500+1059615652+1058358371+1057461922+1057218824+1056564093
991+1054794597+1052875971+1052437086+1053654105+1054493285+1052458089
983+1047309850+1041490019+1037765415+1037086047+1038275377+1038998204
974+1037394481+1033356864+1028766044+1026115724+1025598277+1024806989
965+1021881085+1017423261+1012868633+1008604342+1004546231+1000791394+996893096
955+992376477+988244383+986058022+985592246+985017967+983295782+980973083
945+979039050+978135770+978082572+977671375+975845483+973169946+971240419
935+970832420+971327048+971675889+971350449+970448695+969172519+967512253
925+965674079+964191360+963202904+962268301+961199394+960407452+960243352
915+960684127+961545692+962539016+963482195+964647397+966339203+967794306
905+967138994+963387935+958126904+954236382+953030555+953259264+953221182
895+952928229+953122126+953377216+952908897+952339196+952872051+954334930
885+955466265+955580074+954826432+953452726+951637008+949634370+947766690
875+946558101+946530994+947347936+947831444+947169736+945493628+943405596
865+941660737+940986529+941426142+942247953+942870271+943370349+944093176
855+945152127+946184115+946572346+946283316+946266892+947360218+948920918
845+949433351+948663502+947882898+947755643+947686965+947243211+946864427
835+946915736+946879398+946028154+944636206+943767373+943908581+944472105
825+944877633+945601986+947572938+950838671+954121410+955678985+954788641
815+952180982+949236474+947651282+949210020+954325482+960802806+965497115
805+967036594+965709254+961970769+956635246+951789626+949873762+951322034
795+953920609+955558199+956735683+958454597+959685206+959392907+958968411
785+960161956+961987048+961872948+959639712+958016947+958600383+959423430
776+957528497+952851193+948431596+946979618+948650566+951934250+955063281
766+956510535+955911473+954968731+955675206+957561927+958484539+957693978
756+956243890+955394535+956309152+959496832+963459666+965615285+964979304
746+962451806+959237527+956637426+956404284+959651267+965118695+969654283
736+971467166+971769930+972022113+971830832+971085693+971119923+972197842
726+972731714+971866879+970400366+969121719+968071198+967257890+967092191
716+968060588+969817584+970512722+968119600+962889529+957359745+953933690
706+953108027+953677292+953909707+952663909+950086265+947228094+944917095
696+943354506+942578189+942345556+941918080+940264065+936525870+931128791
686+926199377+923716792+923442734+923879294+924454664+924670800+922551736
676+916997824+910028344+903801750+897715420+891654017+890451896+898239917
666+908294677+912434620+910109232+905210777+901175486+898047327+893648224
656+887215015+881732761+881062841+884436351+886941247+886933471+888222729
646+892140432+893573151+888771791+881746206+878523133+880097060+882845636
636+882107983+875536400+866297419+860602008+861722078+868080505+874514078
626+874985594+866901786+854272651+844734030+842724779+846054248+848865398
616+849484445+851883163+857886717+864594275+869112565+871280976+872693854
606+874604922+875455730+872955776+869920350+871408521
##END=
