##TITLE=<SNM>
##JCAMP-DX=4.24
##DATA TYPE=INFRARED SPECTRUM
##DATE=2/5/2025
##SAMPLING PROCEDURE=Instrument type and / or accessory
##ORIGIN=Admin
##XUNITS=1/CM
##YUNITS=ABSORBANCE
##RESOLUTION=4
##FIRSTX=4497.3318
##LASTX=599.83466
##DELTAX=-1.4281778
##MAXY=1.7333943
##MINY=0.19619329
##XFACTOR=1
##YFACTOR=1.6143492e-09
##NPOINTS=2730
##FIRSTY=0.21629752
##XYDATA=(X++(Y..Y))
4497+133984345+133521309+133877374+135080414+136202458+136342429+135620700
4487+134844780+134602130+135082002+136241992+137586240+138184871+137503175
4477+136040113+134809279+134425422+134882505+135819072+136702702+136988172
4467+136346204+134919565+133486307+133078636+134044906+135563979+136347644
4457+135852338+134684890+133806382+133519177+133484064+133522869+133828535
4447+134403731+134842472+134749420+134082197+133149775+132435532+132327360
4437+132912045+133848492+134327810+133622604+132111183+131160309+131489882
4427+132263781+132302291+131622274+131084989+131009382+130956335+130623476
4417+130190319+129912224+129972840+130461103+130952550+130609953+129293803
4407+127950727+127373344+127258000+126967361+126556403+126429051+126497735
4397+126365979+126083297+126074177+126404756+126717770+126865125+127068951
4387+127439665+127703415+127400731+126298966+124805397+123785692+123574840
4377+123568647+123268805+123064018+123353282+123671317+123383438+122714332
4367+122552615+123459626+125017522+126074297+125797042+124467554+123017959
4357+122086616+121814853+122149355+122971428+124096176+125222530+125898134
4347+125897571+125639811+125742204+126179395+126307071+125735014+124835036
4337+124267013+124230904+124362493+124297372+124140307+124276760+124801520
4327+125329428+125438652+125034488+124168367+122957878+121878229+121530888
4317+121855938+122193264+122278231+122490143+123006134+123406856+123289730
4307+122773878+122267477+122075789+122342032+123147388+124445678+125824900
4297+126528250+126075073+124911298+124115301+124316267+125174153+126024601
4287+126596168+126852968+126604586+125727648+124546289+123658339+123474192
4277+123971454+124704739+125096110+124968702+124758996+124964539+125480650
4267+125802830+125813149+125910632+126334476+126864073+127279516+127624237
4257+127857776+127715295+127132992+126490987+126295985+126794937+127784828
4247+128611036+128646887+128050665+127674773+128010946+128690888+129182428
4237+129387658+129368255+129066724+128487745+127767290+127077000+126687826
4227+126875666+127475230+127811568+127462307+126926212+127104156+128152633
4217+129326109+130037527+130446777+130826721+131024723+130804171+130198488
4207+129414112+128754541+128512621+128697700+129080173+129521222+129974474
4197+130307573+130469540+130655607+130992970+131250684+131108923+130570428
4187+129926965+129482325+129383449+129507100+129603133+129777662+130497222
4177+131787933+132934724+133352420+133222178+133015869+132966375+133105616
4167+133338786+133505636+133619290+133858488+134254382+134622178+134821648
4157+134890101+134890387+134757017+134381079+133852239+133511193+133626379
4147+134021682+134173597+133861285+133561637+133793229+134264868+134251945
4137+133702798+133307855+133485384+133900616+134072459+134038306+134170348
4127+134511967+134693410+134541606+134335102+134354680+134554667+134705954
4117+134595521+134188274+133731108+133557742+133770734+134213842+134650774
4107+134906882+134968606+134986559+135146440+135524667+135972638+136182077
4097+136061195+135942603+136110818+136281748+135955608+135199340+134694287
4087+134948428+135713761+136314377+136385738+136103369+135838068+135887146
4077+136436459+137405933+138343257+138771688+138614392+138094727+137396527
4067+136676072+136199791+136128430+136254979+136206686+135855707+135369346
4057+134955130+134734476+134801821+135203687+135832917+136453102+136852586
4047+136975102+136955496+137009097+137194823+137353993+137372537+137344236
4037+137367774+137388432+137357999+137354630+137442171+137537900+137512424
4027+137418901+137576161+138277877+139348064+140190121+140404406+140143304
4017+139746700+139273944+138615176+137885427+137426277+137415902+137646367
4007+137754687+137641226+137602098+137990931+138762476+139462347+139713544
3997+139579001+139363110+139200682+139001969+138725951+138524247+138627204
3987+139177061+140073125+140919492+141318792+141291027+141221411+141418832
3977+141914073+142542057+142965393+142788805+141955222+140946787+140361180
3967+140383120+140852848+141653866+142704116+143719326+144364599+144593514
3957+144629448+144758573+145250574+146298857+147856975+149406757+150079020
3947+149589981+148830620+148701643+148825571+148254964+147032816+146051315
3937+145971878+147122951+149551712+152460650+154225529+153896648+152472751
3927+151847545+152682374+153767376+153804178+153397623+154076642+155821538
3917+156648161+154966965+151692677+149018783+147984355+148214230+149621383
3907+153215469+159504504+166642074+171364610+172257821+170078938+165470934
3897+159508750+154907465+154170543+157014259+159988880+160192172+159483310
3887+161046948+164189822+165856877+166035283+166662566+166433466+163367869
3878+160130272+160517969+164458982+169419958+173691993+175880789+174649374
3868+171997707+171361730+172477783+171985579+168628817+165037288+164313510
3858+168258602+177699925+190611324+197668202+190895215+177940729+167921562
3848+163428144+164049519+168176266+173834326+179826251+185729895+190128147
3838+190398691+186437501+181671749+178445505+176298910+174450975+173431306
3828+173640431+174616015+176995883+182390671+189228769+192061242+189888875
3818+187233369+185022880+180632881+174591592+170560823+170929893+175540278
3808+181453190+185102096+187271047+191041758+195176370+195454815+192474674
3798+189818835+187524312+184195648+180897739+179724365+181107289+184084273
3788+187802924+191847963+195792760+199775734+204824990+210922936+215840659
3778+218191505+220007872+224165080+231959193+243109331+255533860+266136650
3768+274127336+281129570+287950610+294972172+303726769+315034267+327104883
3758+337900589+348698733+362830433+382640259+407024510+428946078+441874645
3748+450140914+461122744+474886924+484460225+488097389+492390358+502079778
3738+516996250+532790649+542828425+543904400+539738109+536096809+535480843
3728+537113672+539128051+540126748+539408102+536379483+531349407+526616146
3718+524928673+527564039+534430087+543876745+551553928+553492395+551463248
3708+549337366+548690274+550314685+554447081+559094020+561484779+561394652
3698+560716178+561601451+565658232+573280290+583566365+594187654+600506594
3688+598781092+591759197+585595180+583988086+586701172+591223832+596228357
3678+601795017+604931153+601528331+595452926+592672125+591497680+586212143
3668+576638104+567551618+561991825+560311294+561313240+563752477+567185834
3658+570527698+572036912+573084605+578032788+588917586+602363058+610108620
3648+606904696+597377178+588385617+583127328+581659097+582062209+582868396
3638+585042018+589898930+596261144+602348068+609165933+618185776+625715456
3628+625546576+620267869+617073064+618902908+625254746+632831981+636373887
3618+634811875+633271646+635077047+638445642+641494938+645374531+650176208
3608+652473703+650478598+647427308+647491774+651840494+658077838+662711965
3598+665036338+667138517+670062648+672578055+674242415+676545374+680104781
3588+682761155+682326438+679981167+677822129+675816390+672810145+668961640
3578+666201590+666059884+667624555+668971905+670565522+674725647+681293514
3568+686167706+685926607+682128021+677820061+673860939+670424777+668569531
3558+669441328+672946977+677421232+680198858+679292871+675759900+673495782
3548+675274231+679320119+681116216+679096964+675897249+674160005+674210219
3538+674898293+674974278+674152621+673231718+672801653+672595556+672642889
3528+673548654+674997170+676039915+676779679+677561166+677327155+674954267
3518+671554066+669458607+669455432+670277902+670230199+668648248+666459968
3508+665448755+666576567+668997824+670506891+669069304+664464863+658511595
3498+653671667+651515214+652374236+655696679+660031000+663622308+665986926
3488+667940532+669735816+670702724+670452246+668784490+665451856+661202602
3478+657764151+656195492+656022846+656402697+657123410+658233722+659414111
3468+660315224+661281246+662695054+663821095+663526533+662008900+660590882
3458+659931902+659530489+658827867+657862658+657229597+657925794+660201431
3448+662476330+662815863+661181483+658669030+655787876+653106690+651859177
3438+652545627+654067099+655237372+656548760+659134835+662203921+663094327
3428+660720773+657395967+655641149+655032678+654010387+653053080+653746471
3418+655928252+657445368+656495002+653615989+650714823+648684052+646862700
3408+644915593+643978888+645062320+647432329+649514865+650759129+651842488
3398+653415578+655040431+655540574+654644334+653350374+652462848+652098504
3388+652414776+653426802+654081573+652801051+649493451+646122714+644690740
3378+645309475+646501014+646857310+645882427+643712756+641302650+640549298
3368+642645864+646369794+649270148+650395819+650546091+650202571+649266899
3358+648397465+648491985+649334909+650099263+650414945+650311194+649997876
3348+649731079+649422635+648925963+648674009+649113157+649683081+649244377
3338+647301700+644366714+641608288+640240410+640588878+641711595+642377443
3328+642189511+641707829+642137229+644538400+648479136+651673313+651850685
3318+649500466+647335594+646883967+647316247+647509570+647828057+649020040
3308+650677458+651901268+652385017+652170944+651559077+651379932+651976514
3298+652218352+651168961+649969594+650409037+652172126+653233036+652744192
3288+651724339+651346333+651922978+653045252+654090360+654801473+655366303
3278+655779901+655486816+654010830+651877933+650561672+650978962+652357769
3268+653336565+653482037+652893430+651524592+649737135+648201779+647068207
3258+646293809+646138369+646439946+646484104+645924296+644975628+644066023
3248+643990703+645561503+648316385+650548232+651166007+650688166+650261645
3238+650666677+651991061+653389658+653530035+651964404+649817993+648512661
3228+648137683+647701342+646553370+644993572+643814955+643557241+643958138
3218+644217772+643875359+643002824+641714623+640196104+639033806+638659567
3208+638509295+637592085+635950468+634785217+634927440+635740753+635799015
3198+634413932+632373191+631099390+631179805+632186810+633655928+635139371
3188+635644165+634501658+632526490+631169393+631005904+631675886+632588888
3178+633218774+633215525+632565184+631371208+629451202+626555500+623309337
3168+621410377+621892058+623421801+623620588+621887775+619571893+617994558
3158+617532445+617748585+617604480+616240811+613958380+611896373+610800756
3148+610491425+610341966+610092153+610111094+610751539+611609527+611738790
3138+610685154+608973608+607360532+605961233+604468227+603014617+602309448
3128+602828199+604148522+605185765+605083898+603931126+602594484+601927234
3118+602198867+603064720+603743195+603314053+601396299+598737561+596668945
3108+595749482+595358923+594786488+594155642+593843579+593613151+593066524
3098+592464256+592242356+592071371+591273048+589951581+588837060+588182031
3088+587620192+587000238+586674219+586926690+587399215+587219111+586048617
3078+584849471+584780206+585522629+585599832+584259055+582260036+580795017
3068+580219295+580006331+579753269+579665026+579682600+579092443+577824512
3058+577028700+577260975+577360811+576435404+575505750+575743711+576493149
3048+576312417+574916663+573096826+571552868+570344898+569092843+567716363
3038+566790992+566693002+566888207+566715376+566207074+565582948+564727138
3028+563552952+562240420+561035920+560172357+559819311+559946100+560308155
3018+560493613+560071081+558912217+557201003+555205602+553437751+552605349
3008+552829058+553346886+553403487+552917080+552077700+550900708+549384736
2998+547807622+546642076+546093787+545869783+545567320+545009690+544011694
2988+542401092+540580775+539396952+539118525+539083117+538641532+538010945
2978+537814595+538057836+538026711+537198445+535833114+534546021+533655911
2968+533096767+532756201+532623541+532522264+532032460+531069319+530230493
2958+530090559+530388702+530290343+529272336+527517739+525680400+524424580
2948+523898038+523480047+522343558+520505259+518961043+518483976+518700559
2938+518740361+518397542+518083227+517932476+517571750+516706783+515512512
2928+514342793+513385374+512796952+512713656+512690026+511741949+509683301
2918+507668627+506618683+506095169+505479350+505156174+505668907+506499388
2908+506425471+504929364+502916204+501719089+501424711+500844707+499336268
2898+497656401+496588660+495864919+494949628+493917148+493047234+492244591
2888+491364745+490770600+491035883+492063084+492989193+493172103+492732623
2878+491901588+490557303+488761206+487093375+486013044+485316662+484604995
2868+483959528+483629854+483209204+481945704+480042017+478729854+478713276
2858+479327617+479503107+478933071+478037054+477240577+476587911+475915048
2848+475164170+474379065+473494383+472379234+471105802+470024141+469504910
2838+469544675+469680843+469458278+468824368+467877768+466610095+465171549
2828+463930719+463010665+462165119+461209214+460204019+459227106+458285416
2818+457429680+456785247+456492789+456585685+456818919+456720191+455977657
2808+454702969+453261506+452002584+451128867+450577810+450032992+449311393
2798+448678258+448473047+448502732+448112986+446871749+445060441+443491191
2788+442758035+442574608+442081148+440941262+439712099+438918023+438332628
2778+437519721+436564850+435860715+435519299+435297288+434866928+434027364
2768+432860599+431730903+430935349+430355124+429600701+428470304+427171174
2758+426078843+425342586+424827823+424404699+424057634+423704588+423153051
2748+422285352+421140371+419797046+418313787+416860177+415806946+415436103
2738+415524051+415517294+415184112+414733408+414325866+413882546+413277989
2728+412427643+411339558+410180584+409122922+408203275+407390774+406563578
2718+405553915+404517189+403884903+403677329+403404846+402821408+402156484
2708+401552961+400901291+400237512+399801465+399654480+399516614+399054907
2698+398200574+397096465+395873320+394658040+393664290+392998628+392445392
2688+391723165+390936583+390470446+390369280+390146273+389412932+388372624
2678+387422110+386635122+385924784+385338134+384924979+384602874+384278110
2668+383899772+383422374+382870725+382357180+381934094+381546489+381168040
2658+380817320+380396855+379698554+378654923+377453303+376361009+375546257
2648+375023813+374646510+374233872+373787303+373464311+373317436+373179127
2638+372764865+371851937+370538445+369328850+368723703+368713032+368826677
2628+368612273+367962671+367059970+366093580+365110648+364212563+363694624
2618+363712642+363977371+364073589+363929779+363692482+363346082+362752786
2608+361907019+360933909+359957032+359074823+358361901+357832258+357466178
2598+357275736+357269533+357353530+357335438+357050254+356477893+355771284
2588+355171527+354806592+354552016+354208201+353789360+353426050+353049226
2578+352502230+351903137+351505711+351259960+350882693+350299513+349691375
2568+349147111+348551452+347845433+347192029+346778468+346582007+346462787
2558+346366716+346294793+346201860+346043614+345823080+345552406+345251789
2548+344952834+344652216+344341372+344077197+343905658+343720754+343311476
2538+342599772+341784206+341165730+340840486+340649748+340430691+340205616
2528+340085472+340068008+340011961+339818971+339554353+339335259+339198944
2518+339128386+339073151+338941414+338753815+338709951+338858488+338885699
2508+338518918+337921561+337413665+337044115+336690109+336351388+336083004
2498+335800257+335404012+335019066+334885372+335017109+335140797+335021540
2488+334745623+334574971+334557876+334449141+334078779+333608359+333274216
2478+333076833+332883215+332624356+332260529+331765260+331220516+330750650
2468+330397234+330210300+330301238+330620611+330883088+330899666+330779153
2458+330654173+330452986+330113491+329778389+329567085+329362723+329027658
2448+328653345+328410917+328323227+328304619+328257728+328088811+327790889
2438+327476242+327214909+326973146+326758889+326622684+326522515+326386680
2428+326238402+326120142+326028022+325976701+325972048+325946019+325851942
2418+325750444+325720796+325772856+325846551+325837690+325680588+325445101
2408+325297931+325357522+325577502+325743909+325648466+325309893+324940085
2398+324692930+324563593+324503669+324496617+324528739+324570609+324574338
2388+324442232+324026751+323232637+322102831+320678056+318782012+316152775
2378+312866737+309434581+306358240+303751211+301440554+299245665+297122257
2368+295213751+293761876+292828494+292233111+291954444+292372731+293892469
2358+296549175+300131363+304599064+310327035+317509318+325109925+331159485
2348+334267080+334621714+333804745+333227953+332603495+330797430+327536387
2338+323523765+319606512+316172455+313102852+310232811+307766602+306056312
2328+305083571+304418019+303666808+302865568+302444088+302804131+303905507
2318+305261700+306343692+306979928+307360389+307748418+308313063+309147218
2308+310224356+311340317+312267644+312977133+313592324+314132268+314440491
2298+314427347+314264595+314236018+314452417+314784897+315041688+315173056
2288+315304239+315555233+315863530+316065824+316117441+316117847+316132357
2278+316093811+315926851+315712483+315618628+315650528+315626381+315466362
2268+315324251+315351499+315504318+315653408+315757712+315881696+316098020
2258+316382059+316611085+316703390+316717420+316754416+316832653+316931492
2248+317069691+317244109+317376437+317413211+317402208+317403353+317430564
2238+317546462+317878905+318433175+319012773+319462591+319877297+320411702
2228+321022721+321593864+322175345+322905990+323820247+324862807+325970867
2218+327091923+328214788+329363388+330544368+331791216+333198564+334782213
2208+336414451+338008955+339655740+341526086+343730981+346236493+348824968
2198+351185488+353137801+354792192+356446510+358298543+360312183+362367434
2188+364399535+366343060+368074212+369472919+370539848+371452000+372403770
2178+373359933+374105052+374508275+374577761+374377571+374060229+373834637
2168+373740449+373496027+372692240+371238150+369499761+367809852+366059316
2158+364000262+361643841+359153947+356618565+353995051+351172529+348157902
2148+345045175+341792883+338675688+336914224+337799608+341155022+345576147
2138+350019166+354313723+358537722+362789191+367255951+371992240+376824304
2128+381536483+386049875+390591512+395617379+401289856+407228614+413023081
2118+418711213+424580410+430782493+437264333+443855461+450378986+456865662
2108+463704019+471538820+481106435+493154898+508241764+526357952+546602126
2098+567086772+585441364+600052346+610864704+618731074+624319000+627665738
2088+628365627+626179267+621223922+613308483+601839212+586673407+568356549
2078+547871423+526651591+506056364+486755504+469154338+453684371+440246505
2068+428348646+417901371+409017511+401423291+394807241+389161901+384440972
2058+380479375+377175393+374360846+371875198+369838519+368380662+367336514
2048+366538856+366000647+365739795+365821688+366444226+367867893+370592646
2038+375465435+383263758+394414541+409181628+427627343+449295959+473232570
2028+498164481+522482753+544423224+562630314+576709031+587346749+595563211
2018+601697543+605530282+607153142+606999142+605200719+601377099+594985681
2008+585943722+574914153+562671481+549337402+534679973+518966618+503028704
1998+487666807+473410865+460542038+448831077+437530945+426157302+415067809
1988+404954232+396176485+388730396+382415000+376942712+372134056+367971901
1978+364384138+361160719+358149859+355394054+353104350+351557106+350798437
1968+350328829+349379755+347725991+345890831+344390367+343225744+342227822
1958+341420269+340829335+340289613+339625759+338861626+338205748+337895014
1948+338095241+338980440+340598316+342266516+342613359+341088822+338823818
1938+337195752+336476405+336207799+336018649+335799777+335569422+335400136
1928+335473278+336143297+337516197+338946731+339743983+340285699+341183268
1918+341682561+340525875+338197366+336522336+336465070+337427695+338177724
1908+338042110+337303490+336627489+336330232+336260413+336214556+336322478
1898+336930322+337997730+338930596+339503474+340370915+341801191+342697799
1888+342033835+340446457+339176052+338583753+338401359+338402578+338485282
1878+338646631+338944922+339445286+340600125+343380077+348038571+352523866
1868+353486306+350310073+345964860+343160318+342237606+342187023+342157966
1858+341943893+341726682+341726018+342007029+342610959+343721972+345600257
1848+348578811+352725754+356591427+357222790+353929995+349859443+347789349
1838+347737696+348239167+348571426+349784196+353208359+357932131+360881627
1828+360783009+359498464+358181685+356115506+353397361+351486179+351082698
1818+351475915+351866104+352516629+354267423+357029504+359246842+359467302
1808+358143914+357035080+357522299+359927126+363426535+366268810+367049521
1798+366345423+366427020+369188031+374129974+377568389+375965688+371113354
1788+367530944+367049152+368507562+370353098+372180024+373766701+374548298
1778+374974117+376916313+381947016+389257676+394838145+394995911+391017405
1768+386268858+382706276+381714003+383892055+387425765+389437411+389845323
1758+390403063+391212130+392050439+394606239+400307737+407263062+411279967
1748+410862270+408436251+406673384+406678479+408297794+410351605+411548905
1738+412867012+417265504+425283991+431474592+430163980+424480758+419295869
1728+415888432+414598496+415603913+418289640+422599556+430070235+441646025
1718+454072087+460022585+456977388+450450282+445673748+444666670+447878163
1708+454733061+463016868+469928920+475834854+484036732+495023324+503592057
1698+506227496+505113345+501410940+496586075+494602859+497390379+503601066
1688+512015687+523753748+538196588+547462810+545881524+540413630+538219147
1678+541073865+547888038+555668971+562013720+568185675+575620688+581174019
1668+581201119+579206752+580919443+586813525+592429918+594317360+594707586
1658+598073929+607361677+623297670+640309749+644725003+638395650+635685370
1648+638778751+640159330+634113610+625606094+620966872+621530298+626914380
1638+636360743+645705424+646449619+637447130+628353812+625192496+627247267
1628+631201072+634781377+637827202+639695223+639003161+637360659+638479758
1618+642925583+646114443+643880824+639361745+637248860+638131438+639930784
1608+640779099+640639165+640534160+640971018+641564720+641835948+641982823
1598+642642172+643915382+644938116+644787696+643710614+642899221+643108420
1588+643981620+644761925+645206685+645546587+646212655+648227403+653036465
1578+660556988+666712735+666416474+662605851+662249556+666655063+671236096
1568+671783424+670067300+669587464+672086109+679655812+694677955+713014418
1558+718830927+709474505+699193931+693751513+692704412+694732377+698223627
1548+702740859+709975977+721366272+735998816+751586674+763481542+763234240
1538+752579058+744268925+743451699+746412825+747536281+747028459+749322705
1528+755685656+763479918+770607298+777741102+784512926+787939341+787638355
1518+786306217+784372254+781211676+778858355+780555650+787941852+800453092
1508+813619250+816438376+804472027+790987603+785190514+786627805+792013659
1498+797185514+798184027+795177117+793192350+796211444+803112124+808009208
1488+806070223+799656024+794244325+792411824+793401401+795452480+798301586
1478+803283663+811057839+820047923+826384365+825748350+818784164+811833344
1468+809637680+812177455+815878716+816935269+816283304+818581685+826616160
1458+837133033+840358224+833028808+823860835+818631234+817347612+818184333
1448+818864875+817764385+815389945+813577676+813519931+815658440+820344183
1438+826754542+831145945+830181327+826514994+824352707+823805083+822579649
1428+820438408+819597477+821003015+823444062+826324108+830295415+833828977
1418+832700647+826575989+820220126+816890225+816218027+816298147+816258493
1408+816867998+818543803+819975999+820124425+820372613+822461795+825785050
1398+828297577+828896523+827484338+824480752+821680530+821213470+823067681
1388+824746958+823848429+821295805+820335913+822773710+827850086+833763995
1378+839461542+844923159+849908412+853276638+854434505+854413976+854349806
1368+854529025+855583658+858646911+863330512+866867545+866742306+863535871
1358+859629768+856513275+854211202+852231235+850449242+849106323+848419356
1348+848390779+848696491+848999102+849683558+851543603+854194809+855760735
1338+855206096+853859559+853391538+853932738+854796855+855510627+855790863
1328+855664591+855817152+856981517+859158130+861987519+865227405+868285784
1318+870224842+870989344+871751705+873380620+875273674+876267460+876242058
1308+876048071+876197752+876619103+877487356+879139679+881094761+882200569
1298+882008797+881257956+880835423+880808765+880606139+879681322+877626846
1288+874079845+869296407+864467703+860645782+857703042+854954659+852339046
1278+850345787+849154912+848430507+847815611+847266880+846906376+846821603
1268+847142601+847970683+848991792+849638292+849880573+850251046+850923908
1258+851538139+851967613+852415770+852906755+853464200+854501259+856255635
1248+858086216+859131250+859476986+859886522+860602879+861324700+862244273
1238+864109709+867159448+870750239+874138551+877147085+879970419+882701376
1228+885160366+887058589+888200875+888488938+888068769+887636710+888051563
1218+889421878+891179059+893110068+895463389+898163774+900834843+903375800
1208+905854359+908210264+910409029+912344174+913713455+914789134+916667049
1198+919772171+922986138+925272335+927134448+929378627+931619188+933144722
1188+934412395+936584651+939830666+942943984+944878538+945890416+946837017
1178+948231109+950342666+953236890+956420729+959232248+961709995+964384757
1168+967187710+969294467+970112211+970135619+970605043+972225613+974489583
1158+976428198+977753837+978752498+979470626+979966486+981016836+983508097
1148+987080279+990143679+991593302+992024105+992671713+993704046+994447577
1138+994957097+996247070+998756865+1001595781+1003830435+1005254138+1005620107
1128+1004748015+1003538162+1003660964+1005612575+1007972024+1009193323
1120+1009702843+1011404273+1015094900+1019261597+1021880385+1022834517
1111+1023750990+1025660732+1027744745+1028419601+1027349386+1025881598
1103+1025088444+1024863443+1025067989+1026339871+1029739333+1034878254
1094+1038969187+1039404642+1036939375+1034579630+1033773037+1033860394
1085+1034517602+1036493139+1040074182+1044166444+1047032239+1047988070
1077+1048495227+1050280100+1052314712+1052064456+1049923140+1049105914
1068+1051074731+1054151792+1056136263+1056374261+1055519596+1055045742
1060+1056460363+1059909152+1064188239+1067768618+1069870870+1070314596
1051+1069119290+1067426500+1067420593+1069893688+1072848168+1073741823
1043+1072583365+1071428600+1071303804+1071225604+1070250573+1068755537
1034+1067215677+1065535958+1064022903+1063231300+1062339787+1060321273
1025+1058024886+1057412206+1059373787+1062588787+1064891082+1064998007
1017+1063324934+1061808926+1062018198+1063045731+1062362678+1059456344
1008+1056893160+1056786604+1058122951+1058718056+1058103604+1057023789
1000+1055549503+1053460690+1051404294+1049957108+1048453727+1046135926
991+1043711494+1042389473+1042092991+1041776497+1040976476+1039646332
983+1037044971+1032929596+1029397585+1028943373+1030901483+1032079435
974+1030840710+1028173628+1025232956+1022153901+1018517697+1013567151
965+1006903139+999822502+994550588+991607996+989380579+986767551+984574841
955+983494066+982603661+980695986+977567309+973679371+969624400+965965452
945+963057714+960942539+959716219+959831341+961711694+964847830+967210159
935+966619484+963293644+959737634+957755008+956956021+956487705+956442882
925+956982309+957596023+957834981+958022543+958987900+960977467+962825771
915+962977225+961477240+959802542+958808386+958279224+958198365+958707442
905+959169186+958830170+957759143+956105491+953650414+950949733+949404335
895+949402859+949822216+949778944+949461712+949016288+947874075+945495353
885+942209093+939290353+938138984+938949269+940398154+940994367+940379619
875+939289540+938780389+939254686+940017342+940318919+940355103+940388628
865+939838050+938220802+936217353+935215444+936218756+938860509+941200242
855+941476713+940141473+938878379+938331494+938195770+938396919+938902452
845+939265172+939220054+939219758+939843219+940734437+940682156+939451184
835+938731874+939878517+941556464+941575515+940367435+939947782+940301640
825+939968679+939605074+941602911+945925270+949266765+949344670+947862260
815+947514310+947928572+946981750+945195253+945712379+949749333+954666058
805+956948636+955551959+952211498+949921093+950570030+953020971+954442386
795+953903845+953257714+954348752+956935197+959308455+960089203+959422986
785+958303001+957202954+955810486+953489435+949972857+946168732+944239496
776+945741400+949600907+953050878+954370610+953859022+952517580+951141727
766+950442207+950768152+951443599+951102220+949148615+946613418+945294351
756+946201371+949033567+952736378+956004990+957704056+957557255+956386687
746+955462387+955669666+956985558+958436215+958394272+955800738+952419737
736+952506946+958304552+966623989+971297917+969271502+962953890+956627565
726+952579682+950337497+948375547+946453325+945606783+946023408+946955683
716+948600622+951358605+953645762+953240582+950868062+949841711+951651321
706+953914405+953295596+950019231+947327264+946799430+946541495+944663948
696+942349765+941022649+939376897+935332559+928795411+921714921+916736832
686+914953140+914933424+915290532+915615074+914638936+910973859+905130840
676+899247059+895925132+896276480+897765535+895732401+890037069+887715206
666+890059812+891415359+889885837+887016646+884053377+881487461+879793121
656+878444295+875972086+872437712+869872830+869983964+872448567+875470541
646+877846088+879710785+880881501+879585695+874952159+868777065+863746621
636+862010706+863696333+866767708+868242069+866110057+862116967+859702504
626+859485109+859731599+860201613+862704540+867053630+869493495+867275456
616+861804535+854873579+846711946+839218523+835660666+836644927+839959764
606+844707314+852149121+860694888+864635180+860991665
##END=
