##TITLE=<SNM>
##JCAMP-DX=4.24
##DATA TYPE=INFRARED SPECTRUM
##DATE=3/5/2025
##SAMPLING PROCEDURE=Instrument type and / or accessory
##ORIGIN=Admin
##XUNITS=1/CM
##YUNITS=ABSORBANCE
##RESOLUTION=4
##FIRSTX=4497.3318
##LASTX=599.83466
##DELTAX=-1.4281778
##MAXY=1.7474049
##MINY=0.19013551
##XFACTOR=1
##YFACTOR=1.6273977e-09
##NPOINTS=2730
##FIRSTY=0.21352504
##XYDATA=(X++(Y..Y))
4497+131206433+130743648+130983354+131517999+131698921+131171821+130179951
4487+129354727+129114792+129405893+130006015+130709174+131117011+130740480
4477+129587639+128397165+128051198+128761353+129804793+130120937+129389137
4467+128409746+128217543+129070960+130451759+131591983+131791199+130805546
4457+129233367+128063303+127693823+127748093+127823295+127959561+128314391
4447+128792439+129153945+129216712+128861259+128138597+127475176+127387842
4437+127890228+128504268+128771608+128454402+127575348+126586050+126086310
4427+126163984+126384929+126378776+126029045+125301210+124295778+123361492
4417+122979550+123481927+124717633+126028276+126790385+126852777+126311512
4407+125285158+124105773+123201099+122568005+121874322+121164552+120862206
4397+121038642+121326657+121583715+122012108+122648947+123295007+123789812
4387+123959948+123642668+122990162+122333215+121696825+120897907+120006025
4377+119356367+119253668+119741386+120469707+120921833+120881527+120504107
4367+120040068+119726854+119729546+119932737+119946902+119527088+118977775
4357+118944666+119617142+120440525+120960125+121398471+121948993+122232961
4347+121931083+121237446+120402160+119521961+118856993+118713658+118971091
4337+119128783+118843341+118224082+117600593+117143961+116857420+116834080
4327+117183169+117695984+117910126+117616855+117160443+117118305+117673560
4317+118436044+118968912+119225274+119301446+119143580+118816622+118693651
4307+119011114+119542499+119912345+119942882+119735452+119667273+120005750
4297+120341800+120001685+119185810+118873584+119407075+120093945+120380807
4287+120483020+120694113+120852327+120691457+120219306+119608672+119059817
4277+118860344+119271679+120179374+121023149+121277561+120960446+120558707
4267+120505856+120834838+121276837+121546714+121485970+121097582+120586021
4257+120217456+120066027+120057054+120234478+120757603+121675069+122866742
4247+124058471+124805187+124779751+124196504+123631946+123351612+123122042
4237+122686873+122126985+121743165+121757825+122090460+122385096+122389976
4227+122315736+122607689+123348865+124147032+124683974+125051926+125329650
4217+125200260+124454111+123574819+123306288+123781718+124417724+124533800
4207+123971595+123284047+123222250+123904496+124763351+125360379+125792388
4197+126227136+126509960+126410347+125996064+125559577+125272211+125155284
4187+125328276+125908446+126629405+126932932+126523255+125613545+124743345
4177+124538918+125381603+127041216+128727548+129691812+129833718+129625071
4167+129480097+129433381+129368883+129189920+128804599+128298697+127953985
4157+127788500+127421813+126696138+126024861+125810124+125879612+125836962
4147+125698233+125784331+126158984+126610122+127022857+127328829+127343644
4137+127089919+126917366+126976215+127060500+127166961+127620480+128446399
4127+129117273+129146070+128645515+128142662+128007843+128188325+128400196
4117+128490799+128685703+129375109+130466126+131186096+130901642+129902236
4107+129071885+129060173+129868522+130886791+131334211+130972055+130330647
4097+130099804+130435964+130916686+131058648+130747302+130153113+129497851
4087+129078102+129190021+129739755+130194720+130137721+129661266+129160629
4077+128980082+129225182+129686199+129989185+129956515+129733318+129490874
4067+129182329+128721953+128218697+127833541+127589842+127528686+127791916
4057+128315728+128731439+128836665+128881183+129095389+129222114+128918340
4047+128449201+128473969+129150355+129936225+130323780+130267477+129871571
4037+129222316+128573326+128280915+128504140+129083312+129602628+129608525
4027+129033940+128406221+128412987+129253118+130515635+131603996+132160735
4017+132173187+131771760+131000669+129932809+128962310+128622102+128985576
4007+129588518+130063133+130472819+130941784+131377383+131672889+131913648
3997+132260979+132638701+132645495+132065041+131363978+131240348+131810126
3987+132603348+133065793+132793353+131787729+130746523+130612125+131681441
3977+133429093+135030856+135798989+135449644+134319053+133176174+132646154
3967+132909200+133917406+135488907+137025732+137684254+137235323+136329220
3957+135647285+135310603+135237306+135559933+136465331+137736564+138674000
3947+138900576+139058525+139856783+140738822+140520102+139161800+137776303
3937+137254450+137923942+139840612+142391650+144006653+143549225+141987100
3927+141378701+142377229+143614959+143777202+143520520+144276502+145926309
3917+146643239+145093970+142103570+139519505+138369411+138703026+140634127
3907+144804352+151332689+158392081+162885309+163431527+160939786+156363967
3897+150815607+146730546+146373326+149443021+152548325+152699910+151674188
3887+152810575+155677967+157368373+157831085+158785148+158699609+155504636
3878+151950950+152003297+155709355+160658097+165312057+168327875+167842017
3868+165035459+163426289+163651208+162941035+159793418+156449140+155845182
3858+159450840+167788177+179427526+186621023+181450567+169850426+160217581
3848+155250453+154886760+157998464+162950740+168511755+174083739+178362120
3838+179175504+176522024+172995954+169966493+166967522+164136188+162677512
3828+162896754+164060445+166632598+171959281+178372796+180916985+179023049
3818+176892036+174987369+170656925+164818946+161206018+161784137+166040067
3808+171400537+175188389+178300900+183059646+187742521+188273723+185605464
3798+183335401+181381033+178527265+176093283+176046109+178451578+182214159
3788+186592052+191206053+195646814+200289456+206632027+215321374+224423054
3778+231635505+237752461+245437421+256254192+269631341+282580555+291349618
3768+295397806+297141320+298552290+301323613+307369406+316672600+326248510
3758+333542673+340354035+350896937+367799717+389621443+409620489+422407341
3748+431918057+443510580+456136938+464236647+467850069+472971593+483513544
3738+500010656+519421639+535231031+542764799+544470716+546444697+552271266
3728+561225051+569176683+571984888+570054126+566783777+563483578+559365965
3718+554796721+551916729+552467214+555496566+556818572+553060734+546287829
3708+540599522+538146623+539383181+543148234+546731586+548263421+548592504
3698+549424421+551843551+556614969+563902869+572462781+579335418+581539994
3688+579810014+577924118+577947778+579797745+583199543+588193976+595198063
3678+603844448+609680467+606991625+599091306+592946019+588644289+582777578
3668+575922375+571045987+568331837+565853922+562742566+560765178+562416633
3658+567354735+571803334+573728127+576385324+583415965+592999969+596999243
3648+590713754+580329660+572565955+568313414+565763786+563789732+562792084
3638+563951838+568013779+574284289+581321485+589175949+598492548+605362951
3628+603110688+594612014+588764275+589544587+595962112+604529130+610995514
3618+613946047+616340381+620334638+624132728+625835605+627196471+630107192
3608+632447137+631554494+629119029+628564442+630470372+632859836+634792137
3598+637533940+641613754+644775508+644693613+643201919+644605931+649869636
3588+654003436+651849843+646283463+643450755+644436060+645999687+645849667
3578+645182786+645926801+647648504+648682302+649105989+650658627+653631026
3568+655202490+652305687+646286100+641093815+638607440+638284767+638944104
3558+639712292+640187767+640236992+639252419+636522849+633313189+632933673
3548+636981477+642239761+643065452+637883422+630889737+626942801+627435857
3538+630335663+632354694+631680267+629448661+627971618+627689526+626987558
3528+625078990+623449877+623780901+625894279+627898879+627672019+624781516
3518+621029355+618593084+617962316+618019012+617447358+615698112+613212580
3508+611132970+610559375+611404697+612023012+610888970+608761747+607757542
3498+608312935+608651466+607474681+605752832+605090675+605731736+606776961
3488+607338141+607132853+606295516+604823234+602549179+599813163+597395790
3478+595650867+594782764+595494695+597896098+600360571+600840698+598925684
3468+596074993+594543048+595588640+597764319+598005023+595415107+592622248
3458+592519183+595012370+597325029+596928263+593940848+590615340+588998277
3448+589473313+590873698+591451250+590039767+586754401+582840611+579772986
3438+578184234+577556872+577079016+576596179+576440300+576750520+577355137
3428+577835740+577571705+576548858+575831250+576204393+576845966+576350164
3418+574671789+572882732+571493554+570335778+569620147+569681166+570022481
3408+569699625+568577229+567285952+566118067+565179313+565204218+566747920
3398+568780868+569412955+568037000+565834767+564326043+564136358+564782546
3388+565150818+564491884+563057510+561557723+560425914+559840965+559769654
3378+559681166+558839141+557180141+555550186+554808624+554835032+554762403
3368+554107827+553198007+552630162+552819334+553778818+554850158+555096759
3358+554387392+553576754+553366632+553531814+553504565+553256389+553178523
3348+553225001+552820616+552005583+551789345+552687554+553790392+554025310
3338+553487827+552664920+551471214+550066433+549341244+549465149+549204373
3328+547851785+546624639+546847397+547970122+548630228+548667330+548841925
3318+549206168+548864193+547261634+545095368+543732561+543907046+545102510
3308+546120596+546263839+545956219+546016982+546515348+546770520+546241497
3298+544872977+542967120+541219632+540327649+540189533+540083831+539730979
3288+539672012+540739945+543386338+547087149+550399032+552214973+552760110
3278+552866837+552665176+551545894+549354026+546984011+545551102+545332520
3268+545728847+545983139+545651567+544825326+544241292+544512909+544899091
3258+543759224+540814954+537908189+536954455+538050956+539686955+540173088
3248+539070251+537563834+537146740+538060186+539361498+539976188+539224958
3238+537044884+534284695+532178422+531164511+530718922+530344681+530121923
3228+530272052+530710828+531252010+531944859+532705246+532775568+531367747
3218+528833356+526373461+524777385+524072559+523888442+523618876+522761870
3208+521451548+520256157+519490862+518982533+518247345+516958522+515511659
3198+514659744+514367544+513890237+513159663+512884384+513167245+513190649
3188+512286945+510659444+509091716+508073080+507291231+506221283+504935390
3178+503802739+502800402+501886700+501488688+501718368+501739171+500838654
3168+499498995+498516070+497714186+496356982+494351869+492352434+490911321
3158+489931142+488859107+487306359+485454781+483781461+482499194+481511397
3148+480783021+480430279+480526458+480996696+481506526+481406538+480256343
3138+478505303+477096311+476291460+475510490+474431056+473555188+473449962
3128+473863467+473838195+472748799+471186821+470407389+470737130+471154407
3118+470718085+469460796+467728948+465941758+464894738+464982347+465334577
3108+464746880+463095938+461142212+459611072+458970049+459375752+460327765
3098+460755847+459934588+458303021+457011524+456617284+456569305+456046289
3088+454958871+453911851+453375174+453146116+452799600+452499819+452725580
3078+453203765+453008111+451887986+450551402+449538151+448838636+448508712
3068+448592731+448542041+447637312+445930516+444107433+442622626+441465545
3058+440562794+439981067+439724760+439581810+439300488+438823657+438189849
3048+437330426+436205942+435004911+433966974+433220761+432957129+433379644
3038+434251593+434889430+434813798+434022535+432593069+430593194+428472344
3028+426926078+426155400+425662271+424965686+424216433+423852446+423856548
3018+423711913+423145057+422553807+422375660+422315484+421703321+420463430
3008+419152521+418127880+417246225+416295970+415203754+413949102+412737413
2998+412047311+412033576+412120892+411652815+410690144+409765014+409138897
2988+408680380+408210838+407621090+406805911+405761564+404688247+403864314
2978+403427992+403222961+402843225+402031746+401087021+400596566+400699081
2968+400877009+400548220+399673963+398715761+398073748+397635888+396972778
2958+395956048+394925216+394168639+393526406+392649183+391502138+390488301
2948+390033995+390057949+389996637+389449448+388591893+387843336+387432176
2938+387387456+387575199+387614792+387079397+385901806+384421833+383070123
2928+382148473+381777052+381813091+381842099+381420573+380453397+379335030
2918+378621158+378508021+378701368+378802382+378635992+378139200+377252454
2908+376140973+375250271+374886944+374888665+374833251+374448094+373772386
2898+373039285+372404781+371758556+370879136+369761868+368679174+367939700
2888+367632520+367528650+367258315+366717389+366218217+366064719+366073912
2878+365742302+364881231+363868639+363195202+362961603+362937283+362867218
2868+362534034+361778701+360707545+359729345+359174904+358917352+358491175
2858+357612377+356495365+355596752+355129371+354946829+354826477+354658401
2848+354379020+353960571+353532123+353324272+353353572+353276548+352765986
2838+351978862+351371570+351053219+350637810+349799960+348694925+347740897
2828+347180414+346968497+346930370+346866604+346605426+346110173+345491784
2818+344835048+344114253+343343171+342678780+342291976+342172723+342065812
2808+341639488+340817094+339887716+339196112+338775246+338324053+337527150
2798+336432737+335454573+334881490+334537647+334097955+333528645+333033172
2788+332736027+332521327+332112914+331384464+330579394+329999498+329534388
2778+328824728+327840924+326937477+326327841+325837606+325212954+324397189
2768+323468543+322547332+321780792+321228586+320779371+320279247+319648368
2758+318864541+318001455+317224550+316577153+315890787+315044220+314175054
2748+313541795+313261681+313201029+313070971+312635931+311844339+310799077
2738+309702831+308802571+308243772+307954868+307751229+307555867+307411452
2728+307235319+306738051+305786331+304712043+303973998+303603602+303258716
2718+302712406+302020234+301316691+300690885+300165251+299618794+298864579
2708+297962835+297279966+297072079+297178531+297230375+296963904+296284808
2698+295277161+294214337+293378592+292859221+292600753+292522228+292504409
2688+292381676+292018624+291365806+290482046+289551166+288822808+288436791
2678+288275308+288060590+287665178+287244532+286982914+286824196+286579555
2668+286204251+285817684+285480984+285117235+284698255+284353735+284170698
2658+283990829+283546412+282759783+281846282+281136786+280789556+280671914
2648+280536820+280232405+279728051+279115595+278590785+278242859+277919288
2638+277466210+276974857+276632901+276465228+276342971+276155869+275902364
2628+275632560+275336478+274922680+274323501+273620727+273053687+272824501
2618+272850048+272836093+272642398+272398361+272224279+272052962+271786986
2608+271469404+271232820+271137593+271098953+270997097+270825377+270660048
2598+270531217+270417330+270309412+270190634+270001920+269698403+269323264
2588+268995848+268809350+268740054+268682020+268534162+268203285+267638663
2578+267002382+266652551+266743383+266978447+266984289+266782939+266658265
2568+266725620+266896772+267127642+267439162+267776705+268048908+268239343
2558+268356124+268373668+268307980+268212735+268043725+267680581+267126012
2548+266539341+266056760+265701326+265458900+265313240+265205798+265071015
2538+264916033+264753452+264475755+263983212+263427691+263077513+262957820
2528+262918832+262984081+263276684+263695151+263987589+264039140+263874983
2518+263541268+263109359+262664283+262276636+262052157+262079718+262269934
2508+262391952+262296853+262007528+261634495+261294865+261076520+261012224
2498+261073389+261190793+261294205+261329586+261229744+260928040+260452766
2488+259945408+259533698+259230858+258967244+258660577+258255569+257757239
2478+257250357+256844343+256561903+256302776+255958531+255550648+255211604
2468+255041166+255010785+254980935+254783705+254329656+253691123+253077019
2458+252676059+252505841+252448247+252417023+252398362+252339432+252154417
2448+251894246+251755269+251839362+252027875+252151065+252161595+252079169
2438+251877251+251506727+250991055+250452821+250042375+249844706+249858752
2428+250031552+250251838+250353840+250250373+250050689+249940574+249963172
2418+250007141+249974416+249882137+249814068+249814526+249841117+249832949
2408+249803832+249814600+249866755+249898656+249898436+249970717+250254237
2398+250755075+251261719+251494970+251391796+251165595+251029091+250959758
2388+250825305+250614927+250392297+250068672+249376904+248109800+246328104
2378+244317131+242370747+240604911+238953108+237380618+236065480+235190381
2368+234612537+234059579+233571633+233390647+233643786+234499345+236275162
2358+239103274+242839703+247472072+253270678+260171388+267126122+272581252
2348+275575314+276350956+276178211+276119115+275810397+274260816+271338046
2338+267754949+264164858+260715610+257338754+254161983+251459132+249364982
2328+247850599+246799404+245980910+245212392+244629036+244544137+244984598
2318+245556436+245834883+245796078+245774963+246041324+246564175+247170313
2308+247733397+248180725+248478621+248666474+248851965+249120285+249422136
2298+249613341+249654728+249675770+249792093+249975313+250135185+250249695
2288+250407772+250710905+251084194+251275399+251137375+250807121+250518583
2278+250343310+250195434+250011445+249813299+249606639+249335004+248972427
2268+248581942+248276154+248164427+248262968+248414855+248426539+248305198
2258+248224218+248260258+248301572+248212626+247977104+247655549+247293741
2248+246941109+246700295+246668393+246842531+247101511+247260247+247208605
2238+247050693+247023498+247249424+247647747+248067735+248443222+248831638
2228+249298891+249782680+250174447+250510800+250943680+251569449+252400029
2218+253416137+254542378+255644960+256664785+257745373+259131712+260892018
2208+262829135+264716277+266507715+268275951+270052555+271783799+273427416
2198+275065887+276839818+278753696+280648547+282371477+283895804+285301042
2188+286668464+287993876+289217707+290285970+291158322+291868531+292534296
2178+293169020+293634918+293872197+293922448+293733532+293224105+292459762
2168+291583363+290710297+289925279+289209814+288372824+287161941+285525960
2158+283761973+282248250+281044087+279980878+278995701+278109761+277326025
2148+276685569+276271643+276473689+278332115+282821076+289659413+297642543
2138+306008356+314619141+323242525+331596710+339757914+348009254+356544151
2128+365376118+374391141+383520437+392692255+401576158+409704472+416748334
2118+422454918+426692553+429695973+431948530+434000450+436688926+441204220
2108+448550172+458935621+471781183+486075038+500214552+511860329+519192289
2098+522266361+522239954+520005088+516079797+510753132+504080618+495972009
2088+485876087+472969872+457312001+439885181+421566377+403101107+385352017
2078+368867357+353949876+340994509+330090733+320915326+313300871+307196074
2068+302312526+298389964+295269836+292582953+290024938+287642708+285488346
2058+283607284+282261307+281530696+281185096+281252670+282034465+283676434
2048+286330243+290339974+296050898+303902688+314493185+328186305+345055132
2038+365096114+387808359+411817667+435326961+456450088+473387479+485366733
2028+493089307+497726382+500032192+500272164+498506693+495048125+490404201
2018+484719080+477820329+469706299+460602202+450812874+440563600+429745784
2008+418101509+405756107+393211388+380912062+369104802+357926882+347454081
1998+337829935+329412461+322550445+317034719+311992966+306693111+301284863
1988+296370824+292240026+288849966+286085803+283776440+281770540+280073102
1978+278737050+277696879+276774404+275789630+274793941+274174325+274178995
1968+274350458+273885366+272643332+271315136+270508747+270163605+269951890
1958+269810075+269807071+269806669+269602773+269258564+269084812+269315133
1948+269972931+271087819+272678108+274164784+274340587+272759912+270555702
1938+269070271+268542531+268482465+268505411+268500192+268439118+268317649
1928+268344642+269077853+270823179+272869258+274205164+274953629+275750770
1918+276096096+275049277+273192883+272108963+272463005+273624756+274565305
1908+274757278+274445685+274182950+274185276+274281949+274361006+274615756
1898+275303240+276291238+277080028+277609563+278530572+279950753+280662483
1888+279715836+277941630+276695787+276283601+276276441+276323340+276290121
1878+276191066+276145925+276345206+277316905+279925445+284286216+288482390
1868+289489580+286660058+282545174+279646412+278508871+278432122+278643288
1858+278759025+278762578+278829054+279087650+279625755+280647613+282466759
1848+285465674+289699995+293694032+294483573+291307022+287226585+285059605
1838+284954178+285531143+286031670+287390650+290850354+295497428+298318269
1828+298089322+296729829+295524293+293835737+291609111+290049972+289772037
1818+290206547+290740807+291590597+293336931+295807593+297755771+298083883
1808+297169192+296398952+296967439+299352562+303002793+306236352+307454267
1798+307045927+307288499+310172557+315295362+319036389+317792469+313216485
1788+309810475+309474397+311106330+313212566+315437324+317498547+318676394
1778+319347305+321409554+326392046+333413164+338643979+338794547+335243059
1768+331111786+328120342+327514259+329902623+333619880+335872180+336464784
1758+337085480+337969406+339033384+341981719+348245087+355929973+360718350
1748+360982201+359172963+357991307+358485937+360493467+362906481+364405829
1738+365763582+369730150+376730757+381536201+379176880+373036502+367580255
1728+363741548+361770314+361857959+363387597+366325018+372280253+382308711
1718+393390635+398497948+395004328+387936769+382190703+379734324+381197193
1708+386259859+392853481+398181867+402513081+408984337+418013424+424639423
1698+425478702+422331562+416327761+409473913+405813536+406798403+410860234
1688+417067454+426819497+439410695+446653581+442723127+434816508+430425704
1678+431489169+436746538+442767334+446885532+450495145+455255136+458378763
1668+456632228+453277786+453446264+457529705+461622741+462688221+462682214
1658+465744675+474780392+490622710+508113625+513997990+509417025+508346492
1648+513580237+518145782+515683214+510004539+507366680+509617808+516745983
1638+528296972+540970980+547056567+543861007+539184706+539366589+544753247
1628+552757620+561392284+570646913+579939743+587189002+592825264+600632773
1618+612561924+624411083+629370208+628269532+626552810+626335986+626706492
1608+626556839+626095574+626439636+628454125+632230825+637463252+643955970
1598+651552808+659679694+667229797+673321024+678225870+682879830+687489838
1588+691482191+694674051+697539722+700440187+703536015+707597297+714160849
1578+723986290+734365000+740099419+741931585+746015941+754960459+765881596
1568+774903541+782918059+793145138+806874517+824944778+849885589+880313375
1558+899842147+899243536+892821285+889134172+888047486+887805024+887146786
1548+886303808+886912382+889887710+894740767+900551661+903134655+894740255
1538+879112564+868117223+864200174+862071705+856964539+851074827+849032209
1528+850948321+853404370+854700189+856769617+860478559+862963762+862303986
1518+860158670+857613840+854522920+852081082+852505941+857336510+866963659
1508+878742424+883038990+873150406+859477284+851659007+850274115+852564982
1498+854854090+853748359+849417439+846048896+846866090+851106178+854649060
1488+853703163+848756857+843079794+839230868+837901207+838609183+841022819
1478+845155961+850539725+856076584+859884929+858998146+852940395+846346517
1468+843587866+844845448+846957801+847209053+847182023+850292794+857119612
1458+863289951+861479980+851905059+842315122+836634542+834723045+835050040
1448+835272358+833669616+830771640+828221537+826906819+827193965+829556472
1438+833416385+835709450+833830549+830060515+827794554+826940002+825336087
1428+822646806+820855221+821013151+822270953+824037339+826666188+829015363
1418+827940251+822803857+816623776+812011130+809744436+809316721+809657194
1408+810119045+810467575+810052605+808590140+807457232+808206668+810564414
1398+813125725+814922657+814983529+812305821+808143232+805587635+805932942
1388+807189059+806418306+803823373+802764816+805574962+811490532+818124113
1378+823981228+829279801+834485564+838902262+841585610+842983761+844223469
1368+845784165+847913073+850929862+853979175+854799298+852314242+848340715
1358+845480465+844770511+845454241+846213126+846625898+847020577+847151770
1348+846414348+845393002+845730692+848278378+852257032+856115627+858781542
1338+860294038+861420866+862816746+864792778+867499494+870861517+874592068
1328+878495420+882418476+885960625+888972213+892182679+896450677+901520192
1318+906328859+910488371+914507899+918661112+922684962+926468328+930093177
1308+933216840+935100649+935385597+934764351+934708167+936258242+939246243
1298+942675511+945151192+945233380+942856149+939956123+938142710+936723902
1288+934407690+931471111+928698836+925844738+922572301+919510316+917386023
1278+916147780+915476430+915393070+915989997+916993395+917904790+918546034
1268+919261261+920378346+921612048+922353206+922597500+923256177+925298868
1258+928557167+931545095+932798867+932286327+931163675+930374683+929879723
1248+928851858+926302267+922005555+916937651+912439131+909135709+906897803
1238+905270668+903632838+901500121+898870759+896055558+893506114+891761703
1228+890893307+890245837+889269907+888104623+886962119+885792879+885023739
1218+885788924+888769453+892995185+896397789+897799676+897800775+897626070
1208+898142053+899961767+903179411+906811879+909529729+911130860+912614642
1198+914832696+917653904+920479360+923061402+925329121+926799351+927115944
1188+926994493+927662840+929676963+932900614+936880074+940745994+943702643
1178+945853014+947708474+949201925+950036919+950507193+951193779+952339799
1168+953921811+955919745+958262547+960587696+962358477+963350229+963889213
1158+964549795+965802908+967882811+970673326+973777358+976779936+979324326
1148+981202128+982682174+984238035+985598022+985976147+985530192+985486827
1138+986900800+990262677+995412402+1000812648+1004301470+1005405663+1005538760
1128+1005973215+1007036167+1008648432+1010506529+1012552810+1015257547
1120+1018532841+1021283507+1022973492+1024431343+1026079501+1026623101
1111+1024552794+1020288093+1016252522+1014806538+1016376537+1019802948
1103+1023722415+1027018512+1028879613+1029534920+1030122690+1031270394
1094+1032844276+1035021017+1038037586+1040829566+1041786157+1040918713
1085+1039806170+1040055005+1042826035+1048272796+1054210121+1057484169
1077+1057485635+1056183882+1055045994+1054203675+1053780721+1054315017
1068+1056386569+1059965417+1063290521+1063097723+1058204525+1052204276
1060+1049782655+1051969944+1056738909+1062052352+1066771652+1069871288
1051+1070360828+1068387286+1066204319+1066405394+1068506759+1069220742
1043+1067362498+1065962369+1067806329+1071623976+1073741823+1072089856
1034+1067614044+1062650377+1059015492+1057334590+1057324774+1058579499
1025+1060929113+1063675678+1065535606+1066217504+1066784031+1067811676
1017+1068745706+1068944364+1068124533+1065999508+1062885587+1060354602
1008+1059701858+1059703763+1057890349+1054345270+1051716128+1051256548
1000+1051431253+1050692658+1049632197+1049844406+1052177100+1055791767
991+1057736594+1054914581+1047973930+1041328262+1038316601+1038220348
983+1038433950+1037887640+1036997561+1035819238+1033737358+1030540004
974+1027358765+1025393941+1024407243+1023141165+1020717273+1017650234
965+1014855909+1011792459+1006994487+1000257695+992925295+986496672+981848792
955+978925472+976832457+975007616+973999896+974227268+974588178+973530720
945+971100675+968721028+967362725+966845350+966395440+965236381+963134870
935+960936226+959848515+959875618+960039702+960225028+961128951+962140920
925+961382035+958733774+956681268+956853409+957726420+956811509+954008028
915+951632702+951654678+953876249+956465322+957512452+956246520+953522298
905+951204108+950413431+950174558+948810543+946804624+946477336+948601263
895+950993876+951007281+948453075+945466979+944410326+945801005+947717264
885+947720560+945374755+942182236+939702453+938491167+937763487+936003693
875+933085867+931030210+931477850+933602363+935628206+937140776+938456812
865+939015867+938067847+936254799+935139912+935436067+936682002+938266944
855+939809400+940904364+941333837+941290326+940840269+939840093+939040626
845+940127532+943557752+947000132+947191172+943714657+939526137+937390563
835+937216591+937124514+936167850+935153463+934861995+934812770+934413403
825+934070513+934349894+935220122+937110450+941229307+947427921+953086524
815+955663292+955382079+954225878+953693267+954173576+954973263+954834891
805+953527498+952372249+952261493+951888643+949633157+946201545+943430954
795+942021668+941926954+943598626+947404554+952448944+957130446+960194042
785+960558322+957878197+954239796+952941633+954576606+956059509+954746843
776+952336649+951986873+953216253+953135969+951364529+950090759+950004908
766+949476838+947256952+944010959+941626843+941735988+944291439+947496557
756+949706701+951107782+952571493+954376190+956580620+958928843+960140569
746+958641258+954648100+950776026+949939641+952941120+958212956+963273388
736+966028450+965362667+961462319+955343842+948581705+943943275+943913168
726+947360749+949731900+948542882+947152349+950138299+956709689+961791218
716+962838274+962071624+961743458+960661240+956612631+950238287+944598289
706+941322703+939021874+936118258+933531016+933279544+935430207+937474876
696+936972004+933670121+928697224+922823554+916324390+910980181+910167456
686+914956931+921169609+922830440+918974042+914130874+911785288+910666225
676+908393012+905708712+904304261+903118905+900116181+896630802+896553375
666+899311806+901634244+902216887+900537743+896568538+891990687+888824392
656+887121661+885201154+881929230+878465094+876662961+876214222+874788236
646+871151446+866685596+863469637+861930110+860839835+859968948+861462912
636+865883200+869591409+869024443+865244593+861576159+859965799+860522656
626+861129911+858509999+852983101+848932001+849077112+851987687+854716890
616+855624476+854612141+852060279+848402613+844141135+840017442+837929848
606+840076776+846888285+856801921+866707645+871700246
##END=
