##TITLE=<SNM>
##JCAMP-DX=4.24
##DATA TYPE=INFRARED SPECTRUM
##DATE=2/5/2025
##SAMPLING PROCEDURE=Instrument type and / or accessory
##ORIGIN=Admin
##XUNITS=1/CM
##YUNITS=ABSORBANCE
##RESOLUTION=4
##FIRSTX=4497.3318
##LASTX=599.83466
##DELTAX=-1.4281778
##MAXY=1.8059925
##MINY=0.28291416
##XFACTOR=1
##YFACTOR=1.6819616e-09
##NPOINTS=2730
##FIRSTY=0.29798785
##XYDATA=(X++(Y..Y))
4497+177166859+177268866+177776970+178406607+178921037+179227838+179403767
4487+179640437+179981790+180274469+180593265+181245334+182034600+182204134
4477+181518859+180810090+180966405+181811680+182445517+182379922+181827627
4467+181062512+180160909+179372901+179100475+179320790+179465429+179113729
4457+178527715+178223129+178200733+178065007+177804328+177764585+177944483
4447+178086836+178254527+178475267+178218717+177119550+175821347+175366665
4437+176074779+177409411+178581864+179002384+178462918+177208675+175833077
4427+174973946+174877326+175172450+175272933+175048914+174905162+175098243
4417+175345580+175364273+175268858+175221779+175282661+175568748+175979877
4407+176035745+175562352+175112950+175235405+175842805+176505470+176835695
4397+176674454+176309624+176177566+176165960+175789507+175052281+174430848
4387+174077110+173687279+173093575+172524713+172331756+172664710+173355211
4377+174105920+174693032+174811164+174071050+172585117+171211485+170765202
4367+171257572+172102776+172689587+172655248+171989872+171048526+170320088
4357+170079148+170219818+170451172+170680560+171068034+171640280+172054793
4347+171876471+171020034+169938479+169391305+169844747+170981761+171890806
4337+171778859+170579952+169052433+168256399+168684272+169807289+170641082
4327+170761623+170462051+169982723+169236531+168434260+168204890+168747262
4317+169456138+169658168+169274822+168691962+168390087+168660316+169365152
4307+170009602+170168203+169835143+169464714+169640236+170477892+171412983
4297+171748152+171357789+170724449+170415947+170698367+171470924+172286732
4287+172533006+171932020+170840259+169810868+169052079+168549999+168347314
4277+168374760+168363225+168261874+168462061+169307708+170539164+171495447
4267+171876436+172041788+172406122+172800329+172746127+172233044+171796046
4257+171813286+172163782+172590379+172950531+173142833+173201323+173251290
4247+173084078+172309040+171185456+170549600+170747678+171388567+172074993
4237+172617312+172770916+172454317+172026302+171951280+172349297+172947094
4227+173382586+173605843+173845171+174073158+173880910+173130023+172318555
4217+172033460+172340562+172830061+173071852+173013823+172974434+173150452
4207+173292663+173132787+172876857+172837096+172877849+172766557+172775877
4197+173351614+174321027+174965140+174890438+174500713+174505621+175010535
4187+175263489+174577665+173318037+172416771+172164101+172163923+172224256
4177+172560222+173245567+174055014+174806858+175529607+176263591+176820900
4167+176897640+176469731+175845002+175265225+174772041+174469404+174557324
4157+175027421+175534073+175694357+175509373+175355751+175467521+175661329
4147+175730113+175722140+175690299+175638507+175692939+175820001+175636080
4137+175017906+174474542+174463893+174837671+175284220+175806375+176402151
4127+176704292+176399635+175754388+175306670+175238860+175395653+175636930
4117+175775580+175482529+174710167+174002886+173992538+174689170+175477851
4107+175768740+175536518+175262638+175427547+175985530+176314550+175870517
4097+174851509+173928892+173458139+173321740+173355317+173543420+173956640
4087+174674091+175567596+176219825+176340277+176091382+175792891+175541656
4077+175275378+175007665+174878353+175000507+175244831+175271675+174909521
4067+174391955+174094669+174135777+174316278+174384991+174316721+174331959
4057+174601391+174958673+175073862+174912551+174757742+174749750+174743230
4047+174642339+174509058+174369009+174234010+174187586+174214838+174197048
4037+174157677+174213881+174362435+174583654+174947138+175434280+175897219
4027+176231803+176419197+176539366+176789094+177227900+177625528+177787282
4017+177754325+177543950+177061574+176343502+175597524+175049038+174879594
4007+175128932+175600926+176059293+176496380+177059625+177719650+178115275
3997+177915247+177361447+177096320+177351506+177786715+178148870+178527963
3987+178976780+179379741+179675574+179886622+179989108+179907778+179625802
3977+179279612+179102017+179218092+179617899+180326296+181273879+182050352
3967+182312519+182356178+182633531+182865913+182447944+181590372+181101653
3957+181143646+181154951+180982671+181369330+183080966+185692839+187508324
3947+187366680+186267690+185920933+186300097+186058218+184876765+183752897
3937+183455594+184271314+186438003+189486520+191703105+191661785+190074607
3927+188812746+188627868+188724914+188421710+188442441+189838646+192186651
3917+193509341+192266563+189184752+186358552+185133971+185621060+187799390
3907+192143595+198559958+205142488+209181185+209736687+207562379+203316709
3897+198176328+194568889+194432065+197136111+199344510+198648906+197276019
3887+198456445+201581968+203754859+204814088+206148118+206127600+203047968
3878+199831494+199942768+202969013+206819731+210616017+213111602+212334757
3868+209822003+209274386+210832877+211003226+208003789+204217337+202819555
3858+205687943+213723698+225262811+231888132+226050535+214518598+205686632
3848+201773154+202215043+205683903+210761045+216469791+222079117+226011324
3838+226199781+222976166+219054183+215819529+212790325+210018114+208647194
3828+208990743+210432379+213673270+220149452+227692766+230438292+227751309
3818+224505758+221605901+216676179+210750680+207390683+208559627+213975145
3808+220778717+225223351+227805014+231783804+236326458+237063790+234039211
3798+230830994+228004315+224707061+222194271+222240925+224745582+228529039
3788+232988522+237937398+242858472+247816154+254130014+262390992+270736790
3778+277245061+283051366+290754220+301832485+316210538+331875720+345171332
3768+353869096+358444654+360145233+360955832+363290318+367423615+370807904
3758+371668435+372165305+376337442+386796666+402122249+415594199+422466183
3748+427295971+435509338+445826316+452516789+455679982+461141338+472519317
3738+489823451+508998229+523102562+529371788+532492776+537336455+544114211
3728+551296132+558736641+566911559+574670227+578891551+577629938+573209986
3718+569770415+569441448+572466187+577685469+581030599+577838134+569282475
3708+560625252+555578126+555324286+558429681+561072722+560694674+559100869
3698+559392945+562556742+567903032+574664486+582125585+588074881+588818680
3688+584013593+578503971+576193937+577291757+580323194+584214488+589123160
3678+594733708+597229860+593032740+586938575+584849636+585115276+582234910
3668+575764291+569902420+566495522+564654327+563669340+564391628+567720812
3658+572312104+575177729+576055588+578727334+586101433+595811790+599881654
3648+593776362+583221669+574462209+568686734+565207933+563923888+564792179
3638+566911595+569212273+571622879+575196581+581166715+589072378+594579200
3628+593178565+587843863+583995094+583884494+587690454+593645208+597597490
3618+597175924+595352377+595530061+597815289+601339273+605672863+608595542
3608+607053157+602258382+598966231+599851036+603911332+608621908+612587302
3598+616086337+619215830+621021162+621131160+621224290+623771614+629126090
3588+633793078+633700302+629987649+626746599+625258362+623992532+621900510
3578+619685094+618540886+619157854+621577036+625381118+630011463+634343423
3568+636215661+634130231+629478978+624963167+621609071+618749897+615891431
3558+614072632+614931072+618211387+621381633+622789001+623651552+625255386
3548+626267766+624664854+620910384+617114240+614137342+611592427+609599560
3538+608905267+609662922+611004022+611811219+611642678+611033222+610886227
3528+611472365+612224067+612144119+610178610+606265734+602358528+600829043
3518+601570538+602091046+600871638+599190196+598724050+598887205+597867666
3508+595370663+592716141+590892027+589964802+589894707+590750560+592250987
3498+593539426+593174384+590300751+586364203+584330405+585847877+589669785
3488+592616809+592252475+588871340+584527367+580690824+577809465+576401743
3478+576856088+578394043+579566708+579526699+578127517+575666413+573147758
3468+571786494+571796275+572252746+572109898+571006903+569400411+568143121
3458+567762628+568123808+568742761+569110992+568684005+567029177+564339677
3448+561621650+560078166+560197945+561305122+561922799+560996390+558880270
3438+556793883+555568912+555169885+554945388+554117885+552404549+550267734
3428+548468497+547392470+546907046+546567023+545799941+544363266+542743450
3418+541709275+541452884+541592402+541989941+542957883+544470500+545816100
3408+546319916+545805753+544258158+541842733+539364831+537926243+538009698
3398+539280915+540963420+542051283+541592083+539406647+536546303+534555526
3388+534066204+534222094+533471774+530987565+527598740+525204577+525045073
3378+526795937+529230286+531088385+531401795+529974085+527731383+525950219
3368+525406571+526420830+528715626+530938767+531348390+529550784+527050840
3358+525748969+526180705+527307301+527943229+527869022+527347488+526532707
3348+525638617+524909240+524363325+524073268+524324485+525007615+525477376
3338+525376343+524859415+523872231+522164387+520189345+519018983+519043081
3328+519458197+519326759+518507300+517411039+516533498+516384696+517150573
3318+518230887+518747425+518546565+518169190+518083998+518424057+518980356
3308+519069128+518110931+516648741+516020929+516779577+518013478+518401554
3298+517550167+516242626+515691537+516419070+517671824+518197399+517686105
3288+516929903+516608200+516628400+516700196+516955205+517585321+518227166
3278+518401058+518422817+518946655+519841986+520444637+520375321+519477156
3268+517817968+516111259+515176097+514952131+514765942+514224315+513354074
3258+512396232+511759277+511669194+511757646+511349264+510226389+508955420
3248+508364605+508680602+509235448+509111771+508045737+506510581+505005335
3238+503642725+502465913+501822296+502088822+503030611+503660975+503015019
3228+501157806+499100229+497724365+497305458+497798643+498628697+498630398
3218+497351101+495704813+494438451+493166420+491670139+490768536+491073157
3208+491908031+492129622+491420339+490270957+489141419+488251086+487792027
3198+487556190+486732904+484887953+482713397+481236004+480848530+481241639
3188+481698181+481548139+480709508+479648295+478828163+478339089+477875175
3178+477041684+475872562+474868722+474311395+473760376+472425337+470044782
3168+467348124+465451079+464765469+464767099+464711639+464245847+463438154
3158+462428183+461116426+459434877+457846565+456959279+456669045+456331042
3148+455671973+454928458+454298342+453834783+453683642+453848072+453754233
3138+452629728+450480404+448190427+446532090+445625810+445284440+445187305
3128+444849195+444024811+442985994+442125924+441599924+441317274+440949892
3118+440228986+439388477+438818074+438401576+437822242+437131706+436398857
3108+435416917+434345001+433901748+434324305+434785065+434334122+432956805
3098+431373347+430153621+429327997+428685230+428107952+427508631+426721386
3088+425749333+424960847+424807473+425449921+426701257+428060607+428715352
3078+427933457+425837147+423586471+422379574+422270426+422250971+421547287
3068+420499575+419924813+419929526+419817508+419142599+418294507+417754048
3058+417301971+416451257+415277103+414307567+413913323+414100328+414512396
3048+414490566+413582053+412069116+410611959+409471932+408488185+407647534
3038+407150841+406936727+406628172+406020312+405205070+404239006+403173150
3028+402316660+401973128+401974616+401799909+401088074+399913744+398642739
3018+397561185+396706430+396090809+395765421+395496839+394829089+393709864
3008+392692557+392344809+392668814+393115966+393048528+392279568+391208219
2998+390317744+389635074+388881210+388026066+387366467+387015670+386622242
2988+385778261+384523168+383255672+382342233+381958019+382025244+382172097
2978+382019397+381498571+380639706+379314694+377608588+376136192+375502178
2968+375624509+375867858+375683618+374992621+374124471+373471250+373098943
2958+372726920+372158465+371569599+371222311+371043493+370710450+370077500
2948+369272606+368415938+367536696+366775568+366353719+366276111+366328700
2938+366365378+366305560+365928716+365078356+364024230+363217494+362696951
2928+362061484+361038331+359830972+358817280+358074048+357403888+356748860
2918+356271374+356064347+356126895+356499911+357031120+357248813+356873033
2908+356168073+355519211+355031378+354693941+354520190+354381700+354024419
2898+353369709+352643487+352104978+351696382+351101102+350189329+349187154
2888+348294517+347408754+346392759+345390762+344721487+344549225+344698595
2878+344780243+344574988+344243753+344008873+343779415+343365256+342868917
2868+342501429+342191989+341735907+341154199+340630184+340229916+339838898
2858+339275795+338471929+337603354+336950275+336610960+336444191+336205448
2848+335663997+334795847+333901544+333304988+333040872+333016668+333192190
2838+333375013+333172593+332430885+331507807+330902320+330741221+330728641
2828+330494221+329905036+329081679+328209773+327402363+326725080+326231789
2818+325884147+325544407+325175537+324924639+324835974+324653577+324132573
2808+323366838+322614250+322018403+321630432+321443038+321320566+321090293
2798+320683328+320080889+319296868+318497148+317892051+317466623+317031910
2788+316497795+315909071+315328780+314821208+314405454+313976908+313437193
2778+312868101+312396215+311974826+311460414+310808150+310087208+309423214
2768+308964050+308735052+308521966+308055607+307281721+306342448+305413063
2758+304653316+304160663+303885667+303694411+303476541+303117062+302518450
2748+301757995+301070754+300598974+300241019+299757544+299042378+298309423
2738+297871485+297695254+297415900+296819981+296034915+295274460+294684531
2728+294354855+294237308+294146783+293967008+293710352+293333615+292737785
2718+292016364+291442595+291088928+290683167+289985366+289129832+288456766
2708+288136499+288044609+287911523+287566167+287090807+286705848+286492000
2698+286310330+285995679+285526096+284988207+284456165+283943418+283441197
2688+282968938+282579639+282297219+282043610+281694567+281243872+280795605
2678+280356781+279817829+279193755+278671051+278346266+278110145+277858733
2668+277659592+277616393+277674139+277682927+277598852+277474342+277290119
2658+276962712+276484570+275928448+275384074+274972803+274789254+274744727
2648+274598192+274224769+273783022+273534232+273488075+273335764+272833312
2638+272120415+271513759+271148397+270974700+270926593+270923386+270841809
2628+270618588+270313169+270007945+269700684+269331477+268893150+268496780
2618+268289736+268262574+268188509+267874497+267423199+267096004+266990719
2608+267028885+267136846+267246844+267255189+267146148+267016287+266882262
2598+266633668+266229821+265780402+265396134+265080208+264793678+264549761
2588+264415647+264435776+264564272+264687719+264722058+264667449+264556299
2578+264397574+264221095+264105108+264072541+264020625+263845457+263578576
2568+263326420+263139593+263005037+262900283+262826236+262845444+263056155
2558+263420135+263679432+263611639+263312121+263047385+262912226+262796575
2548+262585509+262241127+261780863+261282026+260849493+260551286+260413504
2538+260405531+260390310+260213601+259909600+259696195+259698374+259780571
2528+259717546+259453731+259135944+258941605+258907000+258906344+258804762
2518+258621284+258492185+258497926+258603565+258715619+258698875+258442147
2508+258035749+257765148+257801454+258005982+258108963+257972121+257664381
2498+257399981+257377106+257572013+257742485+257687752+257405988+256980684
2488+256473076+255968906+255589865+255383636+255257886+255085996+254888999
2478+254842522+255022953+255225655+255176061+254867328+254520076+254244300
2468+253958390+253664506+253549777+253668280+253736852+253461130+252934651
2458+252533268+252495704+252706132+252834718+252678331+252374472+252193758
2448+252160358+252061080+251799285+251518814+251370455+251322330+251220571
2438+250962284+250618859+250407934+250478101+250705858+250817274+250737876
2428+250641557+250609964+250518110+250341737+250275114+250443372+250745477
2418+251032238+251252022+251416665+251530845+251541423+251359575+250988331
2408+250584857+250342145+250332984+250473653+250634894+250806696+251094396
2398+251510220+251910647+252284000+252997376+254621409+257612536+262326744
2388+269267140+279120098+292520411+309834290+331073448+355872028+383544807
2378+413254787+444152634+475341211+505820364+534616373+560752366+582813605
2368+599044335+608856363+614003813+617030607+618701985+617792657+612455120
2358+601024941+582930053+559061994+531076832+502814194+480754691+470055590
2348+472195559+485555987+505333239+524165866+536519583+541746201+542449672
2338+542026122+542477207+543554368+544022675+543189148+541174203+538294120
2328+534464735+529120004+521723863+512442549+502250099+492069095+481882563
2318+471216844+460276484+449852060+440157579+430435811+419866482+408390944
2308+396471266+384556125+373043838+362321100+352503261+343363094+334703922
2298+326615259+319251437+312547994+306254740+300156004+294242411+288714326
2288+283803156+279587165+276009228+273013725+270573972+268612023+266966816
2278+265466478+264038981+262740052+261635427+260680314+259771712+258869773
2268+257993082+257161876+256429824+255895745+255573954+255292544+254825725
2258+254133912+253396669+252803373+252393254+252101408+251839028+251513357
2248+251086564+250624547+250205072+249830709+249511966+249310840+249201976
2238+249042454+248788526+248587860+248554354+248604817+248607883+248548950
2228+248468276+248360280+248211265+248069214+248026529+248141081+248366464
2218+248569043+248649291+248648778+248717845+248962595+249321737+249621716
2208+249771050+249853921+250011069+250295987+250662624+251027206+251328727
2198+251562827+251766611+251980548+252225404+252500630+252816910+253200770
2188+253599301+253860015+253933991+253987856+254177022+254438197+254616820
2178+254673946+254692338+254743970+254787239+254714008+254504944+254262037
2168+254076929+253967639+253932910+253952631+253939874+253788148+253510335
2158+253275526+253223220+253274799+253247317+253117173+253064707+253313497
2148+253970917+254986416+256318090+258113127+260530944+263472742+266753836
2138+270403446+274536761+279102893+283953288+289034399+294448534+300362074
2128+306803066+313605912+320639562+327942149+335553892+343357530+351083738
2118+358394971+364998657+370641985+375054956+378115558+379950197+380630385
2108+379992367+377928412+374613616+370391087+365593052+360438833+355032972
2098+349423523+343613106+337627416+331610505+325675915+319760887+313853549
2088+308154868+302843555+297929603+293377929+289149287+285200637+281574115
2078+278357659+275541842+273037185+270786969+268813522+267198525+265998165
2068+265168359+264577650+264034853+263377362+262647082+262033870+261596446
2058+261248042+260958109+260734303+260546253+260419476+260412725+260479507
2048+260531405+260579317+260725355+261070730+261582909+262081870+262521473
2038+263147177+264170047+265497114+266915946+268303911+269613224+270853645
2028+272085579+273337642+274570835+275733630+276837670+277965896+279094016
2018+279901266+279988478+279339687+278360086+277447817+276692447+275954105
2008+275102150+274127989+273079338+272011391+271027201+270211445+269467044
1998+268630345+267861349+267620781+268000548+268360381+268005244+266985456
1988+265836641+264933089+264410013+264252404+264244165+264154065+263995801
1978+263926361+264053511+264398903+264824863+265126578+265411585+266024637
1968+266851414+267203557+266751763+266040017+265709952+265766226+265914568
1958+266157138+266653371+267272855+267683222+267809504+267962205+268488222
1948+269481077+270924060+272776169+274504389+274996139+273809600+272009105
1938+270894841+270682074+270879479+271187042+271607509+272131843+272670884
1928+273281686+274337159+276067222+277907690+279098818+279918719+281049834
1918+281978582+281638027+280416901+279811769+280540649+282072509+283438894
1908+284091689+284206773+284300098+284625946+285087290+285606380+286345785
1898+287510919+288929273+290053158+290785422+291822787+293384131+294298456
1888+293504566+291710857+290270142+289553169+289207440+288979665+288803682
1878+288643628+288501063+288503703+289185540+291446812+295465415+299377866
1868+300158804+297161671+292972896+290085849+288981455+288890664+288991342
1858+288892507+288630605+288451096+288526100+288957977+289901007+291539038
1848+294186987+298037900+301873664+302854540+300063618+296319426+294277548
1838+294000674+294209773+294450324+295828084+299421596+304107152+306943718
1828+306903496+305820028+304697046+302799577+300252111+298461379+298077448
1818+298441392+298844140+299521069+301175579+303704546+305809007+306324092
1808+305614242+305038948+305730335+308125951+311665563+314699976+315725788
1798+315186038+315253192+317764830+322332061+325630981+324385775+320135427
1788+317016141+316793664+318468940+320589276+322677825+324421000+325271644
1778+325742999+327677749+332530996+339502241+344893466+345310389+341868125
1768+337631314+334452599+333669995+335866168+339345890+341375542+341828222
1758+342362018+343121764+343950614+346550492+352448403+359890933+364539032
1748+364544454+362318938+360834564+361381402+363691684+366271788+367534641
1738+368427101+372099072+379290207+384838102+383333068+377712703+372484420
1728+368793667+367019875+367360926+369152721+372321478+378433397+388479738
1718+399403301+404272743+400671257+393705895+388173380+385860015+387220287
1708+391920975+398117307+403262807+407571308+413938803+422704111+429064093
1698+429871184+427092878+421737267+415276891+411457960+412016492+415780494
1688+421864240+431413038+443589000+450415482+446309791+438345514+433790899
1678+434442348+439028679+444385317+448244718+452004928+456973631+460163828
1668+458522891+455527494+456218952+460776509+465150356+466366538+466571049
1658+469923089+479151779+494942055+512249237+518167312+513813912+512884491
1648+518136127+522630711+520030407+514223216+511448595+513448125+520219786
1638+531524798+544375776+551239432+549237209+545907955+547571926+554629781
1628+564354100+574400689+584573542+594487559+602278369+608233299+615884131
1618+627276887+639004953+645426313+647511673+650005486+654451910+659457964
1608+663336961+665728785+667436522+669256525+671237628+673151399+675295160
1598+678364479+682731523+688028519+693300568+697672785+700921844+703368171
1588+705526745+707894897+710680857+713636493+716461435+719605882+724402996
1578+731645658+739256374+743225737+744399288+747835244+755641009+765289315
1568+773021369+778938169+785734671+795342862+809548866+830861663+857499311
1558+874944097+875639878+871334567+868600487+867140884+866094695+865335481
1548+865731744+868808576+874562221+880886908+885857170+886845453+878987241
1538+865275450+855179567+851175050+848998048+844131264+838172719+835652965
1528+837344543+840526695+843461919+847229430+851675570+853440574+851117287
1518+847106249+842812703+838380170+835174771+835292494+840128590+849753578
1508+860491660+861927236+849433151+835351888+828446521+828293573+831778220
1498+835275272+835938025+834337451+833956710+836845015+841423337+843386933
1488+839798595+832631486+826054626+822503923+821852509+822759073+824721110
1478+828311433+833520828+839003659+842352723+840832167+834850588+829254569
1468+827915028+830338604+832574290+831658371+830217550+833117477+841860424
1458+851968639+853868306+845558973+835714343+829536935+827204505+827217404
1448+827172965+825360475+822638656+820825245+820377243+821207545+823922985
1438+828192717+830648116+828258135+823628428+820913555+820705111+820978689
1428+820499077+820177233+820871455+822110070+823532109+825336094+826205236
1418+823542173+817959053+812914868+810018413+808577592+807608445+807142512
1408+807868983+809638452+810950634+810947091+810982741+812401803+814414020
1398+815574742+815690127+814886899+813049673+811253413+811083951+812306476
1388+812801681+811013713+808203797+807171429+809342194+813949929+819306532
1378+824511958+829749703+834968311+839083252+841241613+842041439+842449538
1368+842809513+843577658+845510566+848293762+850153455+850016808+849093943
1358+849125482+850315901+851456141+851420845+850310302+849093659+848413187
1348+848020609+847383725+846779231+847483305+850468708+854882813+858283261
1338+859116895+858459386+858329188+859400750+861078223+862794252+864529276
1328+866441346+868584540+870969418+873567559+876199154+878670925+881184442
1318+884357097+888369198+892392710+895577627+898205465+901080019+904306753
1308+907422921+910252328+913083011+916174656+919252764+921599369+922967402
1298+924034569+925331513+926451766+926705995+925652436+923089307+919524287
1288+916261903+914255711+913305275+912591066+911427013+909484395+906995685
1278+904745115+903411387+903171900+904036789+905852398+907765177+908588037
1268+908120828+907406194+907544188+908827170+910706992+912099193+912342436
1258+912242856+913290604+915832116+919004276+922114774+924959277+927088438
1248+927794709+926886514+924990887+922991712+921311262+919781067+918242084
1238+917067258+916693958+916728049+916138226+914609165+912964862+911903081
1228+911200566+910506770+910116885+910450353+911310139+912149160+912739266
1218+913142971+913196907+912654074+912031578+912597587+915069925+918732469
1208+922089542+924271363+925535138+926546243+927521485+928225984+928701911
1198+929456873+930814912+932623149+934642383+936687131+938350075+939190583
1188+939586563+941129515+945475721+952459121+959639200+964161247+965188016
1178+964377629+964175210+965836736+968722914+971188803+972070561+971405326
1168+970220861+969566683+969499848+969419263+969422098+970571409+973474172
1158+977076969+979527123+980215321+980416465+981679602+984184401+986890556
1148+988787246+989851224+990931857+992617268+994461369+995850664+997136906
1138+998695805+999762689+999847810+1000287520+1002614351+1006019973+1008158206
1128+1008247792+1007698368+1008014967+1009883236+1013447335+1017781776
1120+1020961803+1022085457+1022118981+1021847813+1021402079+1021581677
1111+1022906688+1024410659+1025527580+1027026661+1028822495+1030167422
1103+1032040936+1035625660+1038819365+1037777713+1032171134+1026161133
1094+1024016168+1026752728+1032515516+1038910015+1044960839+1050061583
1085+1052210163+1049871992+1045017681+1041798106+1042552785+1046186909
1077+1049953852+1052444972+1054156041+1055023127+1053527378+1049702246
1068+1046562193+1046956542+1050515255+1054078645+1054792287+1053027283
1060+1052400038+1055767883+1061712112+1066398519+1067915814+1067154828
1051+1065498759+1063554724+1061705308+1060670672+1060978979+1062094058
1043+1062846398+1062787004+1062502937+1062883678+1064242568+1066125083
1034+1067828496+1069242810+1071271824+1073741823+1073656277+1068922879
1025+1062496700+1059527314+1061512598+1064899084+1066117215+1066194328
1017+1067730617+1069977076+1069741913+1065230425+1057400847+1049409815
1008+1045213013+1046605994+1050861621+1053270881+1052784323+1052410740
1000+1053721505+1054209551+1051468242+1048091182+1048813542+1053858010
991+1058323996+1057436922+1051139310+1043548723+1039114915+1039707715
983+1043591673+1046541426+1045070554+1039718771+1034774237+1033787442
974+1035847995+1037164289+1035710639+1032431175+1028706473+1025207933
965+1022419492+1020300041+1017838689+1014266227+1010509206+1008202715
957+1007343212+1006065900+1003191487+999804222+997531327+996483012+995532860
947+993958226+991857487+989505140+987554372+986867734+987405322+988198273
937+988387510+987298513+984265269+979876892+976673831+977077961+980762902
927+984846445+986730165+986032683+983713577+980743270+977903019+975353214
917+972215996+968056263+964613714+964237226+966894477+970098318+971305605
907+969843805+967187191+965657776+966344840+968058105+968657000+967324406
897+964970571+962765007+961142816+960119521+959599581+959177873+958367770
887+957306628+956766984+957358225+959003166+960900282+961907063+961555026
877+960601755+959787187+958614487+956483058+954267572+953489433+954472684
867+956263062+957890497+959023011+959513326+959072766+957674895+955784867
857+953779029+951503582+948910544+946901517+946742756+948442272+950544854
847+951827694+952668912+954110158+955788198+955669837+952735251+948605568
837+945424337+944169279+945007803+947242284+949156197+949297239+947804254
827+946084043+945325395+945585790+946277815+947182182+949318643+953814112
817+959207499+962047325+960965203+958230273+956935454+958687347+963030293
807+967094699+967312499+963371486+959302755+958729659+960910558+962439690
797+961272163+958572316+957286286+959178299+962906545+965209066+964567646
787+962659899+961513352+961073500+960463620+960127388+961255862+963683407
777+965782871+966123001+964210931+960549237+956837221+955005595+955419080
767+956510345+957094427+958109572+960730465+964156003+966269500+966167298
757+964814149+963190683+961678774+961046922+962311831+964816914+966154328
747+965441324+964577426+965155697+966348100+966744505+966527982+966479503
737+966178000+964823788+963595097+965019262+969218473+972530399+971855171
727+969131510+968048537+968527370+968052081+966162833+964878079+966147595
717+969692628+972267735+970634630+966487583+964640576+966280486+968697116
707+970531507+972378088+972367031+967213699+958688268+952378607+950031718
697+948414134+945691820+944222861+945737676+948073437+948648802+948032613
687+948507548+950552509+951810472+949785923+944992849+939561260+933870410
677+928177931+924919729+924847365+924702851+921556277+916322572+913621804
667+917751912+925118250+928513312+925111375+917675792+911724830+909901779
657+911109350+914117859+917710450+920012758+920217800+919125401+917854043
647+917130195+916982491+915906464+912056242+906522026+902461731+900452065
637+896940910+889546930+881394090+876562673+874690931+873272152+872173091
627+872804801+874187292+873645735+871416994+870616743+872537105+874849762
617+874092106+868936080+861302117+854585137+851072990+851179090+855154973
607+863367065+872340073+874683914+868385948+860343531+857085542
##END=
