##TITLE=<SNM>
##JCAMP-DX=4.24
##DATA TYPE=INFRARED SPECTRUM
##DATE=3/5/2025
##SAMPLING PROCEDURE=Instrument type and / or accessory
##ORIGIN=Admin
##XUNITS=1/CM
##YUNITS=ABSORBANCE
##RESOLUTION=4
##FIRSTX=4497.3318
##LASTX=599.83466
##DELTAX=-1.4281778
##MAXY=1.7262521
##MINY=0.17742926
##XFACTOR=1
##YFACTOR=1.6076975e-09
##NPOINTS=2730
##FIRSTY=0.20306161
##XYDATA=(X++(Y..Y))
4497+126305854+126169392+126652112+127196339+127103272+126266898+125171475
4487+124320439+123945810+124143834+124862255+125749366+126297781+126203102
4477+125606916+125103082+125349934+126391543+127471923+127779530+127256983
4467+126507438+126124319+126278299+126737893+127080462+126961054+126316615
4457+125448496+124877057+124864684+125058157+124910443+124415609+124041518
4447+123993284+123951547+123563645+122930607+122485926+122436830+122558833
4437+122653975+122807186+122973094+122839376+122366156+121950773+121835230
4427+121770628+121421905+120791369+120089687+119353720+118463042+117540701
4417+116984166+116935608+117072496+117125225+117197993+117329812+117205371
4407+116696644+116314405+116601492+117303165+117669229+117383338+116662396
4397+115721092+114727819+114063258+114115403+114845855+115704807+116022072
4387+115633272+115080750+114953325+115146780+115074410+114511192+113831774
4377+113397380+113110461+112719964+112282697+112102487+112357199+112909480
4367+113364329+113328959+112815783+112342035+112393393+112864823+113242363
4357+113227227+112966954+112766650+112805810+113100080+113506445+113747392
4347+113623415+113229359+112855703+112725729+112878643+113176036+113391059
4337+113348600+112918044+112005584+110898177+110362338+110860648+111918802
4327+112736925+113062838+113063524+112911537+112884612+113257758+113816554
4317+114027295+113794254+113550109+113619633+113890157+114096171+114190016
4307+114333309+114541797+114535522+114159077+113777441+113905051+114512963
4297+115004979+114919615+114447461+114124292+114216088+114625790+115183521
4287+115660725+115722770+115298646+114769111+114435681+114157168+113822839
4277+113732822+114184417+115034601+115874868+116410706+116596913+116559347
4267+116465540+116472927+116721910+117205816+117691836+117974686+118051579
4257+117881361+117396917+116958714+117164098+117980841+118765653+119205617
4247+119427044+119280452+118538145+117671250+117478416+118091082+119019364
4237+119901441+120687319+121312146+121597601+121446068+120966982+120400056
4227+120006195+119972726+120195544+120238986+119854894+119412113+119408303
4217+119802851+120308853+120912260+121559924+121787515+121247543+120314859
4207+119758852+120030896+121033058+122304029+123265752+123502593+122983577
4197+121995615+120868706+119861011+119229243+119166420+119597087+120185339
4187+120665325+121082126+121582549+122047195+122186669+122024375+121938965
4177+122160828+122601218+123199054+123999596+124844385+125396833+125536845
4167+125433796+125221155+124835895+124235835+123664025+123521566+123887918
4157+124344398+124451673+124212014+123892654+123705863+123816577+124258608
4147+124682916+124596403+124011320+123509693+123539046+123905389+124108196
4137+124071492+124284291+125056211+125892464+126026822+125483263+125106048
4127+125498630+126328831+126741369+126218331+124978818+123707541+123018613
4117+123080898+123661986+124503874+125535103+126631628+127409675+127538499
4107+127128399+126607938+126371439+126626049+127332865+128176960+128749104
4097+128826784+128447391+127771105+126953732+126154859+125600965+125527206
4087+126016942+126950340+128042037+128845775+128914966+128216166+127276253
4077+126719412+126711283+126929596+126991631+126803256+126526800+126316615
4067+126164156+125989572+125801020+125689592+125705692+125839605+126067799
4057+126286502+126338285+126335384+126752287+127833261+129059668+129623340
4047+129366385+128782091+128133435+127205542+126075890+125425158+125721615
4037+126631193+127548417+128254186+128824940+129314147+129636529+129550841
4027+128933651+128193412+128017753+128548975+129227931+129562018+129602031
4017+129567200+129418503+129006169+128384392+127810126+127567575+127842715
4007+128592149+129507482+130256415+130743056+131044203+131187644+131104078
3997+130786034+130428460+130288494+130390282+130548312+130678166+130872298
3987+131202381+131641279+132101170+132418408+132425498+132166347+131961103
3977+132110698+132545852+132870031+132760198+132248273+131631668+131248419
3967+131337314+131954930+132931890+133899573+134461363+134501895+134299820
3957+134174239+134102621+133892732+133696395+134020871+134999723+135956366
3947+136235825+136180167+136503429+137078548+137162012+136559560+135742159
3937+135230771+135539074+137054533+139340261+140972347+140935264+139986962
3927+139693823+140497905+141426205+141690537+141837658+142647366+143699523
3917+143678038+141921122+139241170+136980606+135807048+135748628+137059352
3907+140460645+146101953+152373834+156508850+157007225+154411896+149941624
3897+145211571+142320674+142561371+145049388+146965233+146605212+145929862
3887+147299423+149798692+151061785+151438629+152466400+152745228+150473653
3878+147860055+147919625+150409634+153468710+156372675+158420358+158093694
3868+156215108+155554366+156509592+156630362+154436198+151533299+150410932
3858+152696874+159115876+168261813+173603976+169367042+160552755+153476839
3848+149990099+149979968+152641596+156793545+161535268+166388603+170186500
3838+170939725+168432708+164932741+162084342+159748868+157647947+156421818
3828+156599108+158012278+161001098+166250797+171899585+173607498+171301257
3818+169045809+167340436+163731508+158889480+156150265+157434397+162245208
3808+167731776+170839791+172479468+175334467+178231156+177806875+175063415
3798+173105156+171716251+169613013+167738765+167668787+169331172+171816260
3788+174844360+178397991+181922130+185145947+188794137+193172251+197154279
3778+199970016+202748252+207083248+213649446+221918606+229946690+235911056
3768+240674541+246318269+253365323+261907593+273044970+287001643+301290541
3758+313194212+323897112+337372669+356268338+378708889+397788188+409871522
3748+420278382+433766989+447810120+455464678+456961118+459672342+467850762
3738+481216356+496825330+510371996+518515196+521726667+523276234+525164440
3728+526849256+527079303+525546345+523137279+521215335+520585550+521007384
3718+521834183+523263481+526580725+532415998+538396232+540606320+539233486
3708+538286343+540878855+547751547+556873849+563931061+566537698+566981295
3698+568184623+570947381+575688065+583198217+592640435+600129455+601456686
3688+597572053+593205933+590705997+589801156+590265737+593113135+599998545
3678+610437808+618031230+615075722+606234630+601110818+599941413+596884988
3668+590503014+584907094+582828807+583918576+586560174+589839491+593931037
3658+598205768+600329991+600194632+602500483+611136218+623351204+629931119
3648+626045484+617960417+611955973+608931840+607851896+608119463+609991950
3638+613902831+619180281+624212519+628548980+633988111+642035881+649765255
3628+651317492+647409539+644097077+645237564+650924205+657789669+661662030
3618+662405523+663407425+665863688+667695318+667494596+666925057+668046562
3608+670467530+672783947+675162501+678537396+682175669+683785075+682811127
3598+681973316+683942642+688110042+691824540+694273610+697020759+700880441
3588+704095916+703909579+700015789+694227119+688661785+685561242+685873187
3578+688104110+689900520+690278310+690158929+691712130+696436242+702338435
3568+704048238+699045177+691719174+687592927+688097733+691146669+693622804
3558+693675005+691676687+688945702+686190100+684353724+685157426+688841597
3548+692533109+692884650+690456638+688716359+688658449+687906206+685256118
3538+682795407+682479680+683379998+683718860+683562702+684008412+685222751
3528+686337508+686369837+684839178+682397968+681005003+681977394+683691202
3518+682894989+678903841+674742669+673274443+674247353+675841484+677207977
3508+678501656+679376541+678714761+676328866+673817807+673014402+674392314
3498+677006737+679133481+679512308+678698077+678371376+679260720+680977717
3488+683338846+686097933+687668114+686371172+683025788+680428717+680223027
3478+681565274+682834780+683324238+682983449+681720542+679888467+678673534
3468+678807966+679619899+679969882+679837304+680443991+682000232+682699310
3458+681437737+679541226+678225229+676725489+674413892+672459026+671895641
3448+672228051+673002093+674479440+676158620+676476793+674670744+671953032
3438+670174492+670278524+672130619+674497680+675549707+674091566+670320937
3428+665775969+662732817+663032527+666315255+669804563+670848878+669597687
3418+668423833+669168809+671441255+673350965+673718967+673085289+672609474
3408+672695265+672706906+672014724+671433247+672620819+675570395+677805916
3398+676928065+673302842+669033338+665188189+661695323+659086536+658515440
3388+660091997+662543588+664716231+666523095+668249657+669530656+669432038
3378+667551321+664897303+662959935+662521195+663869819+666812499+669983040
3368+671617137+671638492+671288953+670921544+670235740+669709281+669737087
3358+669680215+669139371+668453418+667274819+664955361+662603797+662183001
3348+663544675+664779480+665446377+666944114+669497734+671298592+670949944
3338+668711531+665534095+662883859+662774414+665823647+669823322+671702557
3328+670408581+667048590+663534294+661832573+663025928+666188980+668752610
3318+668694254+666261942+663365457+661916732+662606319+664357497+665094613
3308+663995131+662525941+662411900+663563731+664913838+666143304+667312783
3298+667858965+667316861+666374426+666243998+667100346+667776437+667545685
3288+667511799+668806813+670355342+670226323+668574949+667109689+666314811
3278+665486936+664578610+664137719+664251093+664627326+664965965+664799426
3268+663743765+662215849+661245386+661483776+662856868+664902196+666988307
3258+668402404+668478110+667025678+664940087+663614079+663511530+664051558
3248+664403396+663976445+662867175+661970490+661853186+661895081+661636523
3238+661843102+662836996+663279963+662063251+659961718+658197637+656774345
3228+655229894+654048996+654066866+654703658+654218723+652263115+650778280
3218+651576347+654144055+656423546+657116617+656459731+655262668+654038244
3208+653069931+652594932+652288548+651139831+648734954+646276615+645230001
3198+645403881+645629146+645603490+645754087+645948135+645399284+643557198
3188+640767042+638424599+638323237+640787137+643565577+643936990+641766201
3178+639131536+637486539+636790946+636628931+636792503+637166215+637353515
3168+636390615+633606540+629971085+627345614+626313756+626030877+625873533
3158+625937894+626204015+626263260+625927736+625504122+625282416+625191435
3148+625237778+625608895+625817550+624696416+621939813+618735016+616328285
3138+614807116+613542430+612090925+610681610+610177841+610984138+612131484
3128+612345404+611654112+610834987+609766240+607672418+604717985+602048655
3118+600362876+599530590+599462261+600194706+601067478+601061101+600198451
3108+599507270+599526586+599829151+599767385+598976474+597467392+595626900
3098+593909571+592442309+591249102+590660877+590902937+591507400+591773262
3088+591577730+591239203+590936304+590684271+590454038+589963653+588854976
3078+587414519+586478832+586334723+586214898+585100401+582869848+580525477
3068+579269206+579425883+580365760+581248653+581460867+580761753+579604100
3058+578821679+578500243+577779217+576147159+574228033+572982958+572711981
3048+572939136+572905510+572124164+570550535+568418526+566243178+564764868
3038+564378625+564727719+565132388+565176173+564802795+564179683+563451354
3028+562498130+561123814+559504139+557981080+556499878+554819067+553112340
3018+551859295+551328647+551450214+551931405+552297293+552106545+551352301
3008+550402340+549416528+548216054+546875958+545831086+545134048+544331458
2998+543369077+542848402+543028992+543313577+543036815+542197670+541192579
2988+540295264+539598448+539174464+539083149+539158967+538912569+537955638
2978+536502020+535124627+534065110+533205797+532593437+532306183+531864551
2968+530606983+528764823+527353136+526792124+526355905+525247191+523634300
2958+522280857+521554789+521235244+521011165+520668300+519999401+518900363
2948+517472512+515970808+514827799+514471661+514755912+514957375+514689734
2938+514354580+514304752+514180330+513520662+512371537+510934046+509308995
2928+507798319+506692385+505698343+504398250+503144797+502580893+502504890
2918+502178189+501525344+501143253+501269900+501341380+500587506+498832323
2908+496660793+494940312+494186735+494210055+494301815+493886209+492993602
2898+492040379+491315164+490792858+490214384+489297160+488076962+486896138
2888+485903727+484968670+484153624+483615487+482966905+481537422+479447975
2878+477710588+477124662+477544679+478219473+478520184+478311714+477823702
2868+477270698+476680842+476056804+475452489+474829414+474044361+473037194
2858+471891739+470733975+469688436+468846844+468195852+467672323+467287081
2848+467048247+466778307+466167801+465075140+463755546+462715308+462230336
2838+462058422+461745772+461080433+460099811+458886769+457556238+456251029
2828+455061270+454122802+453678278+453728255+453785016+453363553+452550397
2818+451720520+450978733+450309500+449902348+449760278+449350345+448285675
2808+446992738+446105396+445636922+445254461+444802671+444107486+442935782
2798+441546822+440615695+440361697+440355246+440230935+439955249+439364615
2788+438087360+436138425+434186006+432963992+432531925+432224170+431343538
2778+429860556+428361336+427372447+426889329+426552507+426063011+425355333
2768+424557155+423862304+423299549+422649151+421747646+420709819+419669693
2758+418576772+417434394+416410841+415562019+414751384+413906493+413087071
2748+412337906+411663446+411048083+410397944+409573665+408541177+407417633
2738+406329903+405272796+404159485+402980997+401826681+400746959+399682178
2728+398559895+397431531+396469188+395782085+395263190+394683270+393885018
2718+392863948+391814183+391091822+390874566+390833969+390406203+389441635
2708+388396540+387782734+387515167+386976919+385845441+384602629+383896248
2698+383678694+383394851+382786755+382072996+381454222+380805899+379871324
2688+378610827+377328715+376412937+375921403+375508430+374781806+373670052
2678+372465463+371543901+370969876+370401301+369522894+368460671+367559500
2668+366936314+366513813+366282431+366227449+366129609+365701547+364910005
2658+364033934+363374675+362959291+362578054+362053301+361387442+360689514
2648+360031515+359361319+358581604+357745944+357045161+356524783+356001068
2638+355335617+354628272+354101072+353887930+353888783+353778338+353288583
2628+352500712+351715436+351081684+350528903+350003001+349580165+349363131
2618+349344186+349330950+349042251+348414505+347725438+347229195+346794644
2608+346108469+345134632+344184152+343553588+343223662+342953499+342604035
2598+342244597+341961348+341724738+341452388+341073375+340568754+340035363
2588+339624984+339363868+339117434+338744983+338227534+337643795+337071327
2578+336560181+336164484+335887760+335637321+335364786+335165474+335109565
2568+335127991+335153795+335186272+335184938+335112791+335065928+335154462
2558+335283259+335222086+334904543+334538840+334352095+334282506+334022317
2548+333405211+332663350+332173595+331989149+331820312+331475408+331068107
2538+330785562+330723758+330912431+331258447+331543662+331632122+331550854
2528+331364481+331168542+331133024+331348909+331685917+331896463+331796696
2518+331346129+330651685+329925692+329391151+329147423+329097447+329059890
2508+328926422+328634719+328116566+327440808+326885246+326683931+326747180
2498+326737133+326425040+325918750+325483977+325215705+325012092+324787050
2488+324545731+324311012+324076368+323778845+323333579+322776534+322302722
2478+322085613+322111269+322184565+322060847+321658181+321168500+320848251
2468+320729575+320673073+320613606+320577755+320539976+320419039+320170862
2458+319826031+319493287+319285225+319149903+318892532+318472922+318118786
2448+318038705+318167391+318255146+318113521+317771064+317419078+317168158
2438+316925579+316602289+316308659+316208075+316288898+316391780+316384328
2428+316242518+316008281+315720953+315413197+315159237+315069998+315200649
2418+315479338+315746757+315875813+315860761+315777751+315649918+315413716
2408+315076560+314826344+314846661+315067181+315264491+315379015+315530983
2398+315744903+315883525+315886157+315873923+315952039+316045096+315978028
2388+315617107+314893672+313769572+312185970+310003614+307064697+303399230
2378+299299212+295113701+291021432+287024240+283082179+279241590+275661802
2368+272505610+269866366+267848195+266617098+266346194+267226121+269540907
2358+273585832+279340524+286372099+294358233+303159284+311817338+318388689
2348+321305973+320680377+318452049+316664203+315240022+312678839+308489231
2338+303659827+299245046+295370683+291722697+288496822+286324162+285368547
2328+285012743+284518335+283749854+283241840+283622077+284984251+286903785
2318+288917266+290735587+292201533+293391440+294629248+296133529+297764604
2308+299263306+300540097+301585970+302337360+302822498+303239939+303729712
2298+304253112+304774084+305338581+305929586+306438452+306796296+307028698
2288+307217055+307430975+307644413+307763978+307781960+307791451+307808208
2278+307707996+307410102+307029754+306758480+306625141+306475156+306216839
2268+305985494+305976708+306180821+306384249+306409905+306256657+306012429
2258+305757356+305563808+305456626+305356858+305165999+304881878+304573622
2248+304329653+304263345+304449348+304821595+305217866+305535317+305803681
2238+306102057+306440751+306781151+307138123+307544219+307957155+308351146
2228+308820677+309429700+310072666+310644800+311235861+312026698+313071903
2218+314284797+315573656+316892064+318199868+319503594+320917988+322562725
2208+324418677+326374025+328370267+330448146+332667799+335005460+337372929
2198+339758304+342242855+344833179+347394770+349788079+351974143+353967529
2188+355768907+357411828+359040958+360775193+362461269+363779899+364660012
2178+365397536+366324659+367450872+368425265+368870271+368751892+368342181
2168+367901735+367477825+366893679+365971746+364862587+363916222+363192379
2158+362442102+361547827+360679356+360065883+359716863+359388346+358936037
2148+358456737+357970653+357743534+359027388+363222891+370142298+378223102
2138+386309985+394142723+401560931+408363701+414643201+420750304+427120970
2128+433990326+441122244+448045173+454402233+459951068+464620013+468502718
2118+471453851+473056139+473210925+472394877+471422598+471279193+472910325
2108+476888015+483436936+492786912+505000451+519011958+532207231+541621791
2098+545363094+542890222+535139679+524333971+512545268+500757901+489213816
2088+477470456+464612709+450471442+435887023+421616773+408136174+396078756
2078+385874434+377478978+370703606+365215944+360551967+356586697+353453454
2068+351017026+348982895+347146222+345294608+343405586+341734785+340341746
2058+339094448+338119684+337548180+337191300+336961290+337033289+337493903
2048+338415057+340084190+342860554+347113559+353253103+361606664+372512770
2038+386408270+403375841+422820843+443736148+464790704+484253095+500384338
2028+511725291+517211841+516845989+511895500+504040406+494839915+485542473
2018+476567580+467507675+457985413+448190987+438579672+429385965+420474692
2008+411586368+402655074+393836636+385369404+377512012+370462400+364227982
1998+358683967+353846184+349928852+346923330+344302012+341525129+338668795
1988+336113358+333966594+332188833+330831979+329838863+328958158+327997260
1978+326964178+326004170+325248813+324651394+324116371+323798234+323894295
1968+324134538+323950018+323207378+322328785+321685319+321302006+321122380
1958+321155191+321268713+321152262+320641819+319929840+319373499+319180193
1948+319355555+319937032+321007041+322185566+322495546+321413897+319658010
1938+318273127+317589881+317399392+317497750+317790046+318163757+318436478
1928+318545477+318814527+319593982+320585911+321253698+321803624+322637690
1918+323147391+322454023+321043114+320201745+320380741+321018163+321395100
1908+321240203+320765908+320353120+320185728+320197778+320317566+320607822
1898+321109960+321616732+321837473+321973463+322663605+323889215+324520817
1888+323725976+322193352+321080041+320719083+320831122+321097540+321257071
1878+321205352+321110330+321252066+322019954+323991207+327249096+330337775
1868+330945761+328687551+325646808+323676111+322980111+322911300+322951674
1858+322894950+322716177+322532436+322517013+322814573+323531743+324816487
1848+326993911+330178948+333183839+333693206+331269718+328347874+326938225
1838+326966625+327393093+327812666+329002462+331780383+335318703+337393876
1828+337254253+336352230+335476677+334020797+332040164+330630813+330294027
1818+330489114+330708632+331260227+332744210+334981955+336795863+337180178
1808+336486884+335975330+336667326+338840784+341882935+344415311+345319634
1798+345033641+345290308+347504177+351316514+354106373+353379675+350402627
1788+348405978+348689190+350343753+352235889+354181264+356088193+357430625
1778+358349258+360203541+364332532+370308948+375174944+376060136+373770116
1768+370772380+368581089+368340030+370597573+373963645+376116230+376889642
1758+377700351+378802020+380099333+382824756+388028835+394256468+398181994
1748+398441701+396868443+395749942+396157168+397965516+400050143+401180991
1738+402128245+405430882+411693217+416722230+416076243+412062368+408333782
1728+405767853+404624808+405210140+407216948+410617684+416490959+425458326
1718+435020368+439717342+437662300+432905229+429327165+428394592+430469172
1708+435258943+441211334+446265410+450742494+457093659+465500237+471960549
1698+474012032+473336608+470707022+467202588+465838801+468074433+472925562
1688+479619815+489166250+501067436+508984370+508202579+504149368+502763411
1678+505653631+511886936+518798668+524205915+529175831+535217980+540232608
1668+541310810+540694297+542635150+547729822+552904389+555626995+557439680
1658+561725423+570799787+585185005+600588363+606524961+603994550+604139734
1648+609296135+613834651+612401683+607936352+605702277+607376674+612889510
1638+621582600+630450829+633613065+629851112+625384594+624496955+626852523
1628+630314321+633783237+637755700+641991911+645118926+647779321+652752129
1618+660788257+667753006+668414712+664156183+659435852+655838361+652737299
1608+649467250+646414310+644645632+644929104+647282003+651215982+656152902
1598+661467908+666161174+668944508+669206328+667681600+665660816+663870041
1588+662371563+661067503+659994862+659320773+659372381+660816656+664466793
1578+670141496+675121422+676036941+674858786+676493773+682162470+688840485
1568+693449962+697300375+703245945+712218725+724793890+742953592+766151279
1558+784005487+790565901+795059113+802834830+812281868+820814795+827752999
1548+834166449+841813888+851425240+861956708+871662600+876935934+871981589
1538+859850874+850522030+847076693+846312439+844405695+841921923+841976868
1528+845048271+848879776+852259046+856403312+861207283+863895335+863812807
1518+863222210+862433486+860457636+858555489+859449653+864676051+873860082
1508+883899570+887412234+880783307+872215455+868264273+868991082+872161697
1498+874785685+874294299+871437780+870133423+872832746+877860498+880290438
1488+876971080+870642531+865851240+864334298+865212890+867196897+870172574
1478+874687659+880569683+886532307+890078116+888386998+882462339+877440963
1468+876447069+878439603+880179511+879704957+879020932+881518792+887895538
1458+894199396+893588111+885967514+878194540+873828642+872914607+874247659
1448+875586643+874923824+872282189+869119212+867055569+867735813+871888902
1438+877590448+880396175+878134109+874119010+871646138+870634448+869751555
1428+868846121+868760849+869646264+871024769+873106875+876191848+878348103
1418+876326873+870776740+865690781+863126335+862398191+861931497+860991732
1408+860040028+859362676+858254370+856577785+855827174+857157779+859806162
1398+862237510+863534748+862892024+859801342+855773045+853344737+853083732
1388+852936917+850672182+847065200+845114560+846419806+850150098+854800803
1378+859772276+865071636+870157522+873802319+875583677+876792233+878683998
1368+881116384+883746304+887003673+890603092+892599704+891838564+889797536
1358+888161659+886907576+885650082+884990303+885743584+887856684+890627857
1348+893219887+894782801+895115508+895370136+896995854+899903536+902551252
1338+903948443+904705950+905970191+908291132+911475167+914871714+917823960
1328+920020329+921465198+922449898+923558353+925308938+927853290+931193854
1318+935217331+939242069+942188234+943566814+943828634+943654755+943508385
1308+943758786+944388682+944689950+944184772+943589874+943805945+944461423
1298+944605569+944275383+944120263+944025426+943394195+942351511+941528678
1288+940896928+939673024+937272670+933835341+930017998+926672021+924441023
1278+923223644+922290997+921322536+920758113+920638733+919918152+917897293
1268+915640788+914725270+915151553+915600229+915316386+914553911+913362855
1258+911269849+908238115+904823921+901199291+896905244+891888540+887075820
1248+883429168+880904244+878802118+876760645+874923750+873470502+872431822
1238+871768855+871365707+871078750+870913990+871035595+871596310+872662648
1228+874224969+876108652+877898389+879366318+880830466+882629026+884561351
1218+886256621+887836664+889669332+891702426+893581957+895235481+896994668
1208+899306562+902378781+905869571+909028544+911440095+913513155+915778261
1198+917655122+917863926+916660264+916340237+918519849+922170579+925304638
1188+927542679+929909518+933098002+936914159+940683231+943745958+946083508
1178+948411641+951211065+954006485+955926501+956718414+957045263+957921482
1168+959935890+962697944+964885119+965304580+964320696+963773031+965084951
1158+967992484+971183416+973782044+975963288+978127848+980137362+981598321
1148+982490705+983262820+984525208+986642312+989278683+991434122+992094049
1138+991139083+989678643+989195339+990176999+991926324+993842262+996206950
1128+999442297+1003139740+1006162576+1007578897+1007706953+1008318905
1120+1010890247+1014529706+1016956976+1017553950+1018268822+1021048819
1111+1024847847+1026635062+1025631677+1024402359+1025210881+1027618131
1103+1030326871+1033281711+1036900483+1040498789+1042203699+1040859228
1094+1038130616+1037455934+1040148509+1043832828+1045273619+1044082563
1085+1042957054+1044325030+1047603457+1050163306+1050491638+1049477353
1077+1049043803+1050222032+1052117727+1052700762+1051220820+1049484249
1068+1049761566+1052033420+1054379052+1055850244+1057689586+1060933979
1060+1064332305+1066093494+1066043517+1065063192+1063837360+1062588245
1051+1060885189+1058372054+1056370325+1056897377+1059347040+1060440665
1043+1058782691+1056918213+1057566350+1060554929+1064192608+1067654258
1034+1070882709+1073236275+1073741823+1072160742+1068974482+1065078838
1025+1061584637+1059335250+1058360487+1057998268+1057733185+1058035639
1017+1059897449+1063442219+1067150860+1068793781+1067609175+1064654557
1008+1061113494+1057600014+1054882821+1053648832+1053290321+1052465561
1000+1051176331+1050641345+1051416500+1052743620+1053202454+1051502957
991+1047360619+1042171074+1038080714+1036095224+1035391030+1034560190
983+1032940329+1030543757+1027582391+1024322352+1021302854+1019327745
974+1018384568+1017063825+1014340774+1011116624+1008316829+1004861408+999658515
964+994137672+990494357+988717300+987038787+984329157+980879297+977375679
954+974000487+970355393+966052448+961597794+958302609+956830972+956194550
944+954722469+952006685+949450099+948763700+950108320+951831470+952173223
934+951106811+950206642+950743629+952348067+953585244+953586505+952852651
924+952619749+953593994+955047390+955386844+954133428+952533959+951466657
914+950278863+948514708+947170830+947063314+947343746+946774577+945382873
904+943916724+942680288+941601419+940567113+939311028+937523442+935276132
894+933231174+932322625+933077834+935006970+936858695+937718750+937599889
884+937029757+936544229+936456362+936808571+937572454+938436588+938473440
874+937105241+935044119+933236142+931745078+930586499+930294352+930758525
864+930871380+930070718+929105000+928825681+929241731+929968318+930775060
854+931486298+931835169+932000374+932864581+934824860+936824587+937238487
844+935559900+932888828+930664430+929310616+928463685+928213728+929118421
834+930912310+932577624+933550386+933496554+931833909+929061401+927455332
824+928349570+930065824+930762974+931136982+932716802+935649398+939063815
814+942220786+944789532+946883502+948660263+949071048+946586016+941780489
804+937195480+934565338+933621272+933389705+933615563+934783930+936842679
794+938389725+938296298+937559627+937744703+938557154+938884671+939119871
784+940363426+942416836+944124712+944460014+943070683+940995472+939819023
774+939430111+938362809+936698237+936412392+938517336+941880738+944984619
764+947270264+948240356+946843314+943248047+940071797+940165967+943326571
754+946398790+947078737+946418958+946809205+948868547+951270236+952995685
744+954590632+956609785+957856899+956530372+952642884+948391991+946178641
734+946184573+945949076+943133783+938752537+936042536+936157023+937137125
724+937559627+938726066+941719612+944965636+946949421+948472146+950192331
714+950921068+949990645+948552895+947435913+946433788+945624970+944679347
704+941832615+936285078+930696684+928107473+927477799+925042521+919347204
694+912675567+908058526+907008353+909315650+912710565+913582558+910627866
684+907049209+906457722+907998614+907913491+904652414+900184042+897459509
674+897867106+899196080+896546289+887757917+878705650+878299239+883227705
664+883909580+878946189+874315728+874876517+878385177+878905333+874254036
654+866902896+859849984+855684734+856917388+863567745+871244325+874906251
644+874070220+871390991+868674985+867074180+867304636+867829315+865576369
634+859900035+854177876+852411868+855694744+861667526+866268328+866960881
624+864084341+858413494+850110354+841801876+837949387+839899730+845210435
614+851093719+855923049+858021245+856732238+853679891+851709157+853648452
604+860857225+869496260+871367931+863792713
##END=
