##TITLE=<SNM>
##JCAMP-DX=4.24
##DATA TYPE=INFRARED SPECTRUM
##DATE=2/5/2025
##SAMPLING PROCEDURE=Instrument type and / or accessory
##ORIGIN=Admin
##XUNITS=1/CM
##YUNITS=ABSORBANCE
##RESOLUTION=4
##FIRSTX=4497.3318
##LASTX=599.83466
##DELTAX=-1.4281778
##MAXY=1.729444
##MINY=0.20554385
##XFACTOR=1
##YFACTOR=1.6106703e-09
##NPOINTS=2730
##FIRSTY=0.22394711
##XYDATA=(X++(Y..Y))
4497+139039698+138433964+138640994+139166583+139721388+140135856+140008296
4487+139093588+138003740+137858889+139013859+140593048+141501003+141414094
4477+140644653+139717965+139218419+139428346+140034830+140577293+141066153
4467+141784701+142650218+143204218+143268701+143242483+143444240+143434526
4457+142518227+140803474+139196336+138364365+138193026+138198633+138081425
4447+137877910+137695683+137321347+136322173+134757212+133522725+133611161
4437+135099408+137098515+138653595+139442195+139619436+139303385+138467834
4427+137259593+136030102+134998760+134233418+133896339+134007718+134115924
4417+133891214+133853930+134669323+135934571+136530915+135965221+134691517
4407+133405638+132520008+132104827+132009721+132028076+131941473+131535997
4397+130814044+130126841+129909467+130284848+131009936+131797685+132567246
4387+133230877+133388819+132665386+131323424+130077521+129347039+129023217
4377+128826159+128591911+128315753+128119833+128146283+128428917+128904881
4367+129491576+130050840+130374810+130346583+130018200+129525510+129135327
4357+129230507+129875902+130557139+130691730+130213444+129494517+128960103
4347+128808387+128903086+129046790+129313363+129778123+130131245+130035140
4337+129614593+129175340+128755653+128278617+127841242+127613858+127649615
4327+127916336+128349826+128787321+129009238+128992326+128962462+128993242
4317+128810200+128291699+127825153+127811239+128180976+128719443+129414251
4307+130091972+130225555+129605832+128739075+128206955+128079256+128158227
4297+128290459+128330416+128281272+128450344+129080354+129945631+130569971
4287+130707467+130457315+129987874+129339462+128626511+128232396+128464240
4277+129142691+129830431+130340588+130789186+131257646+131617475+131740964
4267+131740890+131811970+131914736+131844729+131542047+131169747+131001758
4257+131209538+131637329+131978099+132152833+132247957+132336032+132591032
4247+133123744+133563312+133429387+132922014+132683862+132903835+133222976
4237+133310819+133095332+132595343+131848735+131026450+130510428+130707439
4227+131682578+133039971+134229644+134959996+135322018+135529798+135603292
4217+135454333+135199926+135074022+135076381+135004885+134796124+134536758
4207+134240348+133911734+133713631+133812585+134161645+134603628+135060200
4197+135482782+135730251+135657673+135290665+134819660+134465003+134370471
4187+134529606+134805635+135122564+135519788+135898758+136006289+135886148
4177+135987360+136543238+137145846+137217998+136763517+136413957+136669004
4167+137237621+137391909+136952711+136534301+136747716+137564505+138527765
4157+139225451+139429641+139082653+138416219+137868529+137639230+137511161
4147+137278799+137072731+137147557+137621698+138409882+139164020+139404384
4137+138975622+138255974+137758195+137690187+137999558+138614979+139414487
4127+140070596+140188914+139620167+138541115+137374599+136690828+136852461
4117+137604611+138294756+138567149+138591980+138617690+138596199+138357981
4107+137971646+137712021+137745604+138049035+138499909+138838200+138830938
4097+138685855+138869267+139353473+139562317+139169544+138506163+138151811
4087+138412806+139171477+140087998+140869725+141341682+141465282+141432393
4077+141550119+141911983+142291610+142350922+141913260+141135641+140409757
4067+140042305+140078617+140340648+140525438+140446421+140225485+140053037
4057+139912256+139787666+139880042+140287054+140691744+140701523+140372807
4047+140143988+140327807+140812606+141161684+140957540+140215614+139460689
4037+139149560+139150263+139132010+139193884+139649457+140447688+141246253
4027+141849665+142249497+142396976+142241569+141971517+141959786+142351764
4017+142853224+143043260+142781053+142274939+141908532+141947703+142288095
4007+142601204+142760228+142945508+143373956+144062297+144729111+144923235
3997+144489838+143830852+143475149+143572087+143997999+144636299+145331922
3987+145859629+146112473+146127387+145904101+145433133+144909312+144698192
3977+145025280+145752348+146434398+146660978+146473236+146330124+146532372
3967+146932306+147407604+148186564+149294203+150102195+149976170+149120940
3957+148298942+147912487+147815679+148022581+149036039+150962522+152703650
3947+153016093+152238132+151755757+152077238+152502013+152415049+151978469
3937+151724839+152286758+154135389+156831645+158778851+158676955+157178762
3927+156004743+155856367+156067080+156108768+156605149+158274939+160541193
3917+161665531+160359438+157247742+154198244+152486563+152280365+153700364
3907+157499106+163903772+171012128+175641408+176517842+174567990+170526775
3897+165293204+161235520+160642090+163208520+165597801+165182352+164099868
3887+165570509+168741082+170389463+170484310+171048339+170953363+168268421
3878+165302511+165425667+168592650+172849833+177028563+179673076+178944240
3868+176429749+175554462+176227400+175376555+172118185+169071953+168819405
3858+172608405+181244411+193440608+200784989+194773309+181977798+171694336
3848+166980719+167564380+171661382+177059279+182601721+188112856+192296434
3838+192661241+189337851+185456761+182555981+179825893+177020663+175323155
3828+175178073+175936254+178284421+183928908+191165009+194270100+192187285
3818+189635343+187549845+183066740+176807156+172798080+173594507+178801563
3808+184972814+188412069+190391119+194293099+198687686+199093476+196093132
3798+193281241+190703284+187047728+183407307+181761571+182594912+185388318
3788+189685283+194723850+199149134+202651966+206708687+211931563+216333422
3778+218386003+219858402+223445922+230365066+240342580+251547217+261437119
3768+269286615+275909321+281656148+287604566+296198403+308376541+321835276
3758+333961957+345803654+360876761+381554223+405911498+426477349+439094805
3748+449334063+461843683+473780301+479214722+480057981+482897830+490319813
3738+501754183+515144993+526674617+532509482+532750318+530972803+530352951
3728+532034139+535084145+537093466+536339097+533028974+528452206+524528707
3718+523283673+525860113+532474770+542121487+550860739+553455423+550146780
3708+546280937+545779541+549607305+556476010+563116498+566596256+566870916
3698+565843367+566099227+570120755+578493980+589112366+598374959+603015008
3688+602377392+598710420+594407608+590925111+589131572+589307944+591771959
3678+596973649+602699938+604009399+601151565+598642069+596338254+590437259
3668+581870714+575469508+572935403+572369543+571674346+571425665+573836465
3658+579068389+584084494+586891740+590555420+599350551+612571910+621712235
3648+619162736+609796230+601659474+596886314+594434955+593651869+594211142
3638+594968658+594988271+595301787+598634964+607134565+619451383+628719712
3628+628484427+623188705+620532221+622576031+628328336+636031972+642853753
3618+647049358+650081269+652734977+652850806+649935242+648118390+650758258
3608+655839420+659675325+662214463+665096203+667771078+668662186+668139659
3598+668068978+669749573+673354117+677960193+682291463+686018570+689096961
3588+689792380+686305368+680603910+676365822+675419946+677840368+682498327
3578+687124683+689508099+689259936+687842380+687332065+689272296+693022643
3568+695099648+692408934+686470933+681335817+679416680+680907656+684070273
3558+686268362+686433853+686108347+686991313+688481549+689145735+689444374
3548+690478769+690983532+688608628+683988045+680350862+679415792+680018399
3538+680112691+679119225+678124278+678129829+679312101+681645484+684675100
3528+686876446+686570776+683407419+678557916+674182387+672302033+672675202
3518+672604299+670631725+668534440+668585139+671181266+674939088+677881814
3508+679374641+680930748+683997074+687475131+688638455+686524444+682996503
3498+680302088+678842863+677668289+676457449+675933517+676545820+677822383
3488+678805487+678949811+678469768+677830450+677531144+678053893+679155121
3478+679247784+676847568+673124161+671176899+672316243+674686559+675779571
3468+675287686+674925766+676174352+678704386+680821654+681042877+679121667
3458+675849513+672304031+669599476+668880596+670522631+673372102+675797704
3448+677389559+678332031+677935325+675973335+674199928+674242559+675061875
3438+674802610+674035325+674590713+676622496+678768259+680180856+680824318
3428+680403485+678636443+675997611+672961630+669367596+665652775+663577546
3418+664530675+667737551+670179658+668838779+664033609+659618558+659098844
3408+662385135+666510502+669082427+670470674+672197898+674204887+674775817
3398+672833589+669333032+666414804+665826111+667608029+669786209+670000327
3388+667924210+665302697+663614108+662853336+662531531+662746018+663768275
3378+665107008+665707544+665242303+664331212+663313396+662091084+661291234
3368+661933660+663695299+665130174+665820856+666762218+668432896+669980121
3358+670517154+670215850+669914694+670300298+671405079+672497647+672568551
3348+671364298+669688809+668118344+666327692+664295908+663146425+663989424
3338+666373284+668402773+668681133+668068978+668839963+671864473+675176446
3328+676063038+674232050+671810518+670778195+671396641+672580837+673191882
3318+673051999+672738113+672621988+672643821+672633386+672403504+672096945
3308+672166664+672195603+670614332+666825572+662911066+661841811+664500700
3298+668898729+671816735+671779729+670351737+669668900+669941487+670492434
3288+671635035+673671629+675456730+675757516+675137885+675380127+677345078
3278+679770606+680236587+677507239+672793696+668695935+667310722+668937067
3268+671846710+673727064+673665634+672506233+671816957+672617547+674624314
3258+676682964+677920449+678103037+676973166+674513592+672073187+671741538
3248+673946288+676461594+676776664+675213452+674151598+674492425+674992155
3238+674735185+674179871+673654310+672621322+670897207+669369002+668951203
3228+669392464+669635150+669112254+668275102+668051437+668863721+669977531
3218+670195497+669436279+668841147+668938991+668766173+667337885+665074813
3208+663485623+663767091+665443098+666492443+665584757+663834442+663328495
3198+664478349+665854236+666322659+666297051+666615452+667129170+666993284
3188+665761424+663626172+661042183+658719901+657328768+656405539+654606968
3178+651661282+648827501+647169924+646595811+646811186+647899314+649581020
3168+650970451+651289000+650093185+647294708+643852844+641492224+640804724
3158+640617399+639898815+639118356+639118208+639910583+641006408+641903732
3148+642121920+641525677+640587646+639788314+638872857+637237705+635039468
3138+633151490+631967443+631076928+630110772+629233135+628706168+628420555
3128+628062706+627628772+627490961+627710260+627701896+627162791+626713315
3118+626837951+626939792+626159259+624574954+623036832+622319949+622756843
3108+623956434+624678127+623799232+621678411+619662318+618355928+617539463
3098+617356430+618150471+619179425+619126174+618133744+617653367+618124011
3088+618360702+617469558+616004449+614832354+613975589+613187174+612859448
3078+613340490+613944541+613709478+612745913+611993875+611843260+611557869
3068+610161295+607754380+605584379+604600423+604451474+604342121+604261040
3058+604548837+604760623+604128114+602930560+602167753+601986386+601656402
3048+601037808+600807371+601144312+601163851+599935026+597694861+595674031
3038+594844317+595164161+595912054+596297547+595809325+594625019+593703456
3028+593733209+594003094+593008444+590262701+587054234+585203115+585290819
3018+586269705+586697865+586070760+584826207+583390185+581677727+579733389
3008+578435918+578734927+580177833+581075860+580457599+579089557+578220431
2998+578027777+577691170+576594790+574973367+573466034+572489110+572050180
2988+571755907+570958722+569452980+567932288+567186393+567132660+567154197
2978+566951219+566469658+565433968+563808401+562565291+562938979+564665055
2968+565835041+565058171+563048665+561448447+560904013+560801543+560415902
2958+559729254+558986578+557896822+555883764+553284492+551420531+550934899
2948+550903074+550219349+549074306+548309945+548106707+548056786+547922010
2938+547650385+547015915+545829129+544400286+543350497+542867345+542453802
2928+541599738+540420353+539359017+538540331+537781410+537060124+536494670
2918+535910455+534858223+533223959+531526637+530390253+529997840+530142423
2908+530423485+530319534+529465951+528024489+526590502+525751796+525675711
2898+525879615+525544969+524347636+522801891+521503050+520449264+519525851
2888+519071416+519219884+519188836+518180456+516611101+515495885+515026092
2878+514663655+514224688+513936114+513665637+512938615+511660608+510279799
2868+509313274+509029733+509344026+509655469+509106373+507447648+505314800
2858+503412242+501955126+501005291+500621093+500532278+500304876+499874310
2848+499451996+499084044+498684896+498191013+497436680+496279018+494980510
2838+494044404+493524727+492833009+491420041+489522886+488043086+487621919
2828+487906274+487912306+487149129+486067958+485283355+484744842+483925637
2818+482578541+481026690+479782322+479080834+478746040+478372093+477644923
2808+476618744+475729820+475363570+475296922+474742608+473152196+470849158
2798+468653696+467063506+466053758+465475315+465235256+465120241+464852613
2788+464367537+463751422+463017776+462257152+461781032+461683632+461422221
2778+460320290+458468726+456677223+455507275+454810561+454261982+453826938
2768+453525560+453184438+452619022+451803148+450834772+449881013+449056554
2758+448293710+447458889+446536734+445543564+444414359+443163516+442054628
2748+441446617+441375973+441289267+440472246+438961990+437582513+436767342
2738+436001612+434825595+433637513+432984207+432749182+432488622+432009466
2728+431333513+430570965+429980532+429736440+429591228+429094865+428126489
2718+426942997+425778636+424686105+423742153+423086442+422656320+422108888
2708+421166194+419925379+418745440+417930343+417514579+417254352+416862754
2698+416243308+415426287+414460650+413538606+412974484+412823722+412718698
2688+412229144+411252479+410033831+408905218+407999827+407223698+406478431
2678+405779275+405178518+404699511+404252662+403576301+402489617+401220603
2668+400212557+399654208+399442644+399452451+399559103+399501595+399001568
2658+398056839+396994949+396192323+395770861+395551822+395238972+394661566
2648+393899277+393167000+392577196+392057149+391454875+390665017+389714959
2638+388755427+387936334+387360075+387122643+387167384+387143737+386740074
2628+386094503+385566943+385226376+384834111+384216257+383417962+382550390
2618+381667498+380827941+380141958+379625131+379100569+378425208+377728642
2608+377256740+377048692+376885643+376532493+376008931+375566449+375321505
2598+375040962+374459633+373645313+372863115+372266096+371874645+371676958
2588+371622855+371636659+371671555+371665412+371470612+370926992+370024783
2578+368966075+368045289+367448381+367143524+366949279+366702338+366345414
2568+365858302+365175835+364299716+363467078+363000209+362933968+362958355
2558+362773658+362375065+361983910+361810389+361841659+361779007+361278130
2548+360343170+359383047+358790246+358580939+358540195+358546301+358558921
2538+358430472+358022517+357482080+357146212+357135036+357198539+357002295
2528+356487947+355930450+355636918+355606425+355560019+355306083+354951972
2518+354709952+354604336+354463269+354171661+353806448+353458886+353062588
2508+352559194+352113492+351938342+351986931+352019459+351901225+351688403
2498+351503076+351400865+351282298+350951278+350365545+349740771+349292072
2488+349000908+348734834+348459730+348236769+348110467+348056475+347997080
2478+347866337+347668688+347454385+347261102+347094538+346925383+346701422
2468+346390941+346007927+345604302+345273467+345100871+345041772+344928348
2458+344677706+344398051+344212465+344107812+344011078+343848362+343511236
2448+342981494+342490496+342313200+342410008+342481245+342338438+342061374
2438+341843630+341772726+341722509+341490887+341089704+340769712+340698253
2428+340762311+340737110+340525102+340211475+339977115+339950952+340066559
2418+340086653+339867355+339584518+339559279+339841377+340124881+340108894
2408+339788051+339380392+339111616+339056810+339108249+339150510+339248687
2398+339506879+339784758+339800226+339505806+339125938+338826558+338552824
2388+338177286+337610463+336761395+335516251+333767046+331434143+328482721
2378+324917885+320825934+316548953+312691288+309654011+307206519+304779251
2368+302151669+299707304+298055851+297424194+297495153+298042103+299467745
2358+302269312+306305698+311245533+317427256+325220817+333534906+340084211
2348+343116825+342581569+340195118+338043509+336624806+335057227+332784311
2338+330049967+327147503+323899292+320117859+316368622+313737857+312728442
2328+312750978+312751237+312153478+311287387+310964804+311614003+312964430
2318+314488563+315819525+316826128+317608290+318409028+319408896+320623104
2308+321952992+323261602+324429293+325367287+326011564+326367599+326527688
2298+326590857+326635339+326781217+327129703+327621033+328080686+328410485
2288+328651728+328872987+329084329+329274171+329439218+329515339+329394070
2278+329128588+328983488+329114045+329344852+329425489+329332936+329173329
2268+328983340+328802898+328786763+329068417+329550421+329933434+329982653
2258+329752697+329520779+329510122+329710325+329943167+330066878+330131676
2248+330307677+330627632+330919647+331065784+331146051+331252184+331378042
2238+331561851+331927805+332523973+333247369+333943417+334519454+334980291
2228+335393501+335839573+336403953+337162838+338108122+339121756+340094536
2218+341048331+342080728+343221367+344445159+345800545+347377820+349160996
2208+351040352+352906792+354646708+356216434+357801812+359699856+361984724
2198+364434085+366798924+369051893+371325474+373637727+375808543+377685456
2188+379299588+380789491+382317585+383955142+385532306+386794621+387738314
2178+388557444+389319622+389890035+390116919+390012784+389731833+389325950
2168+388683450+387801928+386841360+385856479+384779453+383574016+382146543
2158+380302417+377978840+375348002+372589862+369654426+366405253+362992364
2148+359705925+356504156+353482644+351713715+352440071+355473092+359461389
2138+363545642+367787875+372332077+377005838+381511629+385686473+389727134
2128+394005188+398625031+403486154+408594700+413982013+419578114+425279720
2118+430936178+436474698+442125309+448098651+454119841+459775449+465135192
2108+470630044+476618818+483423909+491574098+501747559+514417416+529351677
2098+545234515+560015163+572054066+580894086+586912205+590719838+592819935
2088+593188812+591195366+586066837+577243729+564768006+549639908+533121748
2078+515864762+498335115+481342907+465611572+451523567+439314769+428982774
2068+420301880+413077768+406978754+401498778+396559054+392513509+389386973
2058+386815382+384533511+382374981+380265559+378430833+377087844+376118654
2048+375384971+374902744+374650695+374639187+374944598+375551239+376653762
2038+378967903+383263128+389929076+399202068+411326787+426388904+444178852
2028+463961802+484302397+503443438+519832409+532470330+541427511+547714369
2018+552060588+554424835+554848296+553770160+551337859+547197911+541075213
2008+533139992+523714461+512957636+501098990+488692173+476284911+464077483
1998+452205848+441121444+431328665+422773703+414794260+406881502+399265940
1988+392474800+386692595+381829363+377790257+374420998+371475682+368776123
1978+366281985+364057178+362201802+360718745+359558049+358831137+358619500
1968+358486389+357697862+356152487+354560521+353517097+352935102+352504758
1958+352192500+352035668+351866402+351543524+351168208+350868458+350610304
1948+350428086+350685907+351724262+353048414+353349126+352003362+349998667
1938+348621410+348083637+347872036+347660250+347482214+347435438+347528546
1928+347814085+348562681+349902340+351284703+352086588+352652412+353505921
1918+353888823+352688308+350496510+349016376+349008161+349837246+350403365
1908+350164528+349452567+348901250+348745640+348805182+348900362+349080471
1898+349514405+350139586+350590949+350883150+351676561+353080573+353910102
1888+353218679+351735882+350640686+350156646+349973613+349936200+349991709
1878+350111905+350345710+350808249+351949407+354607334+358927094+363019045
1868+363913372+361100426+357215821+354648596+353712896+353549255+353440161
1858+353240661+353123426+353207837+353454075+353924830+354886027+356595339
1848+359361879+363345920+367232746+368045548+364904803+360852485+358701986
1838+358516252+358880800+359155903+360402491+363841284+368484959+371366403
1828+371364812+370323127+369272449+367391354+364727136+362769032+362296057
1818+362658902+363084583+363798505+365490350+367942227+369764112+369893893
1808+368890213+368200863+368921816+371350675+374712940+377271246+377761318
1798+376968129+377124110+379875773+384609706+387832643+386276129+381700360
1788+378409739+378127716+379708543+381619538+383432838+384947942+385690803
1778+386134728+388067261+393003396+400175254+405645128+405734683+401707344
1768+396953095+393454796+392562912+394857920+398569374+400793330+401307752
1758+401841121+402615881+403432495+405865314+411328527+418133210+422322487
1748+422339362+420326896+418824596+419049963+420994745+423445993+424924683
1738+426283622+430515049+438259170+444262560+443108266+437945136+433419103
1728+430507832+429402756+430445995+433222860+437635506+445127393+456741613
1718+469433267+475950931+473594826+467669407+463297727+462419350+465473613
1708+472089640+480466417+487978177+494536918+502923169+513704049+522353192
1698+525792614+525858411+523119440+518656725+516618169+519388484+525844015
1688+534646659+546823113+562029850+572532296+571995929+567014832+565120304
1678+568368812+575690878+584050559+590934954+597361399+604704744+610361868
1668+611341679+610760942+613468383+619623573+625078755+626802130+627091221
1658+630377290+639664566+655675853+672733968+677177736+670975512+668560345
1648+672415197+675256527+670548313+662221494+656875295+656640306+661514159
1638+670531142+679299667+679638939+670546463+661099468+656924291+657326917
1628+659325840+661331719+663803505+665923881+665322088+663040883+663182543
1618+666691018+668988950+665956743+660739029+657787495+657595730+658377003
1608+658647221+658404165+658359240+658650256+658705395+658154226+657438824
1598+657325733+658030848+658991230+659451142+659189065+658612658+658226832
1588+658133503+658088059+657957946+657936408+658500825+660571835+665259474
1578+672258366+677716175+677021496+673034754+672211294+675631769+678970904
1568+678532234+676209508+675360810+677813427+685858038+701934973+721464209
1558+727373419+717152035+706389621+700788006+698930003+699040799+700272437
1548+703146775+709248195+719346127+732568337+747294623+759022823+758914543
1538+748661185+740931718+740643145+744109951+745870776+745970101+748539509
1528+754791174+762149839+768464784+774454297+780245606+783599544+784324716
1518+784519886+783736615+780673471+777458602+777959886+784245893+796046772
1508+809607514+814515486+804762377+792051222+786254584+787618186+792603649
1498+796479521+795795204+792094889+790591627+794378314+801784792+807153416
1488+806164169+800978058+796201901+793957777+794019503+795479098+798059682
1478+802281488+808463729+815881308+822290026+824118943+820272453+814913672
1468+812462165+813492415+815173899+814877776+814483735+818279230+827841239
1458+838827614+841527950+833890999+824879270+819792928+818533758+819385639
1448+820060334+818868071+816345735+814318688+813863069+815380763+819320582
1438+824984219+828869269+827995703+825141273+824546585+826332796+827601514
1428+827014671+826465722+827573315+829738543+832294629+835723985+839048837
1418+838830945+834175058+828353404+824056994+821742114+820775514+820528387
1408+821023159+822389795+823657698+823596490+823051242+824146327+827386952
1398+831293984+834245813+835064684+832896940+828843143+825803239+825255992
1388+825663282+824519349+822112027+821421271+824219007+829515766+835417131
1378+841283414+847492151+853436221+857160442+858052955+858072569+858847995
1368+860085627+861551365+864050536+867346596+869073672+867277099+862945015
1358+858670439+856268151+855943755+856627924+857062006+856721772+855751027
1348+854464769+853197013+852428767+852791648+854664824+857511186+859888755
1338+860633318+859913031+858693901+857468481+856082898+854772660+854606132
1328+856290502+859086906+861619235+863401967+865065836+867306482+869931695
1318+872004926+872947694+873173949+873460302+874201461+875352499+876573330
1308+877469471+878034332+878607260+879287655+879896331+880416785+880913481
1298+881191989+880925175+880053163+878957042+878143648+877552882+876378234
1288+873831178+869767018+864523696+858841852+853892432+850588749+848952116
1278+848425297+848254329+847539149+845873504+844055541+843362269+844191280
1268+845850930+847359225+848244115+848845539+849718069+850657432+850879173
1258+850250587+849625479+849864095+851023348+852368817+853018940+853023603
1248+853659516+856001115+859393761+862028300+863072465+863514095+864623761
1238+866380959+867961490+869241309+870975268+873649774+876899872+879932671
1228+882080876+883217852+883919710+884912806+886275519+887599894+888835454
1218+890288610+891891419+893367444+894969735+897217412+900079835+902975341
1208+905396947+907149705+908238795+909076613+910630796+913722582+918046525
1198+922274325+925423989+927752118+929977443+932122540+933708474+934904067
1188+936587475+939106999+941948847+944873884+948205100+951646446+954148874
1178+955371260+956096135+957057332+958238123+959111837+959242913+959035753
1168+959785201+962411598+966281254+969779886+972037924+973528235+975224891
1158+977765805+980947294+983771601+985335923+985670754+985598740+985987823
1148+987260685+989588591+992754094+995457761+995874820+993596501+990456089
1138+988968517+990069227+992564549+994663684+995949128+997674797+1000890554
1128+1004743186+1007099144+1007083897+1006432145+1007387199+1009728280
1120+1011335381+1011594054+1012349793+1015146493+1019048047+1021599841
1111+1021607390+1020515488+1020469674+1021807149+1023577225+1025457284
1103+1027522521+1029082477+1029714911+1030842339+1033930203+1037549179
1094+1038938611+1038443395+1038971694+1041507057+1044801859+1048307818
1085+1051971423+1053921941+1052426376+1049489127+1048283764+1049211803
1077+1051138342+1054030665+1058043386+1060655277+1057887442+1050391336
1068+1044185115+1043532919+1046513688+1048765584+1049446348+1051133161
1060+1055066762+1059203454+1060798861+1059270287+1055923528+1052338894
1051+1050146578+1051376291+1056934017+1064510278+1069949955+1071466317
1043+1070755282+1070065266+1070289375+1071362552+1072798019+1073741823
1034+1073508833+1071835194+1068986686+1066149871+1064849402+1065317085
1025+1065582123+1063453828+1059668176+1057444479+1058595665+1061596861
1017+1063838099+1063995671+1061553638+1056818558+1052255260+1051023327
1008+1053470467+1056649514+1057592948+1055914646+1053412589+1052041735
1000+1051783728+1050715436+1048184736+1046459585+1047349286+1049335034
991+1049570097+1047291556+1043738525+1040336479+1037981558+1036766944
983+1035949923+1034328463+1030831163+1025584437+1020598677+1018025642
974+1017647662+1017432286+1016091259+1013528067+1009925374+1005820360
965+1001977350+998664784+995917451+993929556+992146380+989275150+985259098
955+981568035+978812337+976076550+973047673+970798072+969907631+969413229
945+968032235+965439587+962165730+959049371+956982136+956409059+956994422
935+958226873+959758704+960841207+960737664+960179242+960774670+962503448
925+963038852+960552337+956471007+954061095+954827936+957272264+958911264
915+958796915+957677999+956466270+955461110+954702929+954007362+952888149
905+951410569+950581707+950758226+950774878+949888360+949078296+949090878
895+948851967+947376459+945770320+945782606+947436557+949154603+949430150
885+947778197+944630828+940895579+937838874+936833492+938012803+939555439
875+939710569+938979328+938891624+939497118+939668678+939122838+938343711
865+937164696+935012495+932241033+930167285+929837782+931244385+933628022
855+936004629+937251587+936645575+934986739+934537558+937063448+941943444
845+946449234+947679391+944620466+939150888+934738798+933811499+935967919
835+938412691+938783566+937764121+937972910+940479038+943721809+945707113
825+945713034+943959241+941348163+939310607+938631249+938980142+940128146
815+942510451+945998425+948929976+949365242+947544837+945812433+945816874
805+947071677+948190001+948344317+947789743+947653561+948713268+950042009
795+949735673+947982989+947685090+950393123+953718197+954423089+952526674
785+950381429+949461976+949904273+951206222+951852200+949980579+945702747
776+941542594+939813890+940260036+940707588+939913214+938760474+938246607
766+938041667+937953149+938961195+941692912+945301304+948351570+950161391
756+951243598+952765659+955321449+957748902+957863251+955485831+953575427
746+954852360+958481475+961104765+960761940+958272835+955324928+953322601
736+953521916+956365170+960096126+961987360+961475122+959887856+957766073
726+954897877+951869001+949520075+947954125+947154792+947487329+948993848
716+950780873+951137168+949007985+946350798+946806047+950483270+952876382
706+950805594+946312903+942766682+940728015+938656783+935345106+931124485
696+927564201+925768442+925128754+924421568+923255875+922220518+921751059
686+921421186+920966973+920757296+920176819+917466639+912427887+906770170
676+901739781+897674290+893749718+887821264+879202319+872758296+874797777
666+881379684+885336304+886601543+888247279+890373428+890718325+889285226
656+887762943+885602304+880813787+874316846+869122076+866608769+866600553
646+868318599+869975733+869806467+868571277+868580676+869561264+868423844
636+863835975+858856876+857770007+860676837+863421136+863579818+862365352
626+860040036+855245302+849972079+849515275+855785221+864794655+870706381
616+870482568+866091571+863133747+864603407+867116789+865909131+860686236
606+854609833+849956388+847002190+844993424+841720456
##END=
