##TITLE=<SNM>
##JCAMP-DX=4.24
##DATA TYPE=INFRARED SPECTRUM
##DATE=3/5/2025
##SAMPLING PROCEDURE=Instrument type and / or accessory
##ORIGIN=Admin
##XUNITS=1/CM
##YUNITS=ABSORBANCE
##RESOLUTION=4
##FIRSTX=4497.3318
##LASTX=599.83466
##DELTAX=-1.4281778
##MAXY=1.7474046
##MINY=0.1835413
##XFACTOR=1
##YFACTOR=1.6273973e-09
##NPOINTS=2730
##FIRSTY=0.20300889
##XYDATA=(X++(Y..Y))
4497+124744515+125331891+126488093+127244588+127245357+126725464+126202293
4487+126167837+126604910+127049199+127358623+127905381+128757387+129279762
4477+128916380+127958488+127165147+126871921+126849735+126835689+126729530
4467+126399467+125779384+125072645+124572612+124430046+124689842+125264555
4457+125834460+126062740+125907428+125577000+125371071+125615374+126408175
4447+127361846+127864442+127546742+126404522+124788283+123362378+122656774
4437+122548591+122446771+121955675+121211366+120713915+120872944+121553918
4427+122132037+122132870+121741249+121548744+121754233+121758472+120878621
4417+119428974+118504925+118628225+119240983+119576008+119368066+118698171
4407+117830755+117249797+117321144+117865787+118359786+118488608+118266592
4397+117848326+117463975+117305239+117338962+117375606+117296623+117088424
4387+116799136+116601695+116647322+116722615+116380998+115562540+114739789
4377+114322814+114264130+114366417+114598551+114929629+115139449+115059147
4367+114861121+114852266+115050577+115123755+114724195+113889714+113135792
4357+113012619+113526533+114188040+114661538+115108134+115757408+116331818
4347+116188456+115137709+113823962+113012033+112802543+112856099+113012811
4337+113280564+113541257+113690534+113881913+114286124+114726292+114872328
4327+114710891+114458512+114103819+113541037+113086411+113131103+113332536
4317+113101812+112782106+113206992+114221617+114778896+114454602+113881300
4307+113722857+114037655+114578855+115119204+115504049+115691216+115668444
4297+115290851+114544015+113923154+114062185+115028198+116399622+117787106
4287+118778840+118814238+117762942+116278034+115110359+114480369+114342344
4277+114680409+115273829+115642952+115527151+115222892+115326799+116168861
4267+117472207+118595033+119091056+118888186+118072192+116963127+116253320
4257+116461281+117343779+118244964+118766405+118885027+118846570+119011963
4247+119404316+119577675+119298586+118942776+118896033+119066278+119225124
4237+119346987+119451471+119487658+119459383+119395755+119209778+118869928
4227+118695837+119081963+119843651+120329391+120333191+120331140+120642184
4217+120954446+120925484+120692562+120537718+120503986+120521520+120514378
4207+120345451+120050321+119990264+120370622+120902391+121326032+121793999
4197+122387840+122822588+122931412+122914949+122914088+122761377+122242436
4187+121376530+120451547+119871239+119889506+120442024+121260069+122117304
4177+122925561+123608137+124025789+124203955+124457058+124956642+125346413
4167+125191614+124650753+124235472+124055868+123833825+123557126+123545305
4157+123864947+124197015+124329582+124365026+124448505+124625792+124917928
4147+125316160+125719282+125937305+125802605+125372362+124927982+124661539
4137+124565635+124679312+125066867+125507511+125655562+125527628+125408704
4127+125357428+125214579+124982097+124853366+124949729+125188840+125329822
4117+125208526+125027275+125127474+125398266+125409794+125225869+125396004
4107+126004404+126450533+126391163+126257360+126562534+127199859+127700835
4097+127853629+127778308+127579476+127220635+126639705+125839231+125075740
4087+124910658+125598206+126529745+126898741+126723450+126565135+126567186
4077+126475951+126272468+126141659+126072308+125942149+125771894+125579875
4067+125235657+124739891+124394986+124450840+124806183+125192274+125382160
4057+125211273+124743242+124379722+124454952+124842928+125243953+125577146
4047+125853680+125962861+125788870+125372701+124879444+124497199+124317550
4037+124244463+124131455+124042701+124259187+124963830+125932947+126609434
4027+126635713+126330712+126409201+127122881+127928501+128168940+127837449
4017+127429585+127213694+126981460+126465806+125735131+125174043+125186734
4007+125822328+126654740+127231733+127590180+128036730+128581282+128976547
3997+129142406+129155134+128984467+128584248+128129320+127914968+128046884
3987+128332117+128481486+128367598+128096256+127929865+128140170+128779088
3977+129570085+130176846+130519708+130677630+130636078+130313853+129762261
3967+129283324+129305043+129983984+130968960+131714422+131941273+131727250
3957+131354766+131083141+130886634+130593189+130361000+130568174+131159890
3947+131621155+131688583+131632646+131845780+132450948+133211417+133707907
3937+133732455+133549317+133615253+133994393+134225502+133938585+133398263
3927+133124220+133240324+133423352+133409169+133352637+133563665+134085600
3917+134626874+134855968+134717221+134439323+134299449+134396681+134690337
3907+135277540+136356846+137735613+138739589+138957841+138559454+137761809
3897+136756899+136053749+136178570+136977835+137520940+137257381+137026108
3887+137782787+139094208+139829900+139985926+140254695+140353429+139684881
3878+138843706+138784968+139592328+140896570+142425833+143538441+143465207
3868+142676975+142285611+142378723+142395232+142304098+142364320+142540233
3858+142995143+144412963+147122206+149498027+149263897+147272646+145378610
3848+144323129+144163779+144625951+145364042+146348057+147700591+148954070
3838+149144368+148282729+147620545+147882776+148647687+149326206+149813841
3828+150095155+150161099+150547428+151817325+153238752+153348052+152593415
3818+152585834+153123133+152910594+152160737+152150015+153424243+155587533
3808+157623119+158665799+159272523+160595464+162289569+162945939+162776216
3798+163132566+164213556+165438395+166756574+168542463+170857192+173470421
3788+176366950+179775141+183597862+187424740+191446155+196481005+202776587
3778+209735754+217074620+224995286+233263200+241047527+247478093+252436212
3768+256993499+262328588+268557639+275298480+282610902+290866492+300296982
3758+310921727+322648888+335588435+350368903+367432070+385000965+399644598
3748+410834130+420963897+431788747+442496064+451948767+461189810+471317964
3738+482005467+492488233+502850573+513335023+523060844+530656914+535600474
3728+538314296+539498113+539588432+538730291+537151611+534872501+531678479
3718+527978143+525010286+523768380+523729520+523151565+521795058+521777111
3708+523997437+527286173+530788290+534470863+537955913+540813051+543559506
3698+546857837+550474337+553700186+556448180+559681684+564255800+568822445
3688+570527081+569596311+568947082+569635866+570540449+570960656+571752285
3678+573372096+573790655+571270180+568526509+568482009+569937846+569365715
3668+565769066+561693609+559514304+559589314+560820708+562244314+563792631
3658+565343951+566466860+567557025+569228478+570864917+571415438+570864733
3648+570319156+570813494+572534721+575024100+576849161+576335412+573918259
3638+572279879+573084913+575053803+576192571+576852897+579088899+583422018
3628+587715288+590782877+593805381+597686208+602108804+605940260+608267021
3618+610233933+613975839+619362059+624352244+627990133+630959675+633211499
3608+633773485+632989620+632538684+633452057+635543094+637916223+639928661
3598+641925058+644372097+646664796+647787375+647879306+648293323+650186948
3588+653152241+655365096+655919829+655775597+655649385+655131936+654135276
3578+653305557+652770674+652099910+651338168+651060398+651661793+652845098
3568+653777809+654026205+654090300+654240319+653656212+651505328+648102796
3558+644541381+641997284+641448850+642800706+644410921+644890718+644926904
3548+645734282+646740538+646464673+644875848+643329216+642930142+643742354
3538+644796297+644769413+643181834+640957625+639418538+638857212+638204541
3528+636371715+634106706+633407227+634814315+636539754+636817451+636051094
3518+635625795+635707324+635465814+634868888+634712789+635062931+635180280
3508+634811825+634116228+632644533+630222472+628466341+629304704+632388226
3498+635386043+636379626+635579281+634786846+635204160+636076365+635718605
3488+633687780+631025601+628552777+626466135+625236023+625405747+626678565
3478+628238675+629819882+631399623+631872462+629544310+624500285+619155343
3468+616080611+615991171+617581608+618844903+618886583+618492710+618555633
3458+618689463+618105136+616932819+615827381+615179838+615199469+615494087
3448+614762890+612391007+609732234+608521130+608916029+609901518+610609054
3438+610582134+609732051+608599692+608066128+608259073+608077556+606667721
3428+605142588+605521738+607932774+610313338+610989779+609909942+607313396
3418+603507431+600237485+599821087+602128655+604091136+603223069+600450610
3408+598395759+598373783+599902579+601543449+601618861+599547016+596637357
3398+594504017+593406856+592970460+593033530+592942405+591687717+589616640
3388+588579912+589676963+591861249+593197466+593084439+592596511+592628742
3378+592779493+592522527+592199378+592100855+591750273+590887810+590090065
3368+589799183+589922868+590471266+591525867+592613908+592886587+592023355
3358+590473170+588902328+587829047+587608597+588277493+589126808+589012499
3348+587946286+587577465+588896102+590451378+590273926+588573283+587015553
3338+586534217+587007788+587959325+588676567+588411543+587061738+585374646
3328+584340811+584459662+585482875+586727418+587652365+588056676+587849118
3318+587109058+586316990+585820748+585114237+583565078+581838833+581433826
3308+582714921+584457647+585526497+585897699+585752990+584860860+583153881
3298+581156312+579731351+579503356+580226201+580813495+580826571+581263589
3288+582791689+584386374+584754865+584259282+584379415+585563672+586461442
3278+585676479+583723741+582252594+581846048+581721374+581306405+580973147
3268+581028562+580844151+579641618+577852853+576856303+577310828+578452709
3258+579073955+578564381+577100414+575494924+574718458+575107716+576148620
3248+577035403+577291637+577090158+577054155+577551203+578371327+579124279
3238+579526943+579386776+578706892+577648701+576282414+574669416+573131904
3228+572038296+571330320+570519023+569129918+567274165+565855247+565847775
3218+567282992+569241554+570732075+571140562+570102478+567764364+565112770
3208+563374841+562921048+562954671+562428688+561221027+560167048+559892282
3198+559926710+559260305+557552666+555334134+553328838+552115061+552060671
3188+552907715+553547787+552849041+550907253+548948032+547879366+547543105
3178+547312729+546731479+545629446+544162109+542620751+541035589+539402337
3168+538252325+538198815+538893422+539130427+538022279+535784958+533519143
3158+532245482+531978993+531957348+531729316+531406130+531031778+530416063
3148+529408049+528030591+526511831+525134923+523977513+523015684+522353857
3138+521917205+521227835+520002850+518614441+517627084+517130988+516694483
3128+515947281+515059399+514401967+513817750+512783073+511425210+510714340
3118+511254717+512225885+512040302+510210736+508014254+506967087+507212077
3108+507633529+507112088+505505500+503685456+502701726+502812555+503353700
3098+503497823+502862329+501510986+499855392+498479839+497783400+497805962
3088+498324985+498913524+499044132+498485662+497532917+496627345+495906990
3078+495278858+494644684+493875067+492841268+491616430+490418145+489382699
3068+488604512+488215839+488158923+488077394+487746224+487417508+487396631
3058+487425456+486870466+485554502+484024498+482906314+482343487+482084140
3048+481792416+481226181+480272374+478932347+477373958+475932223+474902013
3038+474332446+474026988+473676003+473097353+472468049+472127979+472059416
3028+471818345+470989248+469509861+467686192+466106120+465338994+465470737
3018+465973608+466135238+465608047+464515720+463207705+462093916+461450402
3008+461092751+460516665+459606918+458826167+458455844+458079771+457107504
2998+455501208+453786720+452557267+452105415+452322533+452654582+452310190
2988+450968662+449239707+448069148+447827491+448122841+448179098+447416660
2978+446027226+444779643+444035261+443414089+442602389+441945762+441977847
2968+442613084+443017175+442400325+440932877+439563917+438866709+438450091
2958+437660330+436542366+435750444+435579035+435571197+435259146+434731223
2948+434153378+433326039+432095048+430742349+429685733+429136566+429073790
2938+429186853+428925089+427973479+426609499+425305769+424202419+423240187
2928+422513019+422129768+421931512+421675022+421288035+420762565+420112092
2918+419517912+419184655+419075620+419015847+418865827+418478620+417764894
2908+416803432+415659170+414315298+413012850+412196755+411848517+411444242
2898+410799190+410261890+409891384+409249298+408223667+407305057+406885985
2888+406889061+407038861+407002821+406432118+405310565+404087265+403111005
2878+402178917+401008468+399860727+399233218+399151689+399211902+399152751
2868+399014928+398868572+398626549+398094377+397232646+396354690+395826584
2858+395611334+395344259+394743414+393830664+392923444+392335234+391940116
2848+391338794+390497098+389736601+389181721+388746753+388498467+388550036
2838+388700019+388487883+387634246+386366226+385215152+384459819+383899482
2828+383206669+382344646+381587628+381213057+381200787+381270706+381209614
2818+381011725+380696048+380199512+379491720+378661414+377854402+377134780
2808+376409187+375563462+374664776+373902924+373323248+372712550+371794929
2798+370549800+369318589+368514434+368200148+368037054+367671382+367050246
2788+366286929+365394396+364381364+363512492+363133086+363171067+363096790
2778+362489388+361443613+360356048+359495783+358835604+358170480+357377935
2768+356620552+356167381+355904701+355293894+354079677+352710533+351720283
2758+351072520+350472810+349926464+349561634+349195084+348500989+347490815
2748+346517266+345827676+345304624+344667446+343794874+342822900+342009552
2738+341495656+341161336+340763690+340195845+339533468+338906032+338380160
2728+337883332+337269447+336536749+335836538+335201704+334496365+333713087
2718+333078363+332711227+332321895+331506496+330363186+329475488+329113296
2708+328839006+328155936+327160045+326269380+325639234+325096587+324472777
2698+323801684+323219847+322802350+322518098+322230219+321769614+321168402
2688+320676885+320379300+320060363+319566172+318950970+318260098+317515643
2678+316820303+316239456+315747462+315346190+315041134+314765782+314456001
2668+314068574+313562480+313031589+312695035+312577613+312372289+311746575
2658+310698639+309565988+308690596+308093047+307574792+307113509+306899615
2648+306914906+306765492+306127856+305166888+304310797+303790876+303605001
2638+303693617+303856656+303736066+303200396+302550747+302106678+301808068
2628+301398611+300798553+300114567+299415546+298715372+298143113+297897775
2618+297989376+298203307+298309430+298175344+297791139+297318942+296968745
2608+296746646+296475744+296043615+295477821+294863552+294317389+293963236
2598+293852699+293936078+294085108+294123712+293916978+293485307+292990328
2588+292578361+292256861+291942117+291610819+291355702+291254029+291209840
2578+291010926+290580683+290093817+289764332+289584353+289384981+289116679
2568+288938458+289010190+289292684+289605010+289854560+290133886+290527283
2558+290895903+291002136+290830746+290618591+290544552+290536659+290401931
2548+290020804+289396866+288634501+287927990+287490093+287365822+287316615
2538+287036153+286516086+286043614+285844663+285916614+286171493+286517954
2528+286813817+286925617+286858244+286738697+286652828+286529125+286217788
2518+285690102+285096271+284608379+284296969+284171800+284210898+284312425
2508+284342183+284278985+284200313+284106918+283918148+283659406+283455254
2498+283322833+283166185+282944398+282675162+282354595+281994784+281635613
2488+281270748+280847043+280314303+279674451+279076884+278770491+278806622
2478+278905219+278750017+278297726+277734678+277259807+276951711+276757503
2468+276563021+276298070+276029365+275937782+276091281+276250109+276071100
2458+275522849+274921418+274543385+274377947+274267612+274112483+273873903
2448+273540316+273181878+272895721+272659595+272416583+272265685+272315203
2438+272428175+272386074+272204099+272046663+271964127+271892615+271789074
2428+271654108+271498357+271318873+271082637+270778643+270500617+270398706
2418+270529240+270795875+271038759+271161876+271194565+271237600+271341343
2408+271464277+271553607+271597137+271600580+271598584+271664473+271815811
2398+271962790+272020530+271996980+271934753+271864065+271819400+271776456
2388+271540330+270780383+269220767+266741973+263246411+258530462+252466227
2378+245299575+237586009+229777308+221996992+214267751+206819099+200042420
2368+194237916+189570642+186133609+183851019+182611640+182787810+185260945
2358+190583802+198416145+208248254+220322115+234552006+248509254+258186271
2348+260937542+257363730+251092285+245989018+242894911+240311020+237263263
2338+233977622+230873517+227942651+225022755+222381013+220711831+220408094
2328+221040218+221723508+221981737+222248098+223430799+225929480+229252882
2318+232597582+235530517+238115160+240648581+243346800+246193207+249039137
2308+251764129+254276766+256467223+258264522+259683385+260769906+261598601
2298+262348256+263235332+264314656+265423464+266319586+266850953+267099843
2288+267374005+267899566+268537385+268943180+268931936+268585347+268125309
2278+267751378+267516369+267347396+267185126+267023368+266852564+266657276
2268+266444535+266267541+266235475+266406408+266657825+266803028+266816488
2258+266804694+266796435+266704962+266504363+266325538+266274299+266248935
2248+266122741+265992921+266019292+266166674+266309404+266407616+266457537
2238+266464350+266503576+266649090+266881920+267173296+267575355+268143896
2228+268818781+269451710+269978004+270506514+271187020+272047304+273011239
2218+274027145+275131009+276374251+277710963+279038903+280369022+281836231
2208+283518763+285344190+287170277+288914120+290641885+292530565+294680350
2198+296967408+299119903+300958790+302558200+304135250+305817581+307591237
2188+309395751+311165874+312833298+314316494+315501227+316331203+316923331
2178+317469861+318059645+318635658+319035172+319111097+318883468+318465385
2168+317885124+317116752+316159062+315015643+313747733+312475574+311247000
2158+310046188+308874018+307697306+306480122+305275391+304174385+303314412
2148+302857304+302807493+303367080+305563160+310522982+317983354+326493456
2138+335015096+343387852+351569824+359378947+366770389+373957533+381347217
2128+389229407+397526788+406011179+414409939+422197159+428838726+434189454
2118+438262860+441016347+442587262+443347613+443854074+445084736+448428410
2108+455060491+465315883+478658643+493955717+509425993+522692975+531745065
2098+535740165+534702081+529499211+521936909+513473724+504242314+493806027
2088+481841787+468133465+452805700+436227787+418732876+401086517+384509630
2078+369776703+357103499+346672339+338401000+331729180+326143204+321368013
2068+317183264+313596835+310737792+308412167+306335615+304500867+302907885
2058+301528394+300552171+300058731+299819730+299779350+300173480+301201509
2048+303062757+306016055+310269312+316250700+324788711+336654574+352220371
2038+371474783+393791181+417819759+441939902+464505465+483814999+498553200
2028+508159694+512715242+512920785+509897953+504740205+498376335+491365361
2018+483666775+475159639+466161462+456989715+447514524+437438378+426650740
2008+415290935+403669621+392131009+381003887+370603896+361074829+352300178
1998+344157395+336753574+330281657+324751646+319960375+315682085+311818325
1988+308367007+305351957+302793338+300641465+298764579+297077249+295594785
1978+294329420+293248503+292315041+291486035+290734164+290082427+289526777
1968+288976933+288371510+287786981+287348846+287082613+286909227+286774114
1958+286716008+286763291+286837807+286825464+286681305+286447852+286226248
1948+286119722+286181015+286391796+286604043+286539050+286043412+285312289
1938+284685385+284325665+284174034+284108694+284100215+284210275+284453269
1928+284774422+285179136+285688802+286183835+286540680+286842623+287155333
1918+287278524+287059759+286741041+286670830+286924958+287358588+287803225
1908+288156663+288406103+288584104+288693175+288750495+288876359+289194564
1898+289650517+290028221+290158498+290093213+290045856+290136743+290262955
1888+290282055+290225761+290227721+290365251+290620148+290898723+291119979
1878+291306770+291494313+291634388+291783107+292208771+293011388+293745569
1868+293802888+293218818+292578014+292256275+292249023+292436235+292688019
1858+292883344+293017120+293189828+293452874+293784283+294173761+294666231
1848+295387904+296412949+297425816+297801211+297453120+297041062+297058515
1838+297428142+297835109+298163056+298633843+299467390+300439401+301056911
1828+301279449+301493764+301769776+301851525+301749083+301763458+302031760
1818+302441749+302907885+303509060+304316456+305208604+305958077+306487813
1808+306934849+307460044+308136192+308998325+310040548+311107419+311933879
1798+312482130+313126120+314286314+315890888+317252450+317786234+317828134
1788+318109493+318908410+320058422+321347246+322685258+323968441+325074685
1778+326091965+327368262+329213358+331483715+333410119+334285804+334318914
1768+334132013+334188489+334914229+336487305+338428359+339995978+341140752
1758+342308674+343592077+344934997+346644577+348987416+351566198+353595558
1748+354868705+355849726+356951612+358283580+359766447+361149582+362187116
1738+363146234+364711692+367042445+369102277+369757328+369429931+368982877
1728+368786014+369097699+370007812+371273268+372806898+374982614+378022112
1718+381241442+383346470+384044666+384270867+384764912+385759447+387380173
1708+389680637+392356550+394917569+397476171+400633750+404236551+407073545
1698+408764812+410107366+411262359+412195803+413557585+415798165+418673139
1688+421970702+426057366+430940274+434967495+436710844+437437426+438801405
1678+441367918+445027746+449134994+452864484+456150436+459442578+462610156
1668+465179635+467572322+470657089+474477191+478191738+481231529+484092293
1658+487590418+492212001+498093364+504243010+507997040+509320804+511093124
1648+514313882+517901887+520519822+522566469+525196198+528725125+532891707
1638+537485931+542185564+545995594+548315615+550229128+553046637+557178094
1628+562337234+568080371+574246865+580898833+588065686+595849171+604641401
1618+614553611+623985107+630095967+632338634+632113752+630203646+627085257
1608+623861898+621863304+621910405+624230646+628618997+634505560+641146687
1598+647902746+654255848+659663860+663700530+666438744+668433383+670270603
1588+672259162+674349979+676195844+677548945+678707637+680313969+682701529
1578+685694731+688933986+692393654+696660114+702423322+709952624+718708302
1568+727577080+736386671+745927606+756349975+767264741+779571139+795592486
1558+814192580+829735595+841217987+850353107+857312659+861755509+863660853
1548+863216290+861205683+859021616+857898524+857685948+856066358+851194254
1538+845614175+842137366+840263593+838463950+836031561+833509951+831833151
1528+831433711+832005878+832666753+832584126+831585561+830689842+831558751
1518+834343480+837288483+838638362+838450911+838278477+839441638+841846484
1508+843759447+843057991+840687060+839671061+840418154+841702472+842619727
1498+842958442+842979978+843054328+843215921+843035429+842093122+840622379
1488+839470865+839234116+839837782+840718338+841240035+841388736+841709797
1478+842307969+842744694+843016970+843703410+844890304+845784998+845897365
1468+845537627+845253119+845399402+845846602+846359216+847225635+848714984
1458+849934475+849068642+846414301+844321872+843587453+843305068+842304233
1448+840218983+837753044+835798768+834483830+833434063+832568303+832083671
1438+831692728+830542460+828549287+826830587+826095948+826118875+826349105
1428+826366319+826062618+825635269+825421961+825568610+825733280+825133496
1418+823249688+820627430+818330337+817044480+816803336+816826264+816079685
1408+814389626+812472195+810982626+810086247+809658532+809485072+809458995
1398+809670105+810089031+810339111+810165212+809865907+809766138+809567700
1388+808651470+807242185+806973132+809322820+813888952+818915836+823164350
1378+826746567+830246890+833798416+837111434+839891841+842102279+843947044
1368+845787268+847982323+850506643+852735026+853848229+853614484+852569478
1358+851413789+850553450+849977034+849463541+849095379+849416660+850755331
1348+852549407+853914375+854868256+856286552+858620711+861388079+863988947
1338+866346693+868742603+871533778+874707252+877412723+878747951+879368758
1328+881192207+885163757+890305206+895073292+898812708+901785400+904569030
1318+907625010+911118813+915033886+919206364+923076827+925876352+927534620
1308+928914678+930665242+932435438+933653537+934409346+935000046+935205736
1298+934675762+933736311+933176890+933182237+932988560+931791631+929558852
1288+926796465+924187759+922521580+921935568+921254623+919234200+916371971
1278+914403630+914199405+915003340+915509288+915016379+913630241+912031453
1268+911297327+912399249+915282062+918542999+920515075+920725087+920142518
1258+920119957+921082042+922170120+922198541+920734903+917973102+914051217
1248+909107254+903655145+898403892+893840763+890092777+887052327+884499512
1238+882140594+879741095+877382983+875525105+874559138+874379525+874558039
1228+874789660+875062595+875623921+876721961+878085758+878953934+879078975
1218+879314991+880616597+882914936+885461524+887878970+890412300+893211166
1208+895625243+896714785+896792359+897595341+900256788+904027189+907501434
1198+910121201+912062073+913621817+914998505+916196167+917278092+918667673
1188+920666193+922935744+925039015+926988896+928864721+930591844+932288862
1178+934257496+936762917+940057476+943987052+947564289+949771796+950779444
1168+951687689+953454662+956355421+959665143+961956743+962535577+962381675
1158+962949741+964617457+966832290+968864872+970319940+971506980+973034054
1148+974951266+976695091+977699003+977807635+977552500+978073977+980048984
1138+982829244+985306390+987073729+988116977+988412913+988488875+989535053
1128+992564002+997316193+1001747908+1003349992+1002022162+1000797836+1002267774
1118+1005393782+1007346007+1007611837+1008255278+1010634780+1013813455
1110+1015951886+1016025797+1014441660+1012398090+1010641885+1009383864
1101+1009165941+1010651481+1013809500+1018275717+1023564328+1028264511
1093+1030555158+1030471432+1030035805+1030782457+1032653520+1034927320
1084+1037131824+1038864442+1039861761+1040516556+1041179116+1041507795
1075+1041478275+1042044216+1044089764+1046905844+1048377613+1047252983
1067+1044694894+1043285243+1044560185+1047972826+1052228664+1055949401
1058+1057792994+1058327144+1059639225+1062180539+1063836682+1062863024
1050+1060480006+1059187337+1059574251+1059958675+1058729149+1056556216
1041+1055941270+1058458997+1062615580+1064978307+1063808774+1060535970
1033+1057582689+1055987199+1055103200+1053925535+1052466658+1051642799
1024+1051764470+1051882844+1051569181+1052279061+1055882449+1062566501
1015+1069892896+1073741823+1072009425+1067181053+1062840462+1059312816
1007+1055635518+1053265466+1053977544+1055969252+1055668921+1052529362
998+1049278753+1048252500+1049347976+1050874244+1050790005+1047562837
990+1041573209+1035326834+1031055905+1028916009+1028071200+1028141301
981+1028575903+1028256526+1026994696+1025576620+1023718010+1019949660
973+1014058848+1007896566+1003179902+999879336+996969493+993897912+990964263
963+988418846+985724876+982656737+980123334+978465286+976441201+973090531
953+969180733+965722236+962612271+959597239+957150639+955744577+954897863
943+953522126+951470645+950062385+950214968+951101604+951794417+952599890
933+953483010+953479128+952467451+951346044+950571117+950298694+950856431
923+951784161+951833240+950695424+949326867+948338924+947457928+946482145
913+945655135+944913098+943555162+941409406+939801242+940058062+941291544
903+940944845+937881906+934042942+932428699+933857909+936169433+936589897
893+934640015+932227257+931246346+932127635+934198089+936164672+936673770
883+935687438+934819335+935389012+936655090+936702191+934629980+931446616
873+929052830+928429240+928932918+929396746+929344152+928691481+927269376
863+925638358+925211229+926556346+928542487+929627928+929407294+928565781
853+927941825+928144585+929237131+930376998+930616530+930125965+929624485
843+929010711+927805431+926316228+925057181+923793226+922519529+922350831
833+924045431+926635751+928680932+930098862+931822762+933962146+935297813
823+935003928+934120222+934472123+936637071+939549404+941779106+942583187
813+941874113+940149480+938693094+938783193+940155486+941174781+941030036
803+940681359+941365308+943130083+945216872+946823936+947054386+945603933
793+943654857+942342190+941066515+939031003+937016880+936104386+936188845
783+937013144+938789419+940992678+942565534+943424774+943799089+943314750
773+942565754+943206484+945218557+946497088+945843978+944054151+941929052
763+939889583+938749058+938483521+937824770+936866567+937552201+940372531
753+943269188+944177433+943522638+943375476+944828053+947175837+948975040
743+949101692+947188729+944180290+942053359+942012046+943809125+946914695
733+950778125+954025511+955347261+955057258+954158975+952833855+950785377
723+948037494+945728240+945236869+946258288+947343729+947789391+947755549
713+947205796+946111492+945403150+945540570+945049639+942600621+939011371
703+936282387+935037038+933341852+928897317+922577838+918105614+917756644
693+920467169+923408436+923638886+919910384+913909109+908239223+904348983
683+902316107+901452765+901074348+901110608+901582567+901097569+897074597
673+888045910+874620962+859461711+850197082+855483862+870148152+881736319
663+885229830+882554099+877312735+871779610+867455720+865289674+865130791
653+867181320+872157807+878440661+881513195+878425864+871151258+864138014
643+860792691+862001414+865556529+867477403+865648093+861408297+857883728
633+857648883+860486719+863113884+861242602+852510511+839145848+827036863
623+822005364+825324023+831525056+833258479+829467714+825211436+824572903
613+827677228+832446120+836859523+840634685+844699923+848447616+848369017
603+841844214+833085605+828592798
##END=
