##TITLE=<SNM>
##JCAMP-DX=4.24
##DATA TYPE=INFRARED SPECTRUM
##DATE=2/5/2025
##SAMPLING PROCEDURE=Instrument type and / or accessory
##ORIGIN=Admin
##XUNITS=1/CM
##YUNITS=ABSORBANCE
##RESOLUTION=4
##FIRSTX=4497.3318
##LASTX=599.83466
##DELTAX=-1.4281778
##MAXY=1.856351
##MINY=0.39997983
##XFACTOR=1
##YFACTOR=1.7288616e-09
##NPOINTS=2730
##FIRSTY=0.42605615
##XYDATA=(X++(Y..Y))
4497+246437392+246320328+246072392+245718614+245587777+245750798+245699652
4487+244911232+243734610+243297279+244223707+245729440+246299004+245251478
4477+243524805+242772258+243705685+245530977+246883842+246932040+245747229
4467+244148773+243153530+243191954+243866430+244462955+244559730+244285196
4457+244094939+244317983+244898907+245446976+245576882+245325878+245064169
4447+244929263+244829506+244988201+245598206+246045880+245613600+244760657
4437+244534528+245017402+245388573+245160961+244553852+243913283+243439080
4427+243353131+243737644+244197109+244112090+243271422+242046326+241079698
4417+240933657+241696185+242828195+243658952+243913904+243636129+243045568
4407+242554109+242400345+242284591+241790616+241046825+240586378+240679671
4397+241071803+241338132+241330875+241233721+241361524+241975288+243018039
4387+244001870+244411189+244055360+242921557+241184454+239523131+238792545
4377+239253268+240517753+242004110+243046137+243025934+241946172+240601737
4367+239841277+239780341+239818213+239397034+238712991+238506564+239023656
4357+239545144+239365143+238734314+238304689+238246993+238394603+238665465
4347+238922038+238922038+238687065+238494567+238417667+238215068+237684254
4337+236958099+236438576+236353075+236410616+236144666+235550623+235105983
4327+235247422+235896386+236304377+235684874+234376346+233780579+234602130
4317+235878148+236369158+236133099+235975888+236063613+235875234+235129341
4307+234212187+233821606+234393722+235732486+237090746+237750931+237600581
4297+237002194+236304015+235800473+235919933+236863961+238100141+238827659
4287+238838829+238367315+237497807+236403117+235631505+235447333+235408857
4277+235176091+235049666+235214135+235295155+235049339+234702835+234377914
4267+233903332+233394600+233368415+234065318+235078454+235823072+236148304
4257+236354334+236736330+237226444+237488533+237336751+236980698+236709525
4247+236456556+236014156+235569189+235531489+235870597+236144718+236195795
4237+236289811+236476517+236363952+235788544+235226116+235206516+235756378
4227+236704733+237922106+238855257+238642590+237316341+236091969+235882974
4217+236295483+236598529+236879131+237565880+238359075+238367573+237242769
4207+235787044+235241509+235949358+236949514+237143977+236619835+236312497
4197+236599632+236917037+236751345+236353041+236251646+236498754+236686788
4187+236561536+236287036+236042065+235703957+235199035+234847481+234956098
4177+235333061+235613870+235821279+236277348+237165508+238330632+239291916
4167+239567157+239258043+238980199+238980406+238842242+238273384+237592944
4157+237207086+237128790+237187779+237279159+237283347+237084213+236828658
4147+236881734+237255508+237353800+236740002+235883147+235561690+235868132
4137+236403238+237055632+237921175+238642504+238503892+237298345+235700095
4127+234652448+234618765+235351782+236056183+235947652+235114430+234575498
4117+235060354+236181349+237105054+237429992+237145805+236445575+235815504
4107+235644537+235651173+235374415+235151664+235694182+236749517+237219859
4097+236686788+235823175+235263850+235087935+235283484+235751861+236061785
4087+235959029+235745587+235666515+235507252+235082436+234564706+234234252
4077+234282587+234623368+234633642+233671686+232144871+231354452+231958786
4067+233226460+234076609+234289534+234328561+234446712+234453969+234178624
4057+233838809+233845343+234282449+234795042+235074989+235195915+235353075
4047+235547814+235622644+235383224+234689890+233685287+232872096+232710678
4037+233124255+233634831+234066059+234793405+236103174+237584946+238423494
4027+238159578+237109484+236169662+236077024+236778891+237671326+238249854
4017+238254457+237571396+236461503+235572395+235292379+235265988+234840465
4007+233948513+233296808+233592494+234810574+236322064+237445162+237708991
3997+236985249+235712645+234777390+234878888+235958115+237253474+238082541
3987+238581550+239227497+239761172+239436475+238331270+237464313+237538506
3977+238332804+239269248+239926744+240056754+239633489+238931777+238344095
3967+238178695+238642315+239739417+241040602+241916609+242149272+241954792
3957+241482519+240785116+240186143+240291434+241566606+243719113+245486399
3947+245809304+245238998+244957603+244797219+243767276+242158529+241348199
3937+241945035+243554437+245806529+248429860+250433171+250635874+249487643
3927+248826130+249455028+250220435+250039952+249659007+250201973+251230486
3917+251226124+249384300+246327878+243358854+241584051+241557487+243466247
3907+247550716+253803551+260791557+265561137+266210928+263470171+258984278
3897+254364651+251641735+252348757+255627447+257927133+256959850+255508935
3887+257025252+260289203+261517661+260747186+260625950+260374118+257965108
3878+255633877+256794226+260993656+265468896+268905574+270800715+270088109
3868+267802748+266504683+266160851+264470292+261009550+258210855+258381754
3858+262563790+271006832+281431825+285688141+278322258+266815452+258358689
3848+254736736+255735409+260114547+265936256+271870220+277515894+281613774
3838+281789603+278090044+273745934+270820763+268679479+266496684+265003588
3828+264968370+266131443+268938292+274616683+281446116+284188494+282066171
3818+279509344+277159857+272310964+265729243+261284722+261528452+266269107
3808+272336218+276211847+278957776+283363133+287414780+286763334+282906081
3798+280053741+278259805+276039225+274193832+274145876+275802338+278596844
3788+282490866+287083946+291474598+296049009+302471691+310707995+317949005
3778+322397543+326088328+332077609+341931297+355537517+370476519+382683728
3768+390325179+394687457+397278967+399585772+403229842+407927609+411210884
3758+411793774+411712444+414204766+421555445+432954668+442465835+445830785
3748+447536014+452306836+458538623+461642450+463149371+468336908+479499245
3738+496089280+514569405+528528972+534003040+534349802+536109607+542708738
3728+553227301+564183780+572822940+579496608+585101273+588501181+588845944
3718+587712020+587863026+591787043+599670586+606555836+605820044+598469779
3708+590380481+584383270+580303697+577118955+574085632+571560282+570563850
3698+571629683+575039072+581297096+590467706+601111348+609169548+609134727
3688+600809267+590850944+584617226+583320575+585949181+590901003+597382605
3678+604925316+610414003+609612499+605240498+602840745+601684964+597669930
3668+590824052+584506557+580121456+576983049+574151378+572070461+572670037
3658+576619842+581208009+583791796+586274361+591983419+600006247+603276525
3648+596303361+583970728+574176029+569849261+568931848+567722490+565171938
3638+563426096+563940619+565721352+567972512+571709495+576856901+579451031
3628+575969620+570063013+567385140+569741557+575870984+582112114+583881227
3618+580731409+577506226+578030093+582059089+587764562+593788250+598125430
3608+598197830+594589064+591390290+591725675+595256869+599045670+600925314
3598+601768948+602726077+602668433+601127897+600897251+604352804+609393782
3588+611354790+608971586+605032882+601493621+598599134+596984198+597686134
3578+600768654+604687361+606898323+606603551+606803858+611073878+618205081
3568+621475290+616252209+607214125+601808389+601981459+604589311+606081787
3558+605999872+605629735+604945175+603042914+600723628+600398104+603197298
3548+607280250+609052605+606452476+601015090+596033343+593600769+593535126
3538+594092951+593680064+592354659+591418630+591427042+591391876+590161281
3528+587926600+585896157+584876625+584486975+583631275+581867815+580040368
3518+579346085+579897705+580549168+580279495+579105648+577656646+576640597
3508+576707446+578097425+580148140+581499333+581050453+578691175+575291335
3498+571889909+568911024+566515857+565314463+565986853+568105970+569968755
3488+570238325+569451095+568918402+568476727+566588291+562908746+559351694
3478+557807710+558110481+558851582+559228821+559418475+559568998+559303531
3468+558494339+557968990+558639553+560144406+560770495+559062921+555627571
3458+552640550+551542999+551704175+551509798+550264447+548368461+546277236
3448+544328225+542983824+542287956+541703791+541018610+540465197+539962085
3438+539501035+539829697+541335102+542753661+542250687+539658281+536682602
3428+534822299+533941776+533182644+532353766+531535920+530202173+528007864
3418+525749567+524395995+523892814+523607696+523262589+523052697+523170572
3408+523425179+523424903+523157815+523185431+523872473+524584442+524333869
3398+523161229+521906362+520633775+518669733+516373719+515170843+515394559
3388+515699019+515034386+513837647+512920579+512430120+512242190+512501831
3378+513434137+514935060+516272738+516357895+514862522+512676625+511103440
3368+510746025+511197077+511776554+511972551+511516603+510808323+510820494
3358+512058570+513869641+514851248+513925217+511540943+509748558+510176960
3348+512037091+513034523+512189855+510596536+509657541+509892186+511024869
3338+512184063+512359030+511321433+509774760+508434565+507484504+506841591
3328+506410741+506238808+506627493+507714839+508916336+509230967+508232431
3318+506505758+504945984+503916834+503305570+503010591+502913334+502676792
3308+502143721+501721594+501915971+502649694+503355733+503523839+503139257
3298+502871066+503407344+504401604+504679069+503636094+502031604+501215655
3288+501763586+502952499+503662020+503603548+503125811+502272145+501108744
3278+500485103+501091954+502184506+502561676+502232359+501834055+501273506
3268+500186470+499008417+498599322+499215033+500199192+500400361+499229513
3258+497527697+496752602+497208861+497731348+497206965+495761445+494247283
3248+493159730+492369052+491608127+490848202+490130372+489334419+488434831
3238+487803226+487834599+488336125+488649238+488397838+487735515+486900397
3228+485988638+485080741+484226730+483435604+482792863+482385699+482126196
3218+481881312+481674247+481490765+481120318+480426380+479520999+478556595
3208+477574092+476598655+475654731+474738938+473989046+473701376+473911853
3198+474094301+473606497+472437891+471273697+470800683+471023503+471172027
3188+470347114+468405550+466088160+464274400+463313030+462922863+462546727
3178+461917329+461163678+460273433+459008913+457634277+456940753+457148403
3168+457489856+457166744+456145834+454783643+453181188+451249863+449218386
3158+447743182+447302886+447579144+447701672+447123713+446070429+444994288
3148+443875396+442500346+441231241+440760502+441101231+441511636+441419171
3138+440861414+440046327+438962291+437490397+435722490+434081559+433037377
3128+432691615+432698510+432650381+432467036+432253594+431908211+431235959
3118+430425560+429907658+429663325+429211721+428323337+427310908+426606317
3108+426325267+426265037+426222390+426156264+425898210+425050508+423586957
3098+422144196+421267361+420754390+420076759+419169896+418522157+418546669
3088+419036818+419371651+419198511+418673473+418111820+417707449+417492386
3078+417337932+417054779+416495954+415544926+414248379+413000684+412257479
3068+411999873+411758332+411190647+410366492+409533477+408866362+408369559
3058+407892029+407395054+407146480+407268078+407252977+406519151+405273386
3048+404172043+403389398+402710905+402193831+402032172+402052651+401884131
3038+401389466+400641883+399763153+398943239+398334906+397818451+397092416
3028+396053716+394922137+393963456+393208772+392531072+391915878+391496440
3018+391283032+391025598+390552102+390059919+389761630+389473581+388952404
3008+388349725+387888605+387438587+386817153+386120974+385434311+384656148
2998+383843543+383273478+383009597+382817806+382584884+382431534+382332001
2988+381937386+380925681+379437548+378056534+377284645+377043553+376831765
2978+376369129+375847124+375530632+375386487+375199281+374841038+374298693
2968+373577174+372714544+371828194+370991008+370126275+369212620+368436422
2958+367945377+367647744+367412168+367230305+367073266+366823141+366378915
2948+365656879+364609043+363458915+362713539+362683786+363162971+363727106
2938+364107138+364101311+363458674+362172193+360694921+359603541+359146248
2928+359128079+359032718+358349468+357029752+355534552+354337054+353562890
2918+353123318+352927562+352868160+352757525+352419658+351872865+351328761
2908+350965588+350827201+350911771+351118904+351171377+350887500+350458064
2898+350147984+349833871+349167653+348143777+347205127+346740594+346682916
2888+346689604+346550527+346252549+345772157+345071496+344287713+343696412
2878+343417602+343297108+343137517+342904665+342629510+342284265+341884168
2868+341580639+341514997+341568917+341310449+340375660+339017124+338020209
2858+337900232+338378831+338759242+338601685+337924538+336978268+336009038
2848+335178471+334581722+334239166+334089056+334070336+334151044+334212033
2838+334038445+333522025+332757722+331939704+331292964+330997882+330991573
2828+330953201+330641984+330138148+329648861+329241732+328890488+328628089
2818+328480979+328320182+327941495+327307856+326623951+326148179+325958835
2808+325879471+325615521+325034424+324328350+323799761+323490992+323210389
2798+322920375+322796088+322819946+322650013+322053539+321205872+320404575
2788+319720050+319086100+318539997+318167791+317916356+317641718+317283786
2778+316854902+316350618+315819580+315390627+315058207+314585365+313831405
2768+313057861+312658454+312616255+312485832+311983375+311329809+310868482
2758+310609428+310357579+310064979+309791686+309442614+308820180+307950620
2748+307139257+306603634+306221051+305757690+305160596+304474829+303667741
2738+302726712+301813471+301155250+300806971+300628936+300524128+300570120
2728+300794043+300951151+300735157+300142821+299463777+298942669+298558672
2718+298132684+297573721+296932739+296263313+295593716+295020997+294655066
2708+294488063+294421869+294346641+294168192+293879144+293560894+293225750
2698+292787212+292259450+291822015+291612676+291538414+291342313+290889502
2688+290344605+289941095+289652874+289305767+288902516+288572475+288312265
2678+288033697+287761594+287572836+287420796+287192581+286895016+286635652
2668+286439396+286230073+285993411+285819771+285747871+285640598+285263118
2658+284531670+283698793+283166601+283067430+283167618+283185442+283011182
2648+282635184+282091011+281501312+281031711+280777725+280743525+280858882
2638+280942987+280755333+280237568+279664125+279403261+279544579+279859261
2628+280057878+279997373+279721563+279375559+279055878+278774276+278555593
2618+278407294+278205384+277843711+277459249+277240808+277103609+276867964
2608+276647765+276679948+276845969+276772517+276401328+276061255+275954499
2598+275940536+275857931+275729852+275629147+275608375+275717889+275880737
2588+275877772+275633112+275348993+275229550+275239514+275210674+275055462
2578+274835176+274685877+274689480+274815732+274984838+275119829+275143411
2568+275025468+274831177+274658986+274554281+274512617+274517564+274543766
2558+274531665+274396725+274151702+273996973+274121536+274411722+274538543
2548+274330875+273915006+273528872+273303794+273176663+272983458+272665673
2538+272320790+272030621+271748984+271392052+270980354+270673050+270622611
2528+270763515+270840587+270703027+270461331+270307102+270288726+270310860
2518+270283951+270203742+270085420+269922054+269774082+269766583+269893611
2508+269964804+269846086+269605959+269363091+269141598+268933913+268789820
2498+268773082+268866202+268969113+269003745+268971130+268876079+268675376
2488+268366607+268051563+267832122+267709076+267652242+267677530+267748482
2478+267702129+267425078+267030153+266721901+266562413+266470138+266353677
2468+266169901+265941996+265772908+265765271+265889730+265971680+265840602
2458+265501528+265133080+264886437+264740965+264604284+264455036+264302065
2448+264113084+263891195+263738516+263748273+263876456+263961647+263847479
2438+263507853+263103585+262877421+262922154+263078641+263114031+262963198
2428+262738378+262544018+262372551+262189051+262042734+262029133+262139802
2418+262228561+262185586+262081054+262058679+262155954+262307287+262439693
2408+262495424+262461172+262420300+262485322+262670632+262911363+263164522
2398+263427024+263740913+264288964+265483686+267923725+272241426+278982116
2388+288634842+301691528+318523207+339184299+363421922+390799813+420658442
2378+452077845+484053383+515429174+544597278+570057394+591450417+609272356
2368+624093002+636619460+647069622+654003414+655364467+650796227+641564870
2358+628600494+611663077+590000139+563962443+537200056+515898085+504766673
2348+505310811+516325383+533485379+550050522+561389654+567216758+569217449
2338+569371903+569208692+569443682+570317965+571641094+572547509+571946381
2328+569341736+564937017+559072437+551884865+543508311+534283022+524553241
2318+514518449+504417360+494634762+485430882+476480195+466859911+455766457
2308+443209108+429923380+416838613+404707114+393891470+384232814+375186525
2298+366237838+357267845+348531463+340310259+332671738+325559704+318949230
2288+312831180+307194143+302100830+297684079+294028081+291073295+288602314
2278+286342931+284160602+282111507+280265684+278581985+277002473+275551386
2268+274284608+273213380+272306689+271523148+270816867+270145201+269506477
2258+268952065+268509338+268107207+267629091+267029894+266363365+265711005
2248+265110860+264551035+264024859+263562360+263180243+262838618+262486960
2238+262112134+261729138+261374239+261097671+260918308+260818052+260797211
2228+260865870+260965472+260979986+260844581+260595507+260326489+260119925
2218+259987071+259863267+259696764+259516556+259368636+259245728+259138886
2208+259095033+259148609+259231989+259232265+259140938+259078553+259131129
2198+259221233+259213683+259116666+259091947+259263190+259561462+259787195
2188+259819620+259727585+259649445+259620864+259576666+259462877+259290065
2178+259119718+259024839+259019357+259026890+258967315+258861646+258792900
2168+258765061+258684231+258525089+258421953+258491819+258630345+258615106
2158+258388097+258118217+257977692+257955214+257937027+257900965+257918014
2148+257968797+257914670+257713018+257524381+257529915+257757992+258136835
2138+258599144+259107444+259676698+260373636+261214580+262106825+262969041
2128+263855322+264887868+266112499+267468259+268875269+270331563+271902697
2118+273579173+275183128+276494552+277448268+278118728+278530443+278578710
2108+278152515+277269026+276068667+274739091+273459557+272331443+271313411
2098+270288605+269224927+268201500+267286139+266487703+265816779+265279673
2088+264822863+264393324+264025772+263757099+263516576+263255935+263108705
2078+263221235+263495597+263698490+263755134+263766994+263841687+264045372
2068+264393634+264763616+264941634+264861821+264690785+264607766+264622539
2058+264656722+264683338+264719814+264771683+264840239+264938445+265078729
2048+265270899+265530005+265879405+266334146+266831242+267199052+267304790
2038+267224961+267163507+267227115+267366158+267506494+267666705+267925276
2028+268295896+268699182+269059303+269350593+269597460+269931035+270493222
2018+271140410+271485069+271398223+271175593+271098935+271169611+271296897
2008+271447610+271594065+271688065+271688961+271610597+271554762+271598013
1998+271720041+272050307+272934657+274355491+275564470+275816525+275233549
1988+274451887+273844209+273490241+273429563+273586861+273743883+273799338
1978+273876703+274093334+274368523+274548179+274698392+275166338+276153789
1968+277233257+277635112+277178647+276488691+276149359+276174285+276380074
1958+276750676+277279025+277818888+278212710+278423463+278577417+278901925
1948+279585726+280789516+282587590+284459477+285204250+284228072+282482506
1938+281296541+281030419+281275096+281632632+281963173+282232053+282408158
1928+282632133+283392058+284998151+286856661+288119681+288986035+290031733
1918+290610003+289635429+287659579+286355808+286497195+287500729+288296544
1908+288276169+287679058+287154777+287002099+287038903+287120353+287470356
1898+288381976+289647978+290585387+291016306+291696970+292990036+293871593
1888+293365517+292121097+291283703+291023304+290999999+291156004+291527864
1878+291980537+292378290+292805795+293845633+296494683+300985317+305391484
1868+306597359+303987197+300214463+297740896+296982488+297186553+297632192
1858+297991056+298213255+298390946+298674995+299309703+300575705+302644210
1848+305739900+309987545+314115454+315203800+312320863+308411119+306281764
1838+306065460+306432459+306796218+308179577+311688362+316274184+319048246
1828+318998393+317964106+316945195+315177978+312758504+311091302+310832592
1818+311314881+311794376+312451838+313972275+316325657+318318556+318799327
1808+318075705+317530774+318386129+321050453+324749857+327639069+328318320
1798+327566290+327732569+330538831+335383191+338807750+337545437+333240424
1788+330094191+329829207+331343231+333180538+335038084+336758586+337743917
1778+338340942+340321257+345202437+352281305+357865249+358416834+354934700
1768+350519190+347130279+346211315+348388490+351874451+353757819+353903860
1758+354177153+354880193+355814292+358529399+364416700+371627577+375865948
1748+375534735+373230998+371806337+372268111+374239014+376458560+377662919
1738+378805599+382816599+390282084+395884472+394138630+388229231+382850972
1728+379069653+377158393+377367526+379117023+382270875+388282048+398131496
1718+408786791+413233502+408994269+401321720+395223770+392625847+393958182
1708+398668601+404651918+409344547+413215884+419319420+427908519+434043911
1698+434519407+431181452+425004034+417827495+413724857+414319951+418118336
1688+424002499+433095538+444654662+450943473+446673039+438842417+434455729
1678+435161354+439667088+444842592+448426191+451773213+456095223+458297186
1668+455448793+451349431+451121922+454766647+458092604+458270742+457704918
1658+460593372+469519580+484991827+501825229+507139121+502260113+500905610
1648+505825197+510182580+507572246+501748416+499124188+501661260+509278302
1638+521454138+534994370+542217452+540211590+536774757+538457094+545666834
1628+555562618+565835227+576639114+587957215+597762119+605713788+615073949
1618+628087419+641417932+649216388+652581545+656631675+662952756+669940538
1608+675767229+679899206+682761492+684966385+686863820+688582667+690435075
1598+692983283+696434630+700128828+703157014+705559387+708192338+711451514
1588+714871833+717832101+720131252+722044338+724188898+727497376+733151272
1578+741499556+749720070+753090329+752967525+755381689+762544817+771510707
1568+778541378+784329386+791626558+801515791+815021582+834988288+860959238
1558+878804829+879428366+874752630+872436171+872052795+871706447+870826682
1548+870769176+873630980+879631707+886793180+893078819+894829177+886135236
1538+871348446+861603254+859457660+859907575+856943998+851194671+847826757
1528+848630742+851233423+853443143+855778977+858557279+860188074+859928261
1518+858066061+853918432+848086776+843751114+843669060+848810570+858991266
1508+870615619+872906910+860570346+846178930+838864658+838322209+841527051
1498+844658045+844073191+839882259+836526204+837569041+842417986+846500318
1488+845298338+839668162+833903804+830745573+830207537+831249409+833684397
1478+837954348+843555151+848745686+851160747+848514695+841477337+834533478
1468+831201418+831414757+832480487+832305278+832825525+837702189+847620795
1458+857407358+857651726+847974108+837647578+831213485+828391880+827719939
1448+827119914+825017691+821948823+819535280+818730328+820126616+824319202
1438+830224017+833457612+830715717+825646607+823209688+823657879+824217084
1428+823496255+822645657+822418596+822423837+823195070+825865600+829108021
1418+829221034+825485258+820979420+817784025+815856665+814382461+812890743
1408+811910308+812268792+813614951+814803899+815880040+817902692+820957631
1398+823828743+825267092+824439180+821162213+817102154+814950974+815634293
1388+817130355+816460206+813714036+812193978+814202702+819169556+825217929
1378+831068547+836213022+839928871+841347085+841022595+840869452+841781486
1368+843036835+844329763+846541482+849774181+852360520+852976679+852392927
1358+851908054+851630382+851000432+850076055+849566565+849716882+849864095
1348+849400804+848730723+848956888+850954027+854719660+858994713+861660002
1338+861640351+860296881+859780978+860656330+861934847+862793374+863483657
1328+864618133+866243963+867936884+869638631+872036385+875628188+879729964
1318+883210547+885923413+888513958+891241787+893801648+895989854+898204539
1308+901058206+904350825+907005013+908495696+909609072+911263587+913554601
1298+916213202+918935377+921073731+921744708+920435714+917666169+915117961
1288+914328455+915012257+915401976+914320181+912209959+910238677+909010978
1278+908056883+906631014+905162465+905242794+907798725+911846511+915362949
1268+917083727+917192741+916654705+916363174+916632019+917192948+917823794
1258+918963165+921244389+924464607+927689514+930236412+932065790+933561852
1248+935275735+937089530+937937300+937294181+936014354+934955520+933984186
1238+932874603+931799840+930476091+928237618+925426977+923536920+923551745
1228+924866531+926012590+926005350+925059529+924296570+924573552+925511099
1218+926215241+926711630+927489070+928118606+927908163+927466384+928058065
1208+929715890+931303314+932403726+933704377+935353513+936552873+937087116
1198+938173187+941121939+945741549+950456312+953607509+954695441+954601528
1188+954686822+955689667+957500359+959846053+962590293+965287231+967102267
1178+967745732+968048364+969043348+970763851+972377132+973455135+974402818
1168+975464341+976317490+976927788+977581182+978003033+977813483+977877333
1158+979804072+983803798+988149321+991360507+993796391+995843176+995941778
1148+992906973+988890353+987199294+988646055+991748640+995172200+998602861
1138+1002139779+1005939543+1009815155+1012703712+1013357312+1011846632
1130+1009620916+1008408524+1009384340+1012501474+1016270692+1018804765
1121+1019600545+1020121412+1022077939+1025394898+1028466248+1030051810
1113+1030031193+1028617943+1025925625+1022265696+1018764497+1017349799
1104+1018971423+1022311550+1025375453+1027384452+1028271940+1028344478
1095+1029238654+1032806117+1038275220+1042303976+1042677698+1040633257
1087+1039037421+1039628964+1042288530+1045497854+1047591114+1048103568
1078+1047337369+1046183035+1046997640+1052093848+1060141981+1065811806
1070+1064873845+1059204641+1055016882+1056726972+1063394470+1069607846
1061+1070586696+1067647183+1065506277+1066055828+1067735511+1068011114
1053+1065727752+1062442512+1061053671+1062742938+1066169738+1069601572
1044+1072318575+1073741823+1072802621+1069726376+1067286009+1068047865
1035+1070879537+1072037111+1069610466+1065397677+1062728113+1063644353
1027+1067106664+1069212266+1067056329+1062223312+1058389278+1057455386
1018+1059138930+1062097060+1064977756+1067464114+1069075740+1068023456
1010+1063739232+1058649436+1055385915+1054050306+1053581843+1053634867
1001+1054035067+1054276401+1054309360+1054750725+1055729712+1056441785
993+1056200589+1055190159+1053758223+1051832174+1049933498+1049682442
984+1052101778+1055991249+1058963652+1059473418+1056846605+1051223530
975+1044182172+1038306111+1035749698+1036502659+1038466839+1039985793
967+1040931477+1041075380+1039580973+1036598434+1033506122+1031002527
958+1028799564+1027254615+1026971220+1026755399+1024414049+1019629988
950+1014360640+1010624795+1008872505+1008072174+1006926253+1005186789
941+1003521242+1002138951+1000315710+997178096+992434993+986921760+982750480
931+981817898+983539297+985013914+984318115+982781233+983159299+986423510
921+990944517+994301399+995475177+995151928+993845761+990734763+985547813
911+980028443+976216888+974710759+975207976+977355087+980238886+982498804
901+983433661+983054699+981713642+980443261+980164693+980378860+979624244
891+976993224+973205320+970804050+972496006+977805071+982255815+982042959
881+978291186+974308697+971484887+969590417+968066292+966284077+964080218
871+961999784+960440837+959198314+958383502+958619596+959940449+961663365
861+963513705+965972826+969106095+971649200+971849301+969414382+966416535
851+965133467+965101473+963932384+960983562+958164785+957163388+957424649
841+957377693+956830003+956967012+957989094+958479691+957516080+955693666
831+954222220+954185883+956097176+959076751+961548145+963079718+963892736
821+963483848+961692049+959689118+958669035+958912368+960183369+961920902
811+963642508+965807616+968862762+971409591+971441791+969332604+967474128
801+967241620+967814615+967641476+966574229+965974550+966666901+967993961
791+968984256+969552769+970223056+971074550+971262584+969684124+966400676
781+963791790+965372043+971910323+979204392+981655929+978291255+973187254
771+970724065+972120491+975364222+977295305+976056987+972568751+968980188
761+965846574+962783084+960832074+961926694+965885049+969310608+969310608
751+967700016+968132831+970311109+970909547+969398178+968599777+969321641
741+969270823+967855090+967520257+969503124+972034438+972974536+971327468
731+967335327+963328429+962216226+964237085+967966862+973693710+981359295
721+986459779+983956114+976168484+970473492+970208990+972342518+972689211
711+971169636+970961193+973793898+978123700+980803952+979784834+975248864
701+968878414+962728060+957961375+954632488+952863650+953163317+954705026
691+955206379+953206482+948978178+943678904+938909737+936177357+935924578
681+937561854+940068759+941805052+940652028+936219556+931085217+928175422
671+927303725+925448766+921890473+922680944+930376937+937351618+936343326
661+928287057+920032342+915739499+915058386+916945477+920392343+923088316
651+923354817+922442920+921578601+918835258+912243056+904661525+901494538
641+905246931+914286187+924176662+929134758+926452576+918185864+908928649
631+903958623+904819702+907451135+906207301+899892496+892425287+888862306
621+891847397+898528754+901895979+895855949+882461448+872661301+874637065
611+887654534+904606294+918736173+928439442+934560008+934853056+925731609
601+907228901+883879110
##END=
