##TITLE=<SNM>
##JCAMP-DX=4.24
##DATA TYPE=INFRARED SPECTRUM
##DATE=2/5/2025
##SAMPLING PROCEDURE=Instrument type and / or accessory
##ORIGIN=Admin
##XUNITS=1/CM
##YUNITS=ABSORBANCE
##RESOLUTION=4
##FIRSTX=4497.3318
##LASTX=599.83466
##DELTAX=-1.4281778
##MAXY=1.777022
##MINY=0.28903064
##XFACTOR=1
##YFACTOR=1.6549807e-09
##NPOINTS=2730
##FIRSTY=0.29942065
##XYDATA=(X++(Y..Y))
4497+180920933+180767202+181503301+182553237+183359422+183657539+183176752
4487+182061628+181225731+181479747+182627537+183780459+184139640+183453368
4477+182227065+181379174+181435772+182186529+182974508+183157916+182716207
4467+182435935+182954232+183864195+184388127+184418668+184223772+183833528
4457+183328377+183070183+183138594+183031791+182442274+181989094+182585201
4447+184214245+185894018+186695304+186347738+185188478+183976887+183369885
4437+183326360+183464875+183817717+184543137+185214679+185157504+184316079
4427+183313178+182832374+183088641+183677797+183933290+183568401+182876025
4417+182327367+182212929+182619307+183485224+184522465+185074309+184369417
4407+182361078+180213809+179401375+180189156+181356214+181535787+180561861
4397+179420337+179137311+179863056+180908094+181542720+181692309+181783086
4387+182018860+182082841+181608970+180717933+179882612+179286126+178564956
4377+177427916+176313117+175971007+176489303+177227941+177656055+177792085
4367+177887670+178053196+178213644+178243051+178040897+177557392+177013830
4357+177029119+177960331+179102610+179284956+178360083+177319744+176950894
4347+177174999+177570627+177831954+177791347+177463572+177047631+176722250
4337+176479039+176127115+175507814+174881958+174883831+175762586+176946590
4327+177725205+177978753+177881547+177438955+176722917+176042948+175548998
4317+175132733+174828746+174771661+174782916+174642906+174672673+175325361
4307+176339408+176934651+176732335+176060073+175525786+175524669+175962003
4297+176404271+176667021+177049017+177766658+178492961+178784307+178734894
4287+178819440+179149070+179309266+179066289+178711700+178453038+178113162
4277+177773267+177937155+178656957+179224936+179081289+178506575+178236172
4267+178738514+179854520+180879174+181107871+180474380+179560041+178981473
4257+178962529+179454678+180239722+180841214+180898892+180698179+180688148
4247+180637367+180112516+179497050+179530382+180168394+180773433+181030816
4237+180998258+180684601+180079472+179318432+178622995+178219695+178239125
4227+178662701+179492962+180752616+182113400+182923079+182949964+182736267
4217+182877033+183328233+183663805+183654964+183377430+182972221+182510757
4207+182091143+181965612+182331347+182907700+183059631+182513657+181631461
4197+180880038+180457362+180592294+181624529+183394969+185012291+185665699
4187+185347395+184501396+183479029+182599463+182204213+182388125+182987042
4177+183892179+185115024+186401653+187027221+186435004+185120823+184335059
4167+184732830+185728023+186246932+185837329+185021889+184705548+185240574
4157+186096928+186491187+186165879+185504710+185067304+185037195+185168741
4147+185291445+185492807+185724872+185773006+185646917+185500262+185339670
4137+185247669+185489548+185999128+186201894+185741691+185087023+185030082
4127+185723467+186555907+186875507+186469938+185514074+184536168+184196076
4117+184622767+185344586+186047479+186735083+187166637+187004514+186415843
4107+185855697+185510058+185404552+185742897+186692567+187920779+188696585
4097+188599362+187908516+187105501+186295336+185411178+184680518+184527092
4087+185120049+186176053+187165268+187665899+187570602+187075572+186532245
4077+186254729+186329803+186533379+186527077+186244735+185957351+185873597
4067+185939235+186107678+186399565+186595632+186346982+185719397+185219307
4057+185196401+185491438+185711168+185682194+185556356+185532190+185645530
4047+185914348+186465581+187315200+188170149+188654789+188666746+188379866
4037+187977413+187573502+187355429+187503074+187903780+188172184+188041052
4027+187658660+187516633+188036767+189106637+190175338+190907799+191453287
4017+192001116+192387074+192222304+191265341+189740849+188393048+188029834
4007+188857862+190353469+191838867+192995643+193713482+193802908+193238872
3997+192492581+192141720+192205287+192271753+192235540+192480354+193280092
3987+194327399+195046607+195247374+195181754+195011474+194677900+194357814
3977+194481022+195090797+195648747+195659785+195205254+194778743+194743556
3967+195037279+195417924+195855691+196472399+197177308+197662164+197777215
3957+197687627+197702159+198119919+199173493+200873596+202718318+203765607
3947+203495889+202531903+201968857+202195142+202729069+203010456+202950941
3937+202795445+202936085+203713763+204895606+205506857+204906230+203864883
3927+203667700+204443505+205130263+205093690+204976514+205585677+206753257
3917+207487393+206905062+205119981+203231806+202271188+202380206+203328958
3907+205393859+208886390+213024207+216311091+218023673+217974872+215718567
3897+211847479+208621155+208004609+209900995+212162235+212804910+212626544
3887+213637314+215701603+216805419+216554752+216439359+216532315+215643511
3878+214311502+214222185+215716964+218042923+220766581+223179823+223773589
3868+222533006+221325538+221025891+220684808+219515751+218155002+217721594
3858+219120141+223141682+229450448+234014489+232237241+226568449+221602388
3848+219127740+219100945+220860473+223634120+226783443+229897326+232436676
3838+233478221+232647455+230898426+229378562+228222794+227027356+225990007
3828+225811011+226880234+229333345+233121939+236819829+237845095+236410947
3818+235277510+234950256+233813181+231842153+230735457+231574073+234190874
3808+237304361+239446750+241021754+243592490+246732882+248059109+247333077
3798+246609655+246670125+246966405+247459382+248817646+251380117+254764008
3788+258367664+261964585+265710159+269925751+275106572+281584232+288903713
3778+296130978+303015647+310228145+318859718+329856669+342719502+355012536
3768+364959964+373195441+380700672+387623283+394050107+399801212+403904581
3758+405919349+407355712+410749903+417910287+428498824+439346204+447514512
3748+454423581+463135829+473786961+482694448+488257733+493554973+501017814
3738+510170096+518760792+525090375+529135723+531803377+534642176+539376317
3728+546310452+553115978+556801965+557809241+558801391+560245244+560717477
3718+560052887+559926689+562135184+566632524+569940926+567842206+561760048
3708+556876732+555973504+558695506+563045363+566153988+566039856+563700013
3698+561985036+563199256+567852002+574855071+582630993+589234905+592231018
3688+591078961+588284785+585974078+584539625+584166758+585403344+588782624
3678+594366294+600159429+601739457+597781986+591907169+587580793+585450128
3668+583800914+581612300+579942234+579429052+578765254+577201829+576348626
3658+577441619+579254198+580629082+582473282+585540382+588708181+589614218
3648+587515858+584392142+581741883+579447672+576956169+574662498+574041089
3638+575873620+578876037+581035911+582212135+584202305+587800595+590255975
3628+587984993+582861491+579558959+580519740+585552375+592246505+597184204
3618+599249430+600806372+603994087+608005148+610338004+609933768+608140134
3608+606778611+606464989+606897533+608104911+610463986+613783517+617698669
3598+622311942+626930906+629553037+629624707+629514860+631358340+634300935
3588+635681114+634311812+631448234+628950573+628336295+630322180+633868607
3578+636726782+637885899+638234023+638610887+639301805+641065043+644267164
3568+647157897+647381840+645351585+643430240+643139453+644541817+646517761
3558+647842980+648479371+648560837+647335092+644802279+642555716+641586184
3548+641124324+640526110+640478353+640944031+640126844+637369079+634809687
3538+634561974+635969885+636986165+637079012+637457821+638763520+639766475
3528+639162714+637760206+636883953+635553764+632256490+628440596+626861036
3518+627828840+629671959+631147074+631673114+631127842+630229980+629646100
3508+629086206+628304386+627983633+628810833+630372241+631631984+632231783
3498+632602741+632814655+632174591+630362085+628164286+626600862+626100681
3488+626457521+626996526+627136409+626986298+626975637+627260950+627499444
3478+626835970+624650777+621364235+618054068+615626924+614509874+614432297
3468+614663947+615018194+616040596+617965759+620088069+620955318+619127180
3458+614944434+611083953+609862746+610731291+611625479+611694124+611373948
3448+610732660+608984693+605716231+602033666+599879158+600248351+602422559
3438+604653491+605489767+605039936+604658389+604944063+605177370+605026754
3428+604827157+604297660+603012526+601594783+600930120+601122082+602066800
3418+603476043+604120033+602800936+600006076+597333451+595844398+595593300
3408+595911135+595885744+595383078+595211753+595707144+596180529+596157083
3398+595843606+595056996+593027641+589548094+585546613+582670574+582252472
3388+583831744+585034727+584081690+581855115+580403698+580472884+581317731
3378+582108231+582769940+583399380+583480630+582401648+580445692+578430167
3368+576750773+575574333+575199450+575456347+575655908+575666028+576003095
3358+576687855+577117301+576954512+576355757+575590792+574786138+573736760
3348+572114198+570401058+569788041+570462824+571227753+571240251+570859605
3338+570429366+569512344+567869182+566161948+565230664+565496061+567133065
3328+569945392+572979610+574959660+575403332+574843330+573954617+573099433
3318+572576779+572556142+572726242+572422633+571390975+570344730+570349448
3308+571510762+572640850+572689255+571974999+571385464+571068998+570704271
3298+570654714+571674631+573270578+573612147+571856004+569362989+567809180
3288+567552535+568416326+570451623+573148378+575311746+576428256+576856586
3278+576556471+575140385+573254767+572210611+572117332+571842967+570917229
3268+570176466+570217020+570317394+569495489+567995379+566973301+566879877
3258+567021273+566862157+566824089+567199045+567360249+567015691+567066940
3248+568188853+569696598+570557184+570610271+570186046+569286060+567827080
3238+566251122+565416503+565707759+566301831+565860788+564205920+562667850
3228+562405947+562960151+562979743+562072517+561123658+560877925+560948263
3218+560511434+559537183+558712793+558358294+558104855+557622790+557097578
3208+556833262+556725972+556247221+554919985+553008472+551644392+551789678
3198+552934496+553293065+551567283+548243646+545043254+543356441+543254157
3188+543741985+543857378+543440680+542765537+541850280+540567343+539057833
3178+537563450+536191159+535180857+534865435+534872674+534060565+532102736
3168+530421002+530529588+531984498+532817892+531801144+529478445+526976821
3158+524806143+523076147+521962482+521432048+521069806+520632436+520356235
3148+520383678+520338623+519818886+518975984+518178749+517304369+515960494
3138+514380178+513313621+512965641+512888100+512864870+512864150+512296044
3128+510538425+508119997+506380169+506018107+506548577+507029849+506986487
3118+506600223+506142792+505493292+504431705+503189609+502286453+501873429
3108+501621718+501184600+500452157+499465338+498381133+497522023+497236926
3098+497607848+498280218+498579397+497935803+496335211+494366362+492865712
3088+492429927+493022343+494005488+494648290+494549572+493683368+492464141
3078+491673101+491692981+491930106+491540961+490436551+489134670+488084427
3068+487418864+486904170+486084101+484861813+483746131+483221640+483230104
3058+483445763+483668446+483814776+483836710+483812039+483843048+483731437
3048+483059499+481777930+480396311+479332851+478403476+477202257+475684356
3038+474161628+472959401+472232144+471913409+471819157+471865904+471972582
3028+471795783+470983853+469759909+468789116+468296679+467761636+466738837
3018+465537186+464709374+464273157+463835102+463206095+462606080+462363589
3008+462482980+462480603+461774847+460284605+458528715+457166471+456494138
2998+456334086+456319355+456168991+455742498+455174321+454883029+454914650
2988+454503031+452975514+450799217+449094360+448494129+448768709+449041381
2978+448380212+446705212+444967221+444173192+444514545+445320459+445494810
2968+444448205+442906029+442137750+442328451+442488540+441990268+441265315
2958+440848294+440633175+440253789+439577134+438712046+437902098+437381244
2948+437090097+436666520+435874040+434911566+434208007+433957017+433908432
2938+433606011+432770924+431525767+430331247+429601001+429339638+429288640
2928+429344896+429506893+429484347+428818172+427416276+425676052+424120299
2918+423088388+422644283+422598472+422649505+422550752+422205041+421666143
2908+421010917+420269866+419547579+419033352+418781749+418651194+418462005
2898+418038213+417215659+416006770+414653350+413469599+412697359+412406931
2888+412461422+412640635+412770686+412708559+412391769+411988397+411775835
2878+411759088+411561040+410796651+409512201+408172467+407209994+406661373
2868+406273920+405878940+405507190+405122726+404495340+403506719+402349944
2858+401272834+400403568+399907061+399905873+400135470+400063296+399447326
2848+398556703+397894454+397781690+398042044+398115335+397624951+396669861
2838+395506350+394311578+393304987+392652209+392169280+391484593+390562889
2828+389779880+389419187+389327420+389150332+388732195+388161460+387579524
2818+387114855+386860011+386686921+386220343+385268458+384142799+383309153
2808+382896886+382753329+382704276+382521606+381932792+380921554+379788836
2798+378796471+378029272+377567628+377365510+377059632+376419244+375816744
2788+375676392+375671026+375090027+373884594+372791098+372405698+372497213
2778+372327112+371493610+370275824+369157369+368348897+367871550+367671341
2768+367521373+367223671+366922943+366835426+366788750+366397191+365548599
2758+364452329+363395495+362595811+362087275+361682787+361182174+360612772
2748+360152641+359835562+359460715+358862968+358174032+357641761+357208785
2738+356499752+355312543+353930600+352844738+352322444+352307678+352561333
2728+352835050+353013218+353077937+352910646+352323272+351359683+350315923
2718+349408445+348661127+348054341+347542312+347031183+346491745+345988899
2708+345602275+345391009+345274536+344940962+344156224+343105298+342136666
2698+341361688+340783318+340515617+340565714+340646784+340462386+340027357
2688+339555124+339157695+338797362+338447906+338133024+337819078+337420533
2678+336909836+336314106+335662481+335024758+334523245+334206274+333949161
2668+333561600+333016761+332511826+332221218+332041178+331728349+331243439
2658+330756080+330345217+329923694+329480741+329179293+329096890+329001882
2648+328548161+327670504+326698018+326072144+325945406+326042684+325990282
2638+325755354+325577510+325529574+325434637+325174247+324778943+324272567
2628+323678639+323107832+322665708+322340634+322038826+321653246+321139199
2618+320608586+320265432+320176906+320203017+320191492+320131707+320066411
2608+319960670+319736475+319379455+318948964+318522183+318172978+317945145
2598+317775693+317503778+317041917+316480907+315948276+315468444+315057366
2588+314816315+314802882+314924829+315049514+315096154+314983714+314630620
2578+314056068+313410422+312885570+312594207+312489690+312400660+312199911
2568+311936747+311765026+311745398+311760560+311655828+311399543+311036652
2558+310590639+310135621+309839035+309771867+309765816+309562294+309053253
2548+308403249+307993719+308116135+308623735+309044898+309110013+308966060
2538+308844653+308760449+308596759+308310834+307979637+307707577+307515832
2528+307329164+307088186+306840581+306686111+306666086+306735668+306796714
2518+306738117+306501604+306139723+305788249+305561677+305465192+305423486
2508+305408324+305479166+305637417+305731993+305623371+305355273+305045866
2498+304711896+304333915+304004555+303868237+303936342+304059334+304099167
2488+304070427+304058938+304049502+303938827+303694139+303378213+303027063
2478+302645589+302340576+302299374+302554687+302860457+302882174+302517735
2468+302037957+301860221+302094537+302404035+302451971+302298222+302145625
2458+301982493+301754210+301578311+301522218+301466538+301366055+301337837
2448+301402197+301428938+301367280+301269768+301100280+300759395+300313076
2438+300001291+299973955+300152393+300367225+300499599+300487354+300349073
2428+300232473+300314732+300622537+301010098+301294619+301383109+301300814
2418+301133955+300942137+300731033+300526286+300429549+300515085+300695936
2408+300812572+300834667+300841978+300862597+300888222+300978350+301202654
2398+301532338+301845293+301983250+301849291+301539343+301294943+301218717
2388+301108150+300637303+299588556+297769296+294821083+290400348+284585153
2378+277874889+270784302+263646068+256741608+250335727+244548499+239340019
2368+234625326+230401631+226821727+224159889+222770238+223054615+225296713
2358+229540541+235727575+243985454+254676004+267366251+279507157+287420567
2348+288952478+285042818+279262036+275065406+273003818+271636371+270043305
2338+268342662+266942225+265903507+264852599+263570652+262518788+262400550
2328+263252438+264324416+264933957+265213796+265892577+267507233+269978028
2318+272745930+275158992+276940706+278399380+280036996+282003432+284096840
2308+286118487+287979182+289575867+290792554+291621158+292194162+292680855
2298+293157338+293606845+294044287+294524425+295004617+295375376+295656746
2288+295958698+296242607+296346457+296231262+296011497+295781503+295541695
2278+295250962+294903378+294587938+294433198+294455347+294515781+294434567
2268+294130795+293726289+293509801+293670988+294069749+294374943+294399055
2258+294209237+293977100+293822810+293771669+293790559+293839269+293893797
2248+293940995+293958444+293901900+293752599+293601406+293605332+293810565
2238+294113346+294424500+294739166+295030242+295238644+295371127+295466369
2228+295500260+295434334+295301797+295184081+295141961+295151091+295092314
2218+294897543+294674591+294557235+294518716+294488247+294526424+294709778
2208+294952269+295102236+295133408+295112519+295047853+294911967+294778513
2198+294773669+294891241+295000889+295036725+295051653+295092044+295131193
2188+295138288+295144806+295198127+295254833+295201116+295029792+294907898
2178+294995811+295280062+295612303+295814169+295763802+295510128+295273723
2168+295224796+295322020+295452467+295594079+295736628+295796107+295738573
2158+295663067+295670504+295765548+295925474+296132760+296318383+296407593
2148+296432138+296479336+296544470+296566385+296584068+296691844+296855984
2138+296953639+296976851+297021258+297116969+297236468+297395511+297597863
2128+297771601+297878369+297991853+298192224+298457261+298700670+298863441
2118+298949806+299013751+299120879+299301334+299523764+299723073+299859337
2108+299946998+300040764+300194207+300398486+300572134+300678703+300830346
2098+301153673+301557747+301794890+301801372+301804109+301998484+302292747
2088+302489067+302549933+302550833+302509091+302384478+302184305+302010909
2078+302013214+302262530+302676202+303087209+303358980+303463929+303535672
2068+303763721+304129564+304389270+304418515+304372307+304420712+304574101
2058+304809713+305109325+305340003+305347494+305205449+305177358+305413582
2048+305828298+306246436+306546660+306691657+306712006+306650600+306532181
2038+306431087+306469551+306646026+306779283+306746112+306671561+306770279
2028+307074824+307399970+307549758+307525556+307534127+307795923+308321710
2018+308852216+309063626+308890932+308579076+308380307+308338746+308398891
2008+308542772+308742513+308927128+309075475+309242442+309437501+309557504
1998+309539244+309556999+309903287+310588478+311223248+311448379+311320777
1988+311111276+310975823+310966026+311093160+311270284+311380599+311417478
1978+311442113+311493038+311615274+311835796+312094386+312348834+312658458
1968+312995309+313165878+313125288+313110270+313269962+313478058+313649959
1958+313908441+314288259+314596586+314704344+314739747+314901564+315235245
1948+315674956+316256856+317128894+318173338+318800149+318546349+317743748
1938+317124356+317034786+317328563+317743676+318153062+318534284+318848229
1928+319099688+319523408+320366239+321406649+322202335+322848990+323712097
1918+324483725+324483509+323881585+323617125+324239721+325449224+326548735
1908+327128077+327335165+327550609+327970547+328566925+329260148+330056446
1898+331092283+332418618+333750645+334821596+335888838+337285944+338678440
1888+339483310+339808168+340215069+340912829+341713594+342445929+343116138
1878+343822362+344622010+345514866+346683563+348579157+351319742+353916770
1868+354764426+353563892+351750017+350643698+350394364+350511666+350617299
1858+350600984+350470645+350276198+350099903+350095581+350462001+351333391
1848+352826370+354975908+357120260+357799328+356531193+354731076+353756538
1838+353645935+353782325+353996436+354865125+356889509+359446849+361041787
1828+361170830+360758454+360295333+359372657+358050391+357118423+356998708
1818+357373339+357803074+358298645+359182604+360461616+361523095+361730940
1808+361236197+360834735+361230867+362583206+364378713+365685241+365953879
1798+365664856+365919484+367482153+369987774+371626146+370735776+368264405
1788+366532429+366516870+367580222+368819041+369980787+370983633+371528437
1778+371786883+372733509+375248854+378949284+381840485+382145786+380429189
1768+378172613+376270429+375534492+376489438+378407433+379858670+380586828
1758+381254191+381870593+382397930+383771085+386737775+390327817+392466838
1748+392424088+391302355+390370963+390358034+391475481+393136939+394263354
1738+394972567+396913937+400752737+403941100+403464257+400653659+398061817
1728+396498932+396121132+396864956+398214125+400089011+403527176+409328594
1718+415858783+419075634+417380249+413628787+410749651+409865115+411126875
1708+414210830+418119536+421589251+424762272+429100388+434591966+438491524
1698+439315771+438492353+436571728+433936848+432423593+433187694+435747626
1688+439555885+445220373+452663801+458132978+458093542+455219412+453472309
1678+454453510+457863512+461896182+464946931+467642569+470902135+473281414
1668+473051961+471962714+472818329+475783794+478650685+479843728+480522725
1658+482862315+488294433+497235594+507124354+511093565+509022288+508003956
1648+510146146+512465784+511759740+509427749+508469273+509904664+513680257
1638+519481531+525685168+528698929+527291343+525026664+524883828+527034446
1628+530195546+533355529+536502691+539406281+541174273+542178812+544290282
1618+548274331+552137478+553406729+553129411+553755574+555837114+558378283
1608+560437098+562043345+563720038+565703761+567897129+570190873+572533524
1598+574838720+577012857+579013579+580887312+582802282+584896392+587021908
1588+588839276+590218843+591359988+592529729+593974628+596154670+599668756
1578+604427747+608591405+609803897+609221025+610092091+613241414+616571606
1568+617934930+618102257+619007754+621728926+627214923+636459909+647394662
1558+652389121+649664346+645822665+644041636+644405031+646452573+649536708
1548+653512294+659103455+666686407+675548334+684904968+693383765+697123594
1538+695571407+694175597+696152838+700454074+704465676+707680330+711955132
1528+718273946+725585486+732502947+739044768+745301636+749987300+752473869
1518+753892080+754987882+755927953+757428711+760386721+765228691+771865593
1508+779006421+783013772+781705336+778788024+777729750+779014056+782022919
1498+785533043+787839896+788499912+789300533+791856035+795427602+797432214
1488+796582108+794616465+793743598+794717884+797002263+799431712+801395483
1478+803481129+806507856+810389802+813940408+815458669+814592429+813281832
1468+813487695+815472499+817922405+819311299+819948842+821611237+825312962
1458+829739244+831253040+828511194+824641061+822209307+821634719+822148297
1448+822359779+821269812+819246039+817387073+816378500+816529188+818136552
1438+820897846+823130651+823304317+822432602+822217591+822606052+822459541
1428+821568883+821036937+821575077+822593086+823297618+823881066+824699190
1418+824972114+823873358+822094850+820815731+820395360+820329524+820105293
1408+819950787+820373895+821195260+821811482+822333704+823390393+825122658
1398+827244103+829489298+831273280+831738526+830988039+830184826+829993368
1388+829872933+829079372+828255702+829261321+833115536+838820289+844522161
1378+849441852+853664359+856554948+857347717+857152154+858034385+860380639
1368+862979791+865078476+866981453+868783659+869864622+869895019+869320719
1358+868438704+866912952+864532123+861868863+859747633+858500207+858037626
1348+858069176+858245795+858612647+859618194+861336053+863146110+864447343
1338+865159726+865291038+864717458+863664947+862827663+862654285+862667179
1328+862057872+861103610+861170382+862956021+865567564+867687497+868886807
1318+869497987+870023882+871029285+872900065+875321734+877511969+879294367
1308+881352354+883956405+886148513+887011440+887050841+887356467+888181793
1298+889003015+889121505+887910814+885381099+882594450+880807010+880264836
1288+880058756+878915846+876320799+873087488+870404852+868375389+866252863
1278+864038570+862717600+862680216+863001185+862722642+862005865+861581029
1268+861770181+862338287+862902214+863367028+863996216+864902721+865752034
1258+866431931+867469604+869142083+870755785+871449152+871320361+871342475
1248+872375034+874436478+876951067+879555262+882199146+884620888+886619881
1238+888671025+891240502+893777636+895363102+896023479+896655332+897992076
1228+900066126+902423256+904690924+906955422+909349864+911438536+912592683
1218+912817707+912741066+912984746+913872379+915608821+918378687+922124351
1208+926277997+929906972+932428476+934249050+936316761+938928591+941331821
1198+942571180+942693127+943097291+945289543+949034631+952258578+953574073
1188+954131662+955776986+958418781+960640277+962074263+963568106+965591950
1178+967897722+970258598+972433275+973904428+974655131+975740633+978146671
1168+981317820+983670628+984620640+985385461+987419678+990472335+992802382
1158+993222537+992302345+991366307+990995278+990929946+990883918+990868576
1148+991126301+992317184+995281892+999865849+1004492592+1007837478+1009946246
1138+1010692123+1009273264+1006535740+1005447574+1007579752+1010751044
1130+1011900653+1011237611+1011354445+1013546265+1017031178+1020457459
1121+1022658642+1022875022+1021493331+1019876964+1019217956+1020259879
1113+1023068497+1026484621+1028700571+1028784631+1027264352+1025551608
1104+1025302382+1027138011+1029170427+1028669454+1025810054+1023666567
1095+1024710147+1028418859+1031967592+1033106396+1032679398+1033327314
1087+1036144576+1040101218+1043977546+1047686258+1051203802+1053102673
1078+1051889101+1048484646+1045934762+1046388627+1049114265+1051175638
1070+1050604219+1049005859+1049689430+1053573825+1057630014+1057833572
1061+1053705857+1049303850+1049663571+1056392671+1065981604+1072686430
1053+1073741823+1070920456+1066912024+1062824862+1059136102+1056023515
1044+1053138472+1050749649+1050239312+1052461600+1056678273+1060954875
1035+1063637728+1065195606+1067509157+1070705804+1072263539+1070343778
1027+1066406585+1063265545+1061856842+1061179106+1060678566+1060674388
1018+1060553808+1059073435+1056899911+1056433009+1058480551+1060987505
1010+1061805773+1061017830+1059833502+1058561658+1056610780+1054097848
1001+1052373651+1052401023+1052901419+1052011769+1050464623+1050681724
993+1052872535+1054355862+1053062192+1049634975+1045981798+1043441278
984+1042352463+1042239591+1042189818+1041591603+1040482548+1039034012
975+1037219561+1035179365+1033081185+1030681845+1027744364+1024683423
967+1022371528+1021142038+1019947122+1017028585+1012078136+1006697089
958+1002579026+1000500799+1000313231+1000588244+999090367+995097277+990372645
948+986572525+983254507+979575111+976337622+974832687+974682647+974329625
938+973179800+971955423+971215453+970472673+968974940+966987687+965672264
928+965622059+965949798+965487434+964751137+965277897+966967087+967971986
918+967226541+965279265+962960744+960895770+959961605+960676508+962060361
908+962250378+960787292+959292080+959027872+959159400+958636025+957996393
898+957551820+955934084+952623701+949863704+949904761+951962388+953399543
888+952842530+950993432+949102628+947581774+946177537+945115085+945241139
878+946506140+947226735+946055373+943829843+942164423+941263752+940298397
868+939001126+938049745+938364807+940141082+942198637+942510674+939971738
858+935806568+932858642+933395775+937229317+941641984+943836902+943556054
848+942378714+941194818+939968641+939266126+939856417+940799082+940224494
838+938362574+937398661+938003070+938602941+938410259+938615186+939926935
828+941116665+940492808+937778550+934225712+931428042+930471548+931657532
818+934330804+937261946+939833656+942264545+944769050+947407676+950313319
808+953015476+954001431+952398677+949617359+947736639+946811910+945237897
798+942387141+939741168+939388290+942128911+946903821+951505210+954388451
788+955695447+956082900+955639335+954754727+954489582+954940854+954858523
778+953839290+953149453+953487852+953774894+952778639+951238912+951376851
768+953721664+955828415+955196203+952079870+948254396+945240778+944563330
758+946743193+949453417+949944306+949499949+951475533+955197139+956070654
748+952308207+947458169+945209517+945482297+946180634+946514856+947489935
738+949787423+952547565+954661015+955636310+954930698+952322109+949416033
728+949074752+952278602+956308572+957002226+953342711+948214491+943974840
718+940468029+937811108+937487979+939712356+942067757+941884079+938997740
708+935228018+932576427+931725025+931350177+930035042+928813331+930139487
698+934221030+937781575+937518592+933640391+928574549+923589094+917878938
688+910822170+904028962+899988909+898671181+897194337+894203841+891879125
678+891881574+892890939+893504280+893997762+892552251+884082603+867658541
668+854332443+857696994+871785319+881927663+883672965+879992848+874990177
658+871583201+870634630+870520533+868968489+865479398+861397711+858638722
648+858380780+859386904+858739997+855357439+851091642+848724571+850101797
638+854917476+860335980+863108438+862466645+859669552+855511513+850970990
628+848366867+848597365+848715639+845057780+838460496+833126988+830662317
618+828120284+822706102+816592575+814189057+816224067+818816233+819222269
608+820774097+826555419+831370378+828182662+820164070+816964037+821367629
##END=
