##TITLE=<SNM>
##JCAMP-DX=4.24
##DATA TYPE=INFRARED SPECTRUM
##DATE=2/5/2025
##SAMPLING PROCEDURE=Instrument type and / or accessory
##ORIGIN=Admin
##XUNITS=1/CM
##YUNITS=ABSORBANCE
##RESOLUTION=4
##FIRSTX=4497.3318
##LASTX=599.83466
##DELTAX=-1.4281778
##MAXY=1.718491
##MINY=0.22762993
##XFACTOR=1
##YFACTOR=1.6004694e-09
##NPOINTS=2730
##FIRSTY=0.24735466
##XYDATA=(X++(Y..Y))
4497+154551316+154246090+154388141+154876523+155239772+155197074+154874977
4487+154383392+153655302+152986855+153037281+153843877+154574248+154696495
4477+154618194+154810129+155199196+155758152+156674984+157522854+157258901
4467+155599231+153718651+153056023+153792818+154929592+155681610+156157460
4457+156550279+156557504+156021127+155244473+154356364+153344741+152780051
4447+153356091+154720265+155772965+155910211+155166703+153661522+151756725
4437+150303636+149971103+150556081+151305753+151619814+151305576+150592764
4427+150067727+150164165+150562757+150421274+149329209+147791311+146681323
4417+146479844+147063035+147957187+148703358+149121278+149297358+149339842
4407+149214262+148823882+148213682+147717786+147757486+148197519+148116322
4397+146877114+145222024+144431470+144725524+145380368+145972999+146570296
4387+147068212+147121142+146558881+145597545+144775009+144603323+145049808
4377+145558021+145723003+145594249+145245803+144581919+143753797+143318913
4367+143667740+144560095+145513163+146336360+146963003+147175887+146903211
4357+146420741+146015046+145795597+145831527+146078022+146265256+146154368
4347+145808446+145493230+145358339+145175379+144589330+143871816+143918760
4337+144969710+145932043+145621445+144211398+142839674+142226978+142308147
4327+142896412+143994259+145345016+146256746+146288746+145766539+145251660
4317+144916454+144763073+144917590+145345630+145700342+145732910+145613419
4307+145668165+145882166+145828454+145239118+144500992+144247123+144604040
4297+145177418+145584100+145720154+145765292+146091988+146845216+147602764
4287+147783807+147311150+146601383+146078878+145897482+145919911+145844654
4277+145491684+144973378+144570392+144576649+145237657+146557857+148068727
4267+149073813+149389765+149559905+149926580+149917474+148988771+147866549
4257+147793676+148816946+149828010+150100518+149942380+149928488+150122203
4247+150153728+149886340+149792639+150310302+150956218+150790277+149810087
4237+149074483+149243190+149757753+149781038+149259818+148675184+148346710
4227+148408187+148936790+149633560+149832255+149315383+148733654+148761027
4217+149183574+149349013+149222390+149341946+149841752+150202170+150031463
4207+149592119+149444073+149835030+150460071+150685636+150099643+149015455
4197+148362212+148759593+149702094+150091152+149666547+149292926+149652032
4187+150452157+151067478+151241603+151068065+150790528+150705701+150986095
4177+151530517+152046132+152324619+152449435+152623458+152857654+153056247
4167+153273740+153583174+153804475+153621831+152948180+152081401+151490491
4157+151389007+151555339+151692641+151816145+152123326+152687644+153409636
4147+154043829+154240756+153884462+153411572+153433806+153964718+154405104
4137+154419508+154381223+154763233+155485559+156064104+156171147+155909401
4127+155590852+155345120+155103242+154920291+154974255+155187642+155188359
4117+154764694+154195898+154036949+154538338+155297180+155688295+155624919
4107+155594902+155997646+156782055+157663256+158314059+158437144+158036867
4097+157529669+157271489+157120510+156791421+156378370+156142052+156115945
4087+156275881+156675748+157154884+157406137+157486170+157761686+158322420
4077+158892465+159237921+159306726+159137424+158911048+158879188+159040371
4067+159116326+158991417+158896189+158988288+159055994+158875613+158627302
4057+158690315+159102416+159443664+159340262+158946614+158761950+159049980
4047+159670003+160304997+160549435+160139233+159437352+159211088+159668066
4037+160225392+160394992+160345572+160465361+160875767+161469498+162098794
4027+162696137+163341745+164130158+164912537+165327468+165169563+164597656
4017+163941508+163440101+163152574+162964074+162723249+162484621+162492777
4007+162822834+163215495+163400922+163430176+163569684+163920895+164225441
3997+164153452+163775372+163578027+163952532+164780663+165554328+165866807
3987+165800200+165757632+165892075+165916860+165579187+165098319+164977934
3977+165470720+166338216+167107151+167491954+167539567+167399538+167143853
3967+166923846+167080225+167846870+168996064+169961953+170319625+170012621
3957+169251711+168438496+168073934+168589400+170116656+172120424+173436145
3947+173452383+173057339+173397991+174125550+173915431+172455918+170797514
3937+170099916+171020873+173685909+177238235+179643787+179361418+177463493
3927+176500899+177386029+178606244+178765789+178723650+179903494+181746227
3917+182064348+179726706+176074851+173234126+172109679+172469195+174412183
3907+178905428+186233848+194265117+199483165+200429558+198002797+193003415
3897+186771771+182285621+181949084+185009779+187465775+186398104+184554179
3887+186016262+190107293+192927330+193833036+194858121+194542123+190497011
3878+185913716+185693262+190304824+196871087+202750255+205498415+203341881
3868+199153872+197563770+198546306+198200347+194810675+191002311+190043311
3858+193971017+203884608+217717675+225233608+217620343+203400630+192354678
3848+187151602+187701312+192724100+199984591+207540690+214393698+219027457
3838+219188845+215159337+210069774+205719409+201943649+199057862+198145471
3828+199071977+200733341+203893528+210647360+219241803+223227011+221182277
3818+218139217+215079267+209182168+201692434+197031861+197534888+202592032
3808+208816973+212576401+215104387+219641782+224270252+224048215+220074049
3798+216548463+213290814+208737294+204353112+202408076+202961454+204947885
3788+207897636+211363877+214310537+216789996+220438667+225393619+228732548
3778+228524812+227211791+228396793+233619831+242122379+251112890+257581133
3768+261442511+264471420+267504183+271591881+278700909+288955394+299304641
3758+307209158+314582976+325603249+342841852+364545247+382939506+392379603
3748+398371576+407790370+419537532+426618088+428454602+431733683+440818268
3738+455968229+473338520+486192737+491138695+491326171+491577704+494398597
3728+499923445+506461571+511554635+514164739+515111505+515860627+518183484
3718+523266939+531016398+541443519+554969730+569317053+578550865+580187166
3708+578328866+577822748+581605266+589709753+597936394+601368280+600217354
3698+598019481+597503978+600568918+608768856+621709214+634209111+637425701
3688+629209376+617530888+609137366+605565413+606059577+609488297+615887288
3678+625760843+635423497+637269284+632035371+627489169+624998500+620217785
3668+612788197+607095425+605576846+607595175+611228838+615421502+620836597
3658+627493861+632904301+636248184+641901143+654216320+670531360+679514869
3648+674469922+663070302+653657244+648134407+645576033+644599250+644132534
3638+644440599+646613818+650948709+657067491+664943872+673854014+680054506
3628+679634714+675020731+671510749+672914101+681031586+692812787+699943732
3618+698501425+694742220+694442943+696628600+698839508+702070696+707260067
3608+710554046+707657588+700693413+695158511+693615724+695370492+699842955
3598+707014419+714670997+718982128+719082086+718316763+720162923+724653486
3588+728031482+726092218+719620903+713157111+710564622+712840703+717695195
3578+721779150+723557231+723749325+723521553+723714690+725747431+730861947
3568+737046796+738756873+733772035+727054252+723798410+723189727+720578766
3558+714826743+710282701+710759770+715424626+721022989+725856104+730311883
3548+734343401+736318194+734858383+730781802+726101081+722327724+720620105
3538+721439354+722917041+721890056+718373446+716332809+718477500+722884939
3528+725939153+726854635+726992729+726428662+724525671+722738950+723320819
3518+725578576+726389558+724793962+723439695+724780332+727858605+729413904
3508+727722895+724451783+722090642+721050548+720512774+720520818+721681054
3498+723833492+725856923+726764882+727012541+728207189+731006743+733586123
3488+733327440+730257137+726969639+725082215+724120553+723951027+725459923
3478+728334855+730746124+731900551+732822737+733883314+734065427+733343752
3468+733063543+733532941+733337570+731628610+729383440+727613925+726150613
3458+724892058+724681194+726226736+729174364+732348423+733989900+732358031
3448+727453412+722045653+719797579+721750027+725241611+726735610+725435791
3438+723323724+722170340+722101814+722689269+723885631+725399740+726397453
3428+726245357+725231705+724374096+724537142+725478023+725722628+724368510
3418+722715488+722592217+723510008+723346367+721809614+721145589+723542036
3408+729175406+735894529+740451979+741238902+739420674+736674302+733402445
3398+729873768+727011722+725306486+724487610+724567531+726156348+729223002
3388+732075812+732964107+732190666+731325237+731169118+731242411+730728769
3378+729430588+728086823+727588153+727745240+727667255+727060360+726127449
3368+724831428+723309944+722331895+722720478+724875522+728932365+734346827
3358+739060097+740975080+740938583+741556427+743062493+742903246+739694775
3348+735624450+733536442+733702318+734737496+735718673+736179132+735798743
3338+735123918+734878270+734344816+732349242+729711467+729000742+731759925
3328+736748264+741011875+742410981+741038838+738607756+737125004+737603489
3318+738880442+738354287+735511011+733605637+735416044+738722685+738978612
3308+735774312+732958670+732931483+734504584+736107702+737572653+738010916
3298+735500658+730770033+727961095+729647113+733505680+735637038+735710777
3288+736319386+738473685+740633943+741412971+741169706+741088817+741977112
3278+743919877+745849608+746083487+744552619+743642499+745413876+748440308
3268+748779434+744820686+739781921+738168748+741296999+746892904+751483872
3258+752448588+748917006+742059194+734815704+730480365+730785526+734759841
3248+738972579+740055203+738114077+736488539+737663151+740845701+743229411
3238+742883359+740545829+738461395+737814800+737931293+737860086+737488858
3228+737010075+736388209+735851776+736091986+737555000+739854469+741737125
3218+741885274+740268302+738127707+736549392+735628473+734775110+733938953
3208+734310181+736776792+739888433+740813077+738674270+735518385+733785889
3198+734028855+734931452+734871641+733540092+732086984+731920215+733558862
3188+735927749+736735453+734743156+731472045+729556466+729971491+731692294
3178+732989730+732702073+731280844+730111372+729627673+729308509+729026736
3168+728817958+728019266+726158210+723838184+721819669+720437247+720045834
3158+720854878+722345377+723970840+726159402+729232163+732145305+733431122
3148+732378738+728809169+723247303+717631809+714294257+713939341+715354760
3138+716951919+717980021+718275127+717673073+716470604+715793098+716055579
3128+715595418+712627381+708320644+705764876+706414972+709203205+712065623
3118+713188916+711722103+708407940+705211461+703653703+703576538+703671728
3108+703283369+703323441+704651714+706322687+706711568+705813068+705040743
3098+705183380+705786849+706109886+705758098+704707055+703396287+702430900
3088+701801660+700862715+699344211+697816694+696883857+696463842+696007181
3078+695229121+694575227+694796593+695934931+696836783+696221099+694333973
3068+692758414+692182206+691210563+688400954+684770681+682846388+683593685
3058+685359849+685891738+684873468+683923649+684180917+684940132+685036812
3048+684538142+684246835+684260093+683934077+682849441+681239396+679616689
3038+678265178+677356175+677275211+678073903+678829542+678505314+677309921
3028+676301408+675842885+675331999+674366687+673105600+671486170+669187148
3018+666581997+665000479+665390179+667021974+668097671+667313206+664863727
3008+662217833+660826473+661143328+662703990+664619494+665894287+665846468
2998+664497266+662289263+659721578+657520130+656376131+656152009+655943082
2988+655098583+653750721+652459914+651803413+651914543+652197731+651841101
2978+650521097+648519117+646428427+644970851+644726916+645617744+646809561
2968+647257657+646246984+643767115+640743514+638364943+636908410+636013485
2958+635823178+636611293+637645801+637655782+636224796+634117198+632524582
2948+632083562+632199608+631642915+630238520+629114707+629023315+629408844
2938+629292425+628352438+626989233+625732912+624777953+623975090+623171595
2928+622419568+621699606+620764832+619538379+618173051+616607436+614781685
2918+613227056+612554615+612370639+611760951+610850720+610609168+611079758
2908+611058456+609760982+607879071+606572324+606101325+605778586+604646318
2898+602102840+598559527+595536037+594419336+595190171+596806249+598383857
2888+599511246+599928207+599457170+598079068+596026737+593823577+591863382
2878+590078188+588405986+587143595+586500612+586289636+586120372+585534071
2868+584240471+582533113+581010177+579787522+578521444+577157308+576144326
2858+575843672+576033457+576134643+575733733+574678184+572951646+570818351
2848+568842850+567515733+566960194+566881837+566633694+565598180+563830267
2838+562157357+561324068+561202659+560999355+560142007+558768598+557294225
2828+555864133+554522454+553481839+552756328+551888068+550467138+548710881
2818+547225596+546337971+545917881+545773494+545832337+545789546+545060497
2808+543426654+541348961+539459341+538115613+537377477+536976046+536455850
2798+535656972+534835116+534122379+533200417+531802874+530262509+529107561
2788+528281832+527324713+526237918+525503655+525258714+525017126+524256868
2778+522940438+521435043+520087144+518868624+517483670+515830424+514209914
2768+513079024+512608807+512368335+511581487+509965073+508126102+506871270
2758+506375245+506132092+505485608+504222770+502664380+501111836+499521902
2748+497953716+496845693+496424486+496269671+495897587+495423012+495187569
2738+494999757+494228848+492620777+490597234+488656518+486938434+485513071
2728+484605186+484278649+484267513+484260400+484015348+483228425+481769135
2718+480046806+478699503+477870720+477114819+476035212+474745522+473612658
2708+472709429+471719239+470436104+469146414+468303926+467991541+467938061
2698+467864992+467566163+466859757+465741269+464437390+463159580+462003292
2688+461121253+460691257+460608915+460407659+459615746+458183382+456557658
2678+455304391+454534450+453746596+452454523+450873378+449629086+448974372
2668+448702320+448553054+448287146+447711087+446940625+446210385+445362012
2658+444097200+442636905+441520689+440929956+440659282+440481079+440245412
2648+439864463+439314511+438566208+437629461+436659270+435809632+435061440
2638+434356375+433756295+433356428+433148841+432980061+432612594+431921569
2628+430995845+429963386+428866573+427817913+427060635+426709331+426556304
2618+426269690+425756309+425204718+424763512+424317726+423674743+422863687
2608+422092294+421485250+421019316+420635202+420245986+419706015+418961846
2598+418189894+417592979+417075539+416338372+415334700+414424097+413973134
2588+413932242+413873958+413367579+412339366+411169856+410397047+410205884
2578+410253293+410061125+409454304+408559007+407611757+406867290+406451484
2568+406214736+405869317+405271844+404484884+403694609+403171508+403076057
2558+403164618+402945673+402255169+401410074+400726684+400196135+399673630
2548+399113846+398582254+398207264+398087159+398120975+398025821+397622975
2538+396997235+396317718+395653210+395038084+394568127+394321064+394274400
2528+394339015+394394729+394344973+394215632+394083684+393881870+393463307
2518+392832353+392131236+391514211+391150245+391114418+391192105+391055390
2508+390660811+390253607+390021292+389907815+389714828+389287178+388617418
2498+387852058+387252127+387036906+387107815+387052548+386603298+385917636
2488+385291896+384877653+384757287+384942082+385194620+385166167+384818103
2478+384466837+384326435+384238097+383946343+383443539+382934069+382584851
2468+382374695+382128972+381718007+381237213+380899577+380774854+380761521
2458+380753477+380704653+380603913+380502131+380484292+380511888+380362920
2448+379864213+379163245+378629493+378456317+378461643+378342543+378051013
2438+377791660+377668314+377557631+377404641+377342484+377375779+377297496
2428+377078699+376974347+377117357+377326805+377388888+377319394+377289675
2418+377332578+377202529+376680247+375914664+375266914+374993745+375206433
2408+375830758+376515787+376850853+376686318+376156774+375582950+375331678
2398+375470740+375641680+375518633+375190047+374898107+374678789+374441707
2388+374169691+373863302+373405002+372564562+371089445+368852356+366082559
2378+363426610+361550322+360615213+360261526+360051928+359769969+359417660
2368+359161659+359201731+359477992+359635340+359562494+359776449+360845965
2358+362642666+364684644+367044407+370378495+375003055+380186505+384604111
2348+387382065+388666280+389360805+390001740+390036151+388761917+386198105
2338+382785958+379046603+375447873+372165328+369127128+366393269+364242209
2328+362781393+361689086+360562851+359442650+358721124+358570927+358755870
2318+358962861+359057642+359089968+359210074+359534079+360087383+360869650
2308+361817719+362725977+363393353+363830760+364206792+364643529+365121381
2298+365520428+365740454+365827042+365954186+366231676+366568306+366797381
2288+366888066+366934730+367005117+367112449+367250765+367373291+367437087
2278+367480474+367532910+367518796+367372509+367147233+366927803+366724462
2268+366493859+366259719+366202739+366504101+367041503+367425467+367426063
2258+367210469+367109506+367275270+367625159+368033815+368438412+368752809
2248+368880809+368882299+368934065+369090407+369267083+369435864+369655107
2238+369953415+370302075+370672335+371076522+371567706+372180150+372846409
2228+373413419+373796378+374110626+374577901+375296447+376203401+377241931
2218+378414681+379688803+381000652+382355292+383814023+385398743+387093439
2208+388904963+390797750+392602906+394201070+395797820+397759690+400160755
2198+402710899+405099376+407259336+409361125+411605401+413971458+416239196
2188+418277785+420150721+421958223+423753808+425551441+427283714+428835699
2178+430180321+431376570+432367281+432901927+432819101+432303486+431677113
2168+431075506+430465557+429754905+428802740+427523515+425929521+424001244
2158+421714549+419164107+416481753+413757168+411025580+408185880+405114832
2148+401831318+398365915+395020133+392957747+393496080+396535323+400657824
2138+404739209+408502995+411884120+414903178+417831961+420896268+424056883
2128+427115120+429874303+432378528+434946660+437818203+440944444+444086363
2118+446954181+449471143+451903379+454488010+457147683+459690081+461948956
2108+463804239+465375590+467028798+469126378+471924442+475478444+479476035
2098+483365811+486685486+489283598+491364903+493133674+494289739+494185536
2088+492432668+489057167+484235448+478085457+470718808+462586389+454519516
2078+447176479+440771604+435337813+430784683+426902058+423660740+421166161
2068+419279371+417707424+416276252+414853013+413337637+411755262+410145962
2058+408595430+407318402+406390071+405671115+405107570+404649456+404043082
2048+403161006+402203924+401399349+400867422+400621364+400476418+400315049
2038+400378658+400944922+402043188+403681984+405991471+409167019+413410259
2028+418609536+424143173+429358576+433977848+437902370+441097173+443563225
2018+445005420+444914513+443248716+440567182+437437739+434087078+430508832
2008+426689667+422743359+418825838+415009466+411359939+407981905+404884118
1998+402040991+399703684+398313963+397820879+397338558+395940457+393651863
1988+391200633+389186140+387888965+387327915+387144647+386826861+386185368
1978+385380122+384625488+384068832+383756521+383661293+383852866+384409969
1968+385011129+384998243+384131585+382914592+381935574+381292927+380842895
1958+380597582+380596092+380672513+380615793+380421241+380290075+380456398
1948+381074503+382295295+384151807+385934804+386171179+384234857+381405435
1938+379353588+378521603+378392894+378431775+378425109+378334983+378128849
1928+377985802+378577428+380349960+382486532+383757750+384337421+385062597
1918+385364741+384016209+381524721+379698710+379432057+380115298+380555312
1908+380086138+379000125+378008594+377455737+377216569+377171693+377522661
1898+378530801+379912590+380867884+381214682+381839490+383123407+383840390
1888+382856978+380937899+379448369+378654221+378175662+377892548+377869980
1878+378075295+378400119+378853391+380030052+383085048+388261608+393191366
1868+394124613+390427788+385407979+382037022+380754780+380576391+380580711
1858+380391410+380060329+379848162+379981078+380600785+381849285+383956957
1848+387398451+392342696+396954668+397534898+393336014+388297137+385688411
1838+385404888+385756043+386048504+387480234+391366397+396557594+399734334
1828+399661824+398347071+396837430+394290786+391049766+388923138+388607810
1818+389113928+389490594+390125793+391994670+394949187+397316325+397642341
1808+396401960+395324959+395885786+398636888+402789852+406227808+407155878
1798+406243673+406196041+409203479+414712983+418617767+416942921+411615977
1788+407600771+406951680+408565636+410892217+413335551+415323528+416194357
1778+416719990+419097034+424949908+433347825+439905802+440403727+436101981
1768+430804384+426863252+425968551+428882326+433520144+436356158+437060962
1758+437742155+438791932+440100503+443556707+450719084+459381568+464702441
1748+464945668+462843322+461370104+461872014+464484538+468038056+470706257
1738+473091457+478598614+488264955+496116532+495510159+489908667+484918429
1728+482003239+481591826+483985554+488438019+494654971+504331330+518867432
1718+534866250+543591748+541623435+535579471+531773118+532242255+537138272
1708+545975458+556805610+566546585+574992171+585599431+599465661+611210775
1698+616289203+616438692+613006360+608160509+606838195+611310919+619828718
1688+630735105+645490451+664013195+677085203+676600238+670226125+667291084
1678+670836967+679936597+690377311+698097200+704293148+711324880+716475818
1668+716373700+714997609+718021434+725085344+730819342+732156031+732702817
1658+737411246+748652066+766495442+785060716+790716357+785622847+784333827
1648+788947587+791394012+785327592+776081080+770863181+771670066+778291242
1638+789185116+798338300+796071903+783302374+771741719+766856913+766711073
1628+767507158+767573597+767451071+766083322+761318584+755425711+753333979
1618+755360315+755206580+747964207+738220514+731745475+729173470+728219554
1608+726720788+724331938+721865402+719639002+717219242+714485011+712163718
1598+711010483+710796863+710497289+709493916+708117229+706829550+705535466
1588+703972271+702327814+701177037+700927740+701713620+704083625+709144660
1578+716643928+722105390+720053133+714102014+712166400+715562198+719006559
1568+717938534+714630627+712994959+714897131+722929182+740429038+763063668
1558+770456722+757313060+741893020+732321609+728308413+728001465+729201103
1548+731325758+736403702+746414121+760905347+777308427+789349949+786987095
1538+773392060+763476756+762707188+766614170+768056104+766497081+767437515
1528+773478834+782439403+791690533+801065828+809440655+813168130+812227770
1518+810331185+808021810+804213371+801020616+802246175+809895230+823536818
1508+838679033+843208327+830734127+814881335+806322459+805497102+809739857
1498+814876196+815951148+812488762+810155179+813559618+821423112+827110558
1488+824980540+817209033+809629397+805429024+804664222+806268011+809919289
1478+816108012+824755449+834352781+841351517+840808455+832817891+825035286
1468+823606460+828063505+832673392+832472359+830475519+833532936+844222352
1458+857254884+860371143+850681675+839459848+833709538+833528914+836228809
1448+837859486+835955527+831932351+828751588+827919751+830008058+835767902
1438+844463903+851150849+850627897+845713968+842472947+842338727+842962977
1428+842889387+843359977+845323448+847890016+850661117+854724887+859407321
1418+860623867+856438465+850090049+844913489+841736376+839964328+839162881
1408+839717563+841590015+843042228+842678970+842366659+844982610+850210936
1398+854783432+856366961+854968748+851484314+847901040+846859233+848933685
1388+851339368+850710724+847959733+847310308+850546933+855532219+859785700
1378+863612015+868618081+874189853+877487407+877606805+877082884+878028533
1368+879993717+881991749+884113052+886229067+886893613+885020118+881654039
1358+878598037+876310933+874200504+872314645+871448844+871623583+871912581
1348+871762496+871216901+870329052+869645960+870358920+872711421+875015582
1338+875379660+873929532+872185714+871069125+870432734+869823976+869156153
1328+868844140+869460271+871050876+872897855+874377627+875674542+877104038
1318+878356858+879088737+879596122+880177395+880426097+879907763+879188769
1308+879473372+881331747+884176960+886845794+888362213+888319459+886978525
1298+884998592+883020894+881450698+880291430+879010231+876931682+873933405
1288+870453217+866852514+863222240+859678219+856321004+853056894+849851104
1278+846982131+844850177+843709679+843515723+843759956+843796229+843718543
1268+844310913+845706221+846905115+847152849+847020714+847573906+849095688
1258+850909149+852016949+851969502+851439847+851714246+853383804+855847212
1248+858196361+860098309+861653534+862990297+864260993+865572954+866834190
1238+868060792+869616613+871608835+873425797+874609347+875861646+878329671
1228+881989217+885388441+887152370+887399210+887400476+888237750+890234665
1218+893168141+896293041+898689785+900415802+902563472+905592660+908636968
1208+911022689+913196578+915364731+916865881+917554262+918275043+919881736
1198+922679726+926343592+929983771+932955681+935421547+937475963+938709343
1188+939350054+940620303+943259046+946588405+949389150+950976925+951343684
1178+951037406+951050291+952173137+954252133+956394217+957952496+959198016
1168+961312914+965450423+971054000+975769355+977776028+977439286+976349064
1158+975936572+976908736+978728156+980216047+981370474+983308472+986156813
1148+988745428+990557697+992236491+993965040+995086545+995569425+996576522
1138+998840983+1001247783+1002081333+1001190952+999927779+999521841+1000297145
1128+1001873448+1003658829+1005498061+1007795742+1010862693+1014346308
1120+1017092755+1018055385+1018005853+1019217707+1022540064+1026125573
1111+1027985958+1028365454+1028886693+1030479160+1032363753+1032757475
1103+1030895227+1028078691+1026113432+1025643587+1026685990+1029045939
1094+1031578766+1033004910+1033523021+1034111072+1034874979+1035533790
1085+1036872937+1039900337+1043795177+1046747870+1048704042+1051237316
1077+1054605704+1056624219+1055281422+1051715503+1049190199+1049816981
1068+1053358023+1058048650+1061925167+1063760601+1064377626+1066062230
1060+1069385108+1072567360+1073741823+1073038248+1071788854+1070188417
1051+1067519880+1064230371+1061877274+1061082903+1061169379+1061894107
1043+1063827190+1066276520+1066618923+1063466389+1059507195+1058685115
1034+1061306504+1063931542+1063874189+1061849939+1059899427+1058855833
1025+1057913164+1056015610+1053527697+1052305118+1053986072+1058327071
1017+1063204355+1065785298+1064399077+1060311770+1057007588+1056997607
1008+1059565367+1061685627+1060971922+1057543425+1053351468+1050392668
1000+1049407767+1049375515+1048400520+1045576014+1041805413+1038652209
991+1036671755+1035302815+1034111221+1033273574+1032699899+1031840577
983+1030915859+1030974925+1031674776+1030875340+1027634468+1023442288
974+1019873762+1016895968+1013889051+1011066630+1009123865+1007774142
965+1005674514+1002088782+997496771+992760486+988488906+984945778+981987201
955+979248054+976747330+974754660+972862545+970082431+966438453+963674279
945+963287260+964322736+964522949+963390644+961949007+959952762+956371276
935+952378042+950801143+952483735+955137524+955978075+954465008+952072137
925+950285043+949642247+950299940+952464220+955855326+959115563+960431620
915+959300208+957061593+954975968+952722903+949760602+946985255+945810047
905+946425732+947585819+947856792+947287883+947508132+949339320+951089544
895+950634745+948329690+946054876+944663441+944024071+944204397+944981264
885+945104386+943461121+940398863+937251171+934934794+933340018+932159820
875+931970482+933614492+936466259+938433008+938211120+936666472+935326505
865+934493253+933538667+932567545+932587135+933751021+934878112+935262896
855+935679559+936944893+938641563+939850139+940211238+939878890+939161386
845+938611322+938762152+939148798+938409694+935815493+932642476+931471365
835+933584102+937570856+940945128+942562324+942838287+942321517+941208578
825+939980859+939516079+940210195+941272336+941546139+941041361+940700523
815+940934253+941398810+941817707+942144394+942454694+943142702+944544490
805+946398098+947977083+948726392+948515826+947453834+946272220+946180530
795+947362442+948395832+947970678+946525242+945340798+944909685+944936127
785+945256632+945774667+946152450+946567400+947887628+950025839+950991300
776+948915879+944677668+941295277+940849118+942549885+943871081+943408536
766+942133817+941548150+941724975+942186477+943428348+945828892+948111304
756+948876701+949027233+950262028+951905591+951971881+950426786+948883851
746+948169848+948211261+949321966+952016646+956116317+960637568+964066213
736+965124556+964333685+963786154+963977205+962287685+956365317+947959878
726+941397171+939232220+940871538+943936478+945524178+943969921+941162696
716+941318814+946225072+952580490+955548675+954550367+952806102+952160326
706+951463603+949247258+945889894+943164675+941972038+940800033+937395670
696+931955511+927287080+925461553+925330908+923737100+918860338+911972434
686+906101013+903406705+903464654+904143501+904154450+903720059+903121953
676+902354247+901866452+901270952+897708757+888608159+878467318+877528596
666+885445347+892554915+893271748+888479674+882616744+878840110+876883789
656+875377276+874471105+875162912+876837534+877382161+875785746+873071700
646+870879414+869991491+869808409+868883170+866717996+864761451+864279242
636+864531817+863949799+862257077+860399149+859284571+860007811+863776326
626+869253206+871135639+865238148+854902085+846654625+841926831+837830586
616+834293567+834773988+839730970+845240324+848153466+848674109+847197465
606+842753454+835940407+829664165+825678455+823549107
##END=
