##TITLE=<SNM>
##JCAMP-DX=4.24
##DATA TYPE=INFRARED SPECTRUM
##DATE=3/5/2025
##SAMPLING PROCEDURE=Instrument type and / or accessory
##ORIGIN=Admin
##XUNITS=1/CM
##YUNITS=ABSORBANCE
##RESOLUTION=4
##FIRSTX=4497.3318
##LASTX=599.83466
##DELTAX=-1.4281778
##MAXY=1.7208046
##MINY=0.18149912
##XFACTOR=1
##YFACTOR=1.6026241e-09
##NPOINTS=2730
##FIRSTY=0.20046844
##XYDATA=(X++(Y..Y))
4497+125087617+125161564+125548267+125754329+125598383+125276729+124882597
4487+124258870+123589546+123570030+124572668+126075909+127187314+127448243
4477+127014902+126346628+125857527+125708815+125817360+126004593+126058828
4467+125761804+125135697+124646038+124787944+125434032+125970469+126066136
4457+125932292+125872143+125883301+125693557+125110323+124290325+123561103
4447+123093108+122936772+123069222+123192160+122930059+122366137+121945050
4437+121854804+121851587+121589142+120950102+120204385+119812503+119928263
4427+120216036+120201038+119671016+118783366+117884475+117214240+116795533
4417+116625427+116822879+117436954+118256180+119008275+119565456+119829286
4407+119733015+119430143+119130469+118791409+118351633+118065860+118130862
4397+118284548+118243117+118161267+118273298+118431568+118274256+117654415
4387+116783279+115977972+115290433+114565107+113911561+113751023+114217009
4377+114916570+115448368+115754225+115864629+115734448+115430023+115162130
4367+115080717+115185803+115368973+115447922+115290702+114976756+114722484
4357+114627905+114611216+114618877+114725618+114890434+114816301+114320412
4347+113728047+113611999+114216033+115315593+116443521+117056165+116754576
4337+115633900+114305359+113433720+113282470+113629879+114027582+114254238
4327+114518598+115013195+115413278+115222985+114548994+114055410+114122319
4317+114556804+115138141+115753184+115949920+115201711+113898991+113251210
4307+113803649+114846696+115663421+116437264+117424495+118163861+118112210
4297+117364737+116341141+115347457+114669997+114648891+115476216+117058080
4287+118976076+120499178+120917791+120147128+118891074+118001639+117716628
4277+117641798+117376090+116983975+116880377+117338210+118106065+118652097
4267+118848601+119097805+119600212+119925753+119699449+119334039+119540798
4257+120351693+121193104+121749179+122142781+122414291+122503831+122610237
4247+122895136+123073369+122868135+122474031+122176784+121985682+121837510
4237+121731457+121641918+121611327+121773000+122077184+122303376+122477917
4227+122914913+123708644+124417503+124413486+123610494+122722175+122510181
4217+122872970+123174577+123285744+123581345+124065993+124308540+124178861
4207+124034389+124279512+125074907+126256224+127391814+128144820+128485572
4197+128395437+127709489+126524257+125458644+125196273+125832934+126795377
4187+127377421+127308829+126799319+126138084+125493390+125065990+125083870
4177+125560875+126270841+126984293+127614984+128176052+128667989+129003916
4167+129089522+128973651+128766631+128415177+127828112+127250708+127204515
4157+127910390+128974088+129795471+130150784+130248115+130358677+130553712
4147+130692679+130566998+130148329+129661320+129300949+129053288+128950173
4137+129222976+129943365+130748411+131199010+131289795+131405713+131834471
4127+132468211+132952022+132990618+132513855+131702848+130933143+130575599
4117+130771805+131447108+132419843+133344127+133749789+133450273+132814022
4107+132385348+132325646+132466445+132750507+133247317+133846171+134286207
4097+134441372+134398936+134282098+134042303+133480910+132643999+132098645
4087+132431112+133538167+134808177+135820504+136451781+136627763+136444426
4077+136248954+136228824+136172971+135905971+135672750+135790155+136133911
4067+136307290+136166398+135886733+135686873+135735725+136091549+136503282
4057+136528145+135997091+135178051+134513301+134376686+134865983+135600727
4047+136029429+136136793+136437424+137070998+137430327+137013415+136184399
4037+135687803+135743219+136010378+136240363+136541664+136984657+137357069
4027+137528867+137725613+138157903+138665610+139021992+139319174+139786992
4017+140415061+140882257+140808515+140138456+139280123+138719157+138602058
4007+138847683+139387217+140093686+140754828+141276928+141693812+141904588
3997+141678173+140973358+140074746+139389104+139171690+139420503+140013138
3987+140919477+142133030+143360976+144066349+144023336+143640836+143556597
3977+143997535+144609862+144863502+144586812+144062639+143614356+143312925
3967+143201470+143501711+144332383+145365741+145999305+145885303+145218991
3957+144535153+144294940+144632503+145389051+146284865+147034049+147451314
3947+147635210+147957050+148604338+149165405+148960153+147884395+146677248
3937+146306482+147236345+149104467+150867409+151401643+150469056+149114769
3927+148691218+149528835+150616001+150783346+150198987+150062855+150935963
3917+151864134+151376845+149277186+146852097+145477373+145676433+147412914
3907+150678214+155234911+159875354+162816136+163403806+162321558+160074814
3897+156958170+154130553+153106762+154071966+155196045+154805558+154189753
3887+155372149+157660185+158900963+159262078+160133503+160508974+158802442
3878+156603415+156568212+158951507+162291117+165395228+167164130+166643425
3868+165012188+164355472+164563189+163845255+161646674+159348270+158548904
3858+160392768+165665947+173390427+178111977+174870442+167708992+162081689
3848+159687330+160274088+162836629+166254472+170041928+174134507+177512610
3838+178214608+176071833+173266206+171124176+169195031+167186892+165932167
3828+166097727+167516449+170341937+174996169+179803855+181234590+179413507
3818+177796589+176893644+174586017+170925682+168347670+168680593+171996753
3808+176119104+178355974+179487389+182015118+185069373+185443208+183442730
3798+181682734+180240748+178073037+175885223+175194662+176367490+178700222
3788+181473325+184298497+186871786+189259116+192115975+195697518+199089606
3778+201446178+203337609+205958932+210162082+216121843+222797809+228488430
3768+232785843+236593960+240674897+245816027+252977124+262065022+271479966
3758+279732422+287347465+296416339+308799830+324109115+338369645+348419567
3748+357115518+368235786+380440681+388282371+391592339+396112829+405568127
3738+420011678+436514284+450896170+460910872+467008559+470745118+473861056
3728+477461678+481031543+483266182+484312093+485506548+487344535+489711762
3718+493083208+498349954+506410779+517463692+528972429+536452800+539413759
3708+541701508+546518343+554926763+565768612+575404254+580527997+581971972
3698+583131170+586602923+593085137+601760855+610782868+617117876+618050240
3688+615164371+612442593+610642542+609037005+608374059+609676743+612892169
3678+617290558+620625296+619900389+616935636+616499672+619631045+622503115
3668+621476991+617563621+613945481+613032941+615771343+622024567+630456865
3658+637773182+640910244+642087889+647020131+658082565+671401730+677679203
3648+672443327+663271357+657782724+656791932+658056531+660249217+663391784
3638+666967116+669272345+669334530+668916716+671259211+677292333+683006795
3628+683068087+678891585+676042015+678015938+685283757+694533310+699826685
3618+699643775+698957956+700935450+703787474+705730974+707913544+710535647
3608+710919989+708069527+704643036+703605531+705901462+710018382+712936385
3598+713094004+712531439+714443773+719026783+723547161+725362944+723373624
3588+718901595+715381530+714717282+715253292+714880703+714120352+714504693
3578+715492585+715113004+712984139+710941634+711185093+714554158+719329227
3568+721630737+719291589+715003660+712608352+712679315+713109774+712404615
3558+711756137+712919425+715105789+716110045+715946847+717084026+720969762
3548+726102171+729573068+730161295+729445128+729056249+728638212+727522901
3538+726251533+725026060+723068576+720683831+719385089+719364039+719103770
3528+717801904+716428779+716035512+716632219+718152773+721120612+725505092
3518+729479567+730242894+726931848+722409684+720770116+722556146+724130033
3508+722864913+720613092+720679070+723347143+726220961+727701720+728326023
3498+729086970+729562059+728354735+725596435+723835324+724892615+727055473
3488+727377258+726088484+725562665+725759931+724630412+722366988+721196261
3478+721636910+722605388+723968992+726136461+728305121+729350809+729528884
3468+729751143+730296004+731205123+732467639+733559966+733192807+730304558
3458+726317288+724520324+725879689+727611939+727121080+724952643+722453273
3448+719941183+718144888+718097506+718900702+718248282+715684569+713483850
3438+713865364+716806500+720770562+724228591+726060069+725839521+724055277
3428+721487771+719238925+718657393+719966250+721652085+721703410+719520840
3418+716723116+715894703+718061653+721582610+724395285+726451700+728667445
3408+730893083+732245009+732117589+730169328+726649115+723161630+721653275
3398+722264635+723619388+725055590+726960708+728803344+728716687+725869647
3388+722025045+720190443+722206765+727157826+731941300+734056626+733644391
3378+732284506+730714562+728606301+726104179+724404732+724365978+725447221
3368+726806139+728501048+730173717+729953020+727066854+723799025+722673895
3358+723674506+725458899+727565821+730098292+732257877+732740926+731410348
3348+729777623+729521817+730672907+731708553+731431547+730214405+729162469
3338+728811080+729368736+731223050+733967440+735492531+733752099+729392390
3328+725452502+724576261+726808445+729988055+732214437+733563908+734907726
3318+735935413+735562155+733903619+732425761+732040899+733031097+735612141
3308+738680026+739682200+737377120+733632044+730952144+730087506+730774292
3298+732446663+733625349+732602720+729482692+726663471+726658859+729744746
3288+733961489+737278040+739268030+740179902+739561847+737252973+734786108
3278+734104306+734982110+735057312+733100943+730747886+730099185+731263812
3268+733116341+734672227+734827168+732726867+729225770+726427525+725560582
3258+726484652+728582350+730630211+730997220+729781491+729077597+729642022
3248+729853495+729313245+730147460+732676955+733430984+730274953+726156768
3238+724933898+726737259+729266160+731047652+731743290+731165848+729496453
3228+727473213+725661595+724260055+723681052+724327150+725551135+725984198
3218+725500108+725418658+726043035+725986876+724551045+722786215+721809704
3208+721750123+722419502+724028127+726874572+730033132+731138475+729045166
3198+725768113+723948610+723819852+723840084+722754527+720491995+718271266
3188+717650385+718723371+719740421+719048577+716755994+714186479+712442997
3178+711426766+710207094+708638265+707793712+708484588+710242055+711864514
3168+712343472+711707490+711187696+711684877+712458023+712030836+709744278
3158+706111001+702730034+701672370+703558149+706597769+708620934+709342680
3148+709419072+708828837+707136382+703944424+699583301+695869243+694811951
3138+696310413+698320710+699354422+699440335+698718589+696926832+694533384
3128+692877824+692823375+693988523+695264279+695704185+695040533+693641225
3118+692061461+690595505+689586861+689818715+691424290+692829846+692296068
3108+690019105+687389786+685182595+683522646+682559897+682300000+682441031
3098+682818752+683550912+684498934+684782039+683288189+680148299+677347526
3088+677138730+679773330+683041755+684211440+682424964+679090115+676080695
3078+674178478+673400497+673737084+674776003+675311343+674337659+672250598
3068+670297502+669037292+668045756+666972323+666075403+665593098+665184359
3058+664430405+663743991+664057296+665390031+666542831+666438470+665097479
3048+663279316+661693155+660394116+658880183+657224250+656519538+657256607
3038+658065457+657384176+655615031+654288842+653891112+653564121+652497680
3028+650864435+649398255+648459680+647733620+646889141+646315121+646665245
3018+647521701+647377545+645564216+643220903+641758369+641379383+641487388
3008+641529490+641185762+640428609+639469876+638456323+637424545+636498094
2998+635646251+634521493+633132004+632190677+632156088+632352982+631686131
2988+629911631+627676844+625698383+624418610+623938053+623833023+623587743
2978+623371212+623696641+624303687+624094073+622351149+619612560+617087565
2968+615581776+615122159+615219527+615327272+615250434+615137630+614994888
2958+614487962+613430820+612118615+610984968+610230865+609711703+608941385
2948+607566251+605893211+604527040+603712649+603237523+602657403+601730730
2938+600873977+600708882+600959370+600504550+598741505+596287137+594315408
2928+593614824+593994814+594316561+593446159+591384686+589207323+587865588
2918+587254153+586627767+585759708+585061802+584675378+584275267+583695668
2908+583111718+582764383+582730725+582534537+581217497+578650066+576206930
2898+575093702+574781141+574033323+572616498+571064814+569584428+568080313
2888+566727383+565856274+565491793+565222152+564502935+563276532+562196553
2878+561856619+561974294+561668168+560364257+558417112+556969714+556871193
2868+557595431+557770754+556865503+555584874+554559195+553593099+552361972
2858+551099047+550244414+549738344+549069968+547943574+546486321+544951894
2848+543702172+543113721+543021076+542796921+542209103+541481778+540578312
2838+539256586+537771699+536755505+536403558+536280936+535817079+534625301
2828+532562713+529923278+527487171+525974092+525355703+524995164+524533873
2818+524248314+524375101+524520596+524053428+522795598+521005923+518966282
2808+517004967+515637086+515149091+515165976+514972429+514146695+512779260
2798+511333759+510342930+509962345+509816367+509409897+508567946+507445160
2788+506290983+505231237+504198232+503072284+501886830+500836419+500043190
2778+499363173+498513933+497422276+496317193+495418637+494698192+493972095
2768+493053864+491859037+490482267+489088760+487740108+486441069+485231662
2758+484127100+483154309+482472916+482174451+481938803+481223602+479873387
2748+478285628+476908784+475825607+474901536+474046309+473153480+472034152
2738+470621566+469059246+467485694+465985930+464808509+464238766+464092676
2728+463679549+462497813+460751765+459010179+457591680+456460563+455516260
2718+454692311+453850212+452862543+451825708+450987030+450364549+449626625
2708+448526674+447258393+446167926+445357515+444770701+444365197+443983646
2698+443294480+442082693+440509922+439003054+437887595+437128954+436497361
2688+435959455+435657122+435460191+434914809+433761562+432236211+430781226
2678+429641294+428764830+427985287+427230887+426529447+425876060+425209879
2668+424515097+423862974+423308666+422765218+422083304+421323994+420744656
2658+420341942+419698857+418539548+417140760+415961033+415140951+414514640
2648+413877282+413143821+412368369+411617279+410849340+410038371+409298884
2638+408699016+408101193+407383650+406671202+406178632+405919516+405691902
2628+405287626+404620366+403715821+402709260+401805831+401098664+400481985
2618+399837784+399186814+398578392+398013038+397519948+397100795+396611089
2608+395920807+395139963+394510304+394159733+394019260+393825453+393265157
2598+392335582+391466444+391080281+391099807+391049374+390611291+389940312
2588+389384776+389026023+388664183+388170721+387598189+386981324+386307667
2578+385697348+385378948+385437823+385701290+385879402+385767715+385321077
2568+384613613+383825739+383226652+383005286+383114667+383377689+383621742
2558+383619919+383174807+382422786+381790115+381543421+381605346+381763337
2548+381788181+381459628+380788202+380107553+379714807+379589991+379624356
2538+379842635+380191756+380381546+380163936+379592631+378903726+378324536
2528+378017368+377979135+377998623+377918252+377865588+378003607+378160111
2518+377972217+377369262+376696870+376350129+376406140+376608130+376637697
2508+376399855+376052631+375750596+375433944+374968525+374423366+374017007
2498+373793446+373570927+373277297+373091189+373095205+373043211+372742738
2488+372468373+372603938+372955847+372862644+372065213+371077805+370542539
2478+370547448+370750144+370886192+370938968+370999256+371128237+371246545
2468+371125522+370650953+370067784+369766158+369858468+370100811+370159425
2458+369886920+369418153+369003464+368714371+368413042+368037516+367722463
2448+367584630+367580687+367617173+367631306+367566331+367408303+367207467
2438+366980931+366683321+366307125+365883137+365394361+364848570+364382072
2428+364122621+364034216+364013835+364007178+363954663+363803292+363613464
2418+363490173+363421814+363345720+363333446+363545403+363963217+364279348
2408+364167140+363658392+363148826+363017761+363331401+363858261+364242640
2398+364247363+363950795+363642771+363493260+363436356+363373948+363300159
2388+363149012+362680914+361647351+359987179+357774186+355042961+351754193
2378+347914835+343705679+339454309+335388676+331441499+327483611+323732808
2368+320711560+318771482+317721071+316938628+316075255+315686488+316796666
2358+319899438+324809216+331326242+339420762+348509497+356972478+362915372
2348+365246151+364200799+361408319+358784281+356682306+354115470+350628617
2338+346792086+343219246+339882128+336438938+332928878+329933405+328069607
2328+327462226+327691774+328144437+328484631+328877452+329708914+331107665
2318+332823179+334524150+336087884+337553134+338902158+340059868+341102245
2308+342239834+343501309+344611711+345307646+345656171+345950210+346364156
2298+346837721+347260741+347624924+347962813+348271655+348578860+348972424
2288+349451382+349822371+349881469+349671297+349445505+349388602+349443832
2278+349402028+349124353+348690138+348323351+348160562+348139177+348121288
2268+348032362+347855403+347604357+347366775+347301876+347519448+347951172
2258+348367758+348547990+348448056+348220293+348068512+348066132+348128503
2248+348186894+348303602+348528837+348753550+348822169+348713308+348559334
2238+348553830+348794536+349167570+349501145+349807978+350177033+350524889
2228+350697236+350698947+350654317+350679868+350841466+351062461+351137923
2218+351023223+350977775+351262776+351837131+352456934+352954041+353330869
2208+353668535+354038036+354469016+354913236+355264253+355525229+355906223
2198+356592042+357465865+358215245+358662961+358896712+359130352+359489514
2188+359931280+360396959+360953016+361611944+362146578+362362663+362449543
2178+362769914+363414041+364208646+365018797+365825192+366649848+367551566
2168+368558165+369573541+370531121+371577329+372890315+374452301+376255774
2158+378544638+381551045+385118047+388810496+392305382+395525234+398498429
2148+401229282+403700350+405975081+408245981+410677588+413223969+415729216
2138+418187006+420780248+423684825+426907280+430290962+433669438+437023478
2128+440437212+443940317+447487755+450970926+454085116+456346495+457428705
2118+457370165+456402990+454766360+452687184+450332973+447752896+444967892
2108+442091954+439290288+436662828+434234234+432007294+429924139+427780732
2098+425278200+422192834+418502765+414413589+410264944+406321114+402623830
2088+399080669+395656075+392419227+389443911+386729981+384255046+382084303
2078+380368789+379195199+378444963+377823412+377060569+376123817+375215367
2068+374536057+374081088+373673763+373144336+372484886+371854223+371399738
2058+371096513+370841525+370647271+370595277+370634440+370588583+370391094
2048+370203051+370249616+370601897+371163421+371817440+372544877+373446074
2038+374689176+376409227+378632894+381258568+384061201+386766838+389181076
2028+391157417+392453889+392858872+392491825+391724259+390766790+389507770
2018+387740225+385451286+382912901+380489626+378348302+376431282+374687093
2008+373159659+371845632+370632506+369402719+368115247+366808881+365566597
1998+364475126+363649652+363241545+363257947+363396896+363242624+362628771
1988+361688225+360660873+359768602+359146791+358792575+358590586+358387741
1978+358092326+357746181+357432839+357139841+356873212+356841897+357238846
1968+357821866+358015636+357567325+356836653+356302242+356066185+355954684
1958+355831765+355638292+355323760+354904570+354468458+354062434+353701152
1948+353527986+353844006+354779568+355855381+356159351+355340385+354094568
1938+353268759+352993130+352915064+352823906+352787533+352877686+353004808
1928+353120438+353457136+354215144+355076137+355594815+355951746+356486379
1918+356749921+356042977+354674948+353656336+353513407+353981430+354420109
1908+354360081+353868553+353385802+353199693+353225579+353275565+353392719
1898+353787549+354370086+354639950+354445883+354394446+354855477+355190055
1888+354739438+353899013+353364454+353170275+353010647+352807505+352657696
1878+352618198+352669969+352829039+353421878+355054082+357814168+360423514
1868+360931742+359013309+356397453+354672381+354035172+353883913+353779776
1858+353733174+353861449+354056223+354117292+354137785+354478351+355439278
1848+357268525+360015445+362643164+363116431+361037925+358539224+357348525
1838+357343206+357626014+357943037+359020747+361483186+364505475+366193504
1828+365979167+365080201+364187856+362963833+361518109+360579274+360445420
1818+360795508+361306525+362083315+363435761+365217774+366597408+366879657
1808+366368492+365997837+366545004+368309388+370876150+373091486+373972414
1798+373896989+374381153+376658339+380375446+383166959+382861093+380656283
1788+379366319+380031682+381870338+384011067+386283790+388457433+390030688
1778+391217407+393186421+396940684+402063943+406302816+407550716+406401263
1768+404674703+403570029+404029126+406420008+409573584+411774340+413082194
1758+414585676+416254663+417827546+420291621+424595989+429713670+433168798
1748+433966750+433457816+433322512+434429678+436801517+439537353+441484164
1738+443190045+446812499+452883185+457917258+458322836+456073469+454177575
1728+453377168+453934191+455998788+459013750+462810411+468529410+476945269
1718+485903051+490751834+490142705+487564339+486071753+486719376+489775695
1708+495028754+501195878+506524177+511243606+517402363+525175731+531376440
1698+534273652+535351325+534863144+533280703+533241949+536293953+541649141
1688+548549988+557951655+569740373+578542061+579613411+577137843+576626789
1678+579990165+586613931+594072210+600203147+605667605+611805533+617368215
1668+620380090+622413148+626523002+633032330+639280644+643097203+645817939
1658+650333929+658798137+672193025+687393729+694739204+693670309+694106867
1648+699030555+704246124+705023956+702976690+702188371+704151806+708887525
1638+716100003+723738625+726797585+723294405+718157980+715615615+715942607
1628+717511064+719065388+720232693+719988788+717195379+713411177+711438221
1618+711360341+710121107+705773224+700436483+696195862+692899693+689634764
1608+686006694+682469297+679802489+678273306+677384866+676464887+675345113
1598+674390174+673968046+673942607+673701678+672733200+671109699+669357366
1588+667929940+666864764+665878583+664724072+663637994+663604299+665766338
1578+669998926+673743332+674132880+672937235+673887711+677274109+680456248
1568+681949949+683537449+686936342+692385180+700750532+713956038+730616152
1558+741231763+742172123+742018372+745536726+752442370+761253579+770348562
1548+778661399+786814980+796259864+807384484+819387501+829423142+831440803
1538+825376588+819427520+817733577+818548750+818687401+818105348+819291174
1528+823304330+829013064+835133066+841728530+848497457+853383134+855430251
1518+856228910+856808285+857082390+857707585+860109736+865309388+873164095
1508+881121080+883417457+878209028+872379643+870581712+872487277+876139150
1498+879196324+879994165+879054772+878595377+880092724+883044199+885214718
1488+884617044+881898167+879384738+878727260+879938452+881751557+883202562
1478+884863404+887912098+892326554+896219505+897288103+895859860+894686009
1468+895425533+897669841+899826525+900609266+900845360+902625365+906555433
1458+910079738+909224771+904917576+901668268+901064346+902443571+904509060
1448+905492266+904251172+901393941+898242671+895784137+895142725+897461566
1438+902404817+906973322+907969470+906445048+905288231+905077725+904825787
1428+904513151+905064187+906364044+907473850+908637436+910935673+913487781
1418+913333435+909883514+905838671+903214187+902008128+901254174+900364171
1408+899746191+899911248+900503790+900880469+901040618+901132259+900902561
1398+900424869+900152624+899553983+897356611+893859456+891057046+890004069
1388+889394196+887150855+883727860+882007214+883503147+886929711+890434453
1378+893810511+897831700+902325449+905962966+907825239+908221482+907888317
1368+907624329+908515595+911161428+914702469+917477283+918765015+919145191
1358+919369755+919908889+920954651+922121436+922716432+922675521+922782782
1348+923808386+925728753+927956399+930265570+933115883+936665033+939764308
1338+940840716+939999436+939115458+939709264+941547214+943176442+943528650
1328+942766439+941666005+940868238+940764101+941261134+941596307+941169195
1318+940525180+940848080+942609787+945019822+946664002+946826456+946227071
1308+946047062+946456322+946699260+946338126+945703335+945270124+945100752
1298+944930785+944633621+944252702+943448315+941571686+938614781+935526068
1288+933248584+931814390+930622761+929262356+927735405+926022123+923848628
1278+921041903+917848309+914863807+912644864+911196611+910088292+909069829
1268+908048911+906546582+904085296+901082868+898397835+896049315+893182712
1258+889330375+885053752+881310982+878613899+876823555+875737775+875540434
1248+876243436+877089924+877170184+876527508+876092214+876541194+877716458
1238+879133693+880502876+881531083+881711538+880819528+879528150+879115543
1228+880435112+883349693+887091347+890733328+893342340+894490156+894943823
1218+895961989+897683453+899217917+900336426+901835557+904128662+906601254
1208+908592657+910306981+912379239+914841715+916991482+918360516+919432312
1198+921082145+923524314+926059166+927829054+928800953+929777464+931395460
1188+933614701+936154983+938787277+941369660+944075743+947039789+949508662
1178+950374489+949758368+948879672+948500984+948675638+949611386+951670181
1168+954824947+958754644+962889714+966038530+967152725+967059819+968068538
1158+971136498+974658869+976784312+977689638+978598013+979912672+981092474
1148+981390530+980524181+979493073+980345883+984050123+989219277+993687512
1138+996408621+997371668+997108126+996950581+998128598+999894544+1000404445
1128+999664549+999289952+999648556+999895436+1000483068+1002882764+1006811345
1118+1010035363+1011125011+1011101655+1011963466+1014116133+1015856417
1110+1015905138+1015755106+1017662307+1020829346+1022125782+1020629403
1101+1018924377+1019853282+1023829245+1029061402+1033400210+1035629195
1093+1035346239+1033212986+1030761221+1028524054+1025956250+1023627293
1084+1023826344+1027515707+1032187828+1034692406+1035019248+1035464956
1075+1037174891+1039456837+1041210064+1041616869+1040685658+1039532188
1067+1040051685+1043580453+1048857761+1052383033+1052282615+1050709546
1058+1051622235+1057163680+1065736042+1072671886+1073741823+1068815160
1050+1061203614+1054350261+1050553191+1051315179+1056696252+1063932607
1041+1068676509+1068609489+1065151162+1062095773+1062324950+1065061530
1033+1066808062+1065706438+1063179248+1060827232+1058556889+1056635406
1024+1056992895+1060395359+1063812031+1062924037+1057260825+1050883158
1015+1047819288+1048721713+1051146923+1052096804+1050690875+1048612815
1007+1048293188+1050715794+1054503864+1056860864+1056012814+1053009344
998+1050157841+1048288055+1046621858+1044647860+1042659879+1040664533
990+1038394562+1035907093+1033362274+1030681333+1028302539+1027401156
981+1028040857+1028189624+1026108812+1022630699+1019656090+1017441833
973+1015029938+1012099067+1008875347+1005366737+1001570485+997864610+994692661
963+991933914+988783611+984378007+978648519+972491399+967163585+963641362
953+962138289+961627718+960379930+957662987+954625375+952937979+952639625
943+952212067+951160801+950920764+952249854+953487824+953005742+951814932
933+951701868+952228952+951597954+949534399+947412452+946305323+946547145
923+948137396+950357902+951874662+951984824+951039183+949460833+947318207
913+944813109+942537114+941337154+941681774+942726867+942806532+941392421
903+939427945+937507578+935254567+932743964+931133481+931465902+933547384
893+936008521+937319387+937028621+935915095+934951825+934589055+934601774
883+934084509+932318415+929897296+928201048+927923298+928769712+930048444
873+930858037+930253743+927918315+924669899+922206233+921966717+923963699
863+926670749+928167129+927712792+926235232+925239307+925246671+925381604
853+924491973+922598905+921275171+922086550+924539802+926567133+927281441
843+927789854+928947266+929882196+929085545+926327766+923228192+921669480
833+922023844+923345421+924618351+925014073+924119608+923079202+923862017
823+926577249+929235578+930637564+931628133+933036442+934313760+934876846
813+935400657+936843033+938987072+940730331+941397851+941222826+940547793
803+939405481+937860529+936119279+934498381+933366185+932909022+933033541
793+933454479+933937006+934825000+936828454+939632649+941368321+940622846
783+938680611+938285930+940394637+943285638+944838474+944750701+943824921
773+942179699+939614053+936940848+935561921+936004281+937611938+939306402
763+940133550+939426755+937387448+935628197+936034927+938412531+940188445
753+939471682+936973502+934291520+932572435+933079882+936674182+941973731
743+945766264+946279066+944916875+943855641+943188790+941688692+939473542
733+938255582+939372454+942599968+945775636+945978852+942503790+937655155
723+934054458+932430734+932565220+934087336+935780609+936794684+938241449
713+940924919+942760488+940995658+936392788+932738534+932706475+935701093
703+938848569+939385695+936670834+932233320+927778250+923665346+919569253
693+915486846+911644104+909136700+910275740+915083612+918579353+915397362
683+906127875+895520223+887338599+882912019+881537108+881842156+882627203
673+881847586+876599437+867063060+861002044+866619733+878596791+887735511
663+891803190+890947479+884635938+875065866+867904936+866534117+867980213
653+866478701+860333185+852769988+847335135+844863659+843991732+843584034
643+844174716+846532906+849378086+850323951+849631958+850400938+854436706
633+859934190+862368401+858244488+849391029+841651543+838434517+837522572
623+833810299+825790013+818624695+818487160+825717712+834873318+841189173
613+844086125+843852485+839686769+831110092+819715162+809004340+801806590
603+799056547+800899034+806552277
##END=
