##TITLE=<SNM>
##JCAMP-DX=4.24
##DATA TYPE=INFRARED SPECTRUM
##DATE=2/5/2025
##SAMPLING PROCEDURE=Instrument type and / or accessory
##ORIGIN=Admin
##XUNITS=1/CM
##YUNITS=ABSORBANCE
##RESOLUTION=4
##FIRSTX=4497.3318
##LASTX=599.83466
##DELTAX=-1.4281778
##MAXY=1.7058301
##MINY=0.22891501
##XFACTOR=1
##YFACTOR=1.5886781e-09
##NPOINTS=2730
##FIRSTY=0.2459296
##XYDATA=(X++(Y..Y))
4497+154801405+154136692+154111235+154532089+155078263+155537647+155738680
4487+155563038+155229162+155309789+156045581+156930264+157448909+157838425
4477+158540638+159318263+159512946+158913045+157923479+157053240+156431767
4467+155758640+154835453+154109256+154273606+155304498+156372638+156789298
4457+156637733+156372553+156114624+155584630+154667643+153703204+153077829
4447+152845290+152946055+153409829+154090478+154639100+155007015+155584104
4437+156617914+157736844+158143149+157231143+155222774+153292678+152719997
4427+153668875+154964188+155199344+153972342+151952230+149967414+148400308
4417+147460153+147464290+148360745+149379782+149808148+149749835+149584276
4407+149260942+148700371+148315160+148533086+149142375+149465089+149053738
4397+148155369+147498882+147567897+148117832+148478299+148265833+147739318
4387+147465772+147637128+147811804+147475573+146686543+145931879+145568364
4377+145707491+146400156+147500645+148455948+148667523+148087245+147208292
4367+146565443+146416908+146688719+146997645+146911953+146362525+145687775
4357+145341556+145620289+146409789+147139427+147290833+147005177+146909590
4347+147293178+147712239+147514930+146649146+145746201+145341527+145289743
4337+145081975+144546822+144091499+144244461+144987025+145722508+146017084
4327+145990070+145793408+145315912+144668194+144310663+144429924+144704184
4317+144855214+144999050+145364329+145983486+146674837+147177190+147340545
4307+147239057+147079173+147017755+147084669+147260227+147617496+148275081
4297+149060003+149419692+148974564+147999058+147119693+146738994+146913520
4287+147451571+147974277+148232788+148374964+148553036+148542625+148190533
4277+147800614+147608070+147425561+147203997+147300156+147791741+148088333
4267+147636987+146721407+146216494+146562038+147238645+147521299+147500701
4257+147815190+148603536+149383552+149857053+150282868+151063026+152166338
4247+152905226+152513205+151214750+150230774+150317029+150881868+151011297
4237+150691556+150441365+150389871+150316607+150130497+149938618+149963662
4227+150440605+151253113+151788509+151500875+150522086+149559917+149291857
4217+149808823+150573523+150985306+150899811+150493375+149945081+149450429
4207+149269656+149569859+150215532+150785164+150958077+150912202+151107485
4197+151665580+152263014+152620564+152782222+152923469+153111605+153287998
4187+153402982+153481808+153485616+153240443+152714960+152239696+152235776
4177+152811739+153712246+154531657+154964985+155003742+154907638+154861294
4167+154722054+154296633+153767605+153547128+153773260+154254293+154823597
4157+155395584+155745246+155668962+155397516+155413968+155750058+155883661
4147+155524497+155078553+155044449+155263979+155080504+154257792+153506439
4137+153723821+154758493+155519169+155468520+155254149+155617758+156491402
4127+157364549+157824881+157594499+156673254+155599796+155081799+155278611
4117+155761641+156134039+156365997+156592167+156959650+157614290+158470985
4107+159101125+159159466+158857237+158756387+159129864+159679002+159852862
4097+159402173+158602374+157928582+157621737+157618830+157792240+158146901
4087+158739560+159455355+160000160+160148995+159966599+159808835+160023102
4077+160559315+161004452+161051350+160727172+160196568+159656060+159353343
4067+159397877+159640565+159913248+160226846+160641293+161086186+161364366
4057+161360051+161237854+161250910+161314898+161115450+160758125+160854191
4047+161700437+162751477+163231862+163048397+162732924+162638078+162616073
4037+162451011+162268559+162448835+163239197+164405269+165277890+165354278
4027+164848211+164415943+164399116+164588002+164668010+164618824+164627078
4017+164772086+164903082+164841608+164608543+164328281+164032899+163781769
4007+163822121+164336104+165146857+165915534+166452966+166721054+166808678
3997+166949185+167262125+167531770+167520852+167311781+167087984+166900111
3987+166809316+166914255+167184500+167496803+167732587+167772338+167698033
3977+167972424+168983713+170425263+171460846+171491442+170616776+169467213
3967+168764549+168960377+170002769+171271510+171958377+171784855+171166289
3957+170584023+170183664+170081557+170695546+172449643+174960730+176808342
3947+177019758+176536315+176771687+177268730+176418845+174172807+172173020
3937+171630561+172808188+175704082+179640155+182572311+182636881+180606085
3927+179057363+179345298+180523094+181135507+181337394+182332700+184195057
3917+185104109+183185531+179038979+175221296+173502034+173924604+176359791
3907+181600473+189802593+198394980+203500764+204069824+201534350+196514671
3897+190024702+185369626+185551534+189821802+193316434+192257084+189577689
3887+189888060+192675320+194556436+195705662+198035610+199059937+195723933
3878+191447155+191292242+195477006+201179126+206221222+208454242+206260429
3868+202695544+202098664+203620279+202779229+198288390+193767274+193009815
3858+197886155+209015798+223733757+231116644+222584137+207533278+195900738
3848+190322973+190783061+195951313+203214086+210310858+216583145+221189897
3838+221905223+218266502+213164788+208948884+205673285+203098998+201806846
3828+201869239+202795137+205773628+212908013+222059611+226088598+223424492
3818+219636073+216009752+209792523+202267928+197878595+199144522+205574105
3808+213284322+217690913+219986645+224299646+229045273+228636697+223898218
3798+219606152+215854125+210954299+206208110+203728463+203525245+204802220
3788+207550987+211518050+215384714+218711807+222830201+227826469+230929315
3778+230468495+229011787+230175270+235579494+244560365+254181169+261052174
3768+264885184+267481326+269674538+272731480+279257673+289878285+301190905
3758+309720862+317042444+327550332+343543034+362812255+378751042+388035193
3748+396088853+407499922+419102184+424036603+424222169+427857288+438634671
3738+455049417+472247510+484912630+490887547+491719892+490906043+491956896
3728+496586065+503612096+509998064+514063970+516251329+517338950+518509899
3718+521650676+528277099+539101455+553587793+568056048+576719007+578722113
3708+578800489+581256031+587652841+596054822+601781929+602553082+601309760
3698+601525716+604109983+608964112+616618502+627395997+638169065+641510678
3688+634388637+623560830+615660470+612498045+614032584+619790457+629199469
3678+640992549+650128428+650490930+646284518+644897764+643981114+637469648
3668+627739891+621455786+619502953+618662354+617170060+617198048+621901354
3658+630357586+637021978+639301746+642406017+652360697+668866838+682669253
3648+683450161+673629422+662338488+654939936+652518274+653957930+657534333
3638+662192691+667605244+673189932+678548834+684688418+691995725+696140006
3628+692099951+683659064+677021010+674310306+676664135+685152521+697049902
3618+705834909+708852063+708782053+707563831+705444792+703475302+702139122
3608+700039668+696766789+694497751+695367953+699302507+704760907+710598769
3598+716571321+722137100+725918578+727391400+728559273+732019294+736757191
3588+737275545+730597122+721869594+717412784+718033563+720296823+721228704
3578+721445035+723079412+725826058+727477392+728311951+731836954+739900482
3568+748048276+748071537+739245186+729533625+724369594+723214103+723392015
3558+723654193+724405987+725974556+727967082+729635600+730564105+731419675
3548+733031765+735023916+736236811+735710653+733218081+729866338+727331971
3538+725931485+724726694+723492039+722905326+723057576+723489938+724283452
3528+725880084+727803427+728499919+727546501+726746984+727484296+728337164
3518+727589047+727033775+729833772+735505052+740318587+742287252+742675792
3508+742790373+742702730+742412863+741367676+738379036+734071700+731689882
3498+733977153+739642730+744248938+744658714+741342013+737046008+733943012
3488+732184900+731443987+732561134+736219477+740731439+742939171+741474753
3478+737924238+734609713+732281472+730322037+728661923+728641813+731492986
3468+736254445+739840527+740006134+736912667+731646361+725530938+720581362
3458+718646539+719839023+722631367+725509328+728082789+731156296+735954448
3448+741835005+745384245+744164447+739732099+734958259+731342987+730022265
3438+732226395+736717647+739172100+737024997+732956503+730908149+731162374
3428+731527353+731543260+732650578+734646256+734889000+732054861+728581333
3418+727799375+729879545+732104085+732418114+731178056+729698406+728624630
3408+728183563+728348945+728995011+730873107+734515992+738600470+741358747
3398+742832019+744504364+746841159+747708734+744458066+738109279+732944797
3388+731337735+731659042+731623024+731136936+730720407+730087997+729296809
3378+729160767+730286544+732338575+734265445+735416959+736354244+737876215
3368+739424373+739454613+737568939+735587218+735880686+738906695+742631445
3358+744567019+744170075+742638874+741141815+740155982+740027594+740787267
3348+741217753+739595307+736166426+733342492+732883942+734500460+737103186
3338+739980696+742558510+744296812+744843530+743619455+740329992+736396564
3328+734358040+735378840+738164506+741053797+744083032+747538551+750283321
3318+751172207+750588271+749446436+747930093+745985515+744338682+744395185
3308+746889333+750456206+752028827+750045980+746784431+745839793+747991623
3298+750596150+751436562+751650867+753269560+755694674+756252797+753151077
3288+747592202+743236242+742572542+743963949+743502848+739771869+735328716
3278+733461275+734968689+738250123+741532907+743898892+744618419+743157603
3268+740255556+738344444+739983397+745334495+751245218+753565280+751144743
3258+746700840+743661926+743408151+744832274+745703676+745117864+744548710
3248+745817582+748662002+751226158+752317268+752043234+750845272+749379878
3238+748725858+749578201+751332185+752585825+752852581+752814087+752888598
3228+752796828+752301285+751628205+751341640+751559772+751678480+751286188
3218+750283396+748402449+746082162+744857937+745333595+746138890+746138890
3208+746000522+746634057+747772516+748480563+747983594+746511147+745381093
3198+745336972+745464159+744541282+743083467+743015784+745170315+748066059
3188+749737879+749764292+748455200+745703526+741999711+739299587+739416945
3178+741812944+743872104+743939562+743088570+742723591+742068520+739460316
3168+734908660+730216835+727510258+727721712+729693604+731511895+732804779
3158+734178177+735103981+734524096+732649077+730476162+728569928+727214839
3148+726724773+727083224+727852576+728741687+729644605+730118087+729647906
3138+728396293+727011564+725862676+725200551+725614754+727274343+729010169
3128+729168646+727578917+725788314+724960959+724520718+723364026+721492609
3118+719818388+719299734+720647845+723592138+726308094+727007737+725676660
3108+723124584+719887797+717005409+715700970+715642966+715117559+713153246
3098+710654596+709309112+709753179+711039610+712058609+712677888+712762529
3088+711554812+709115292+706851732+705900866+706263069+707447374+708712269
3078+709025097+708041890+706901857+707056282+708273604+708615697+706834399
3068+703853487+701136481+699074695+697892791+698258745+699952475+701591579
3058+702328440+702343973+701717791+700578582+699860255+700294493+701023025
3048+700367204+697863451+694659081+692091247+690567550+689647149+688711065
3038+687588065+686732045+686555333+686628344+686207613+685477730+685187788
3028+685207823+684704926+683540731+682447145+681953478+681821863+681445479
3018+680535057+679291773+677827130+675892907+673607962+671860055+671245954
3008+671206710+671114039+671404807+672429434+673077902+672077512+669941890
2998+668090582+666772786+665341310+663737023+662381334+661412609+660794831
2988+660364795+659502698+657666248+655389857+653976314+654167432+655567544
2978+657134312+657857366+657264876+655660890+653875614+652674726+652127483
2968+651561630+650527848+649549069+649253424+649156776+648346904+646963977
2958+645957058+645907909+646746745+647920545+648471616+647761017+646305229
2948+645134655+644454521+643553555+641928333+640064720+638753677+637972769
2938+637121327+636082668+635251110+634791060+634676929+635114018+636066535
2928+636554574+635126699+631347847+626671742+623363408+622406614+622763076
2918+622700871+621560537+620046332+619116064+619095729+619682891+620241578
2908+620053236+618829686+617127476+615702153+614457030+612651945+610119003
2898+607672279+606202834+605691158+605307157+604450537+603387454+602797852
2888+603031404+603852344+604490007+603931020+601806842+598994200+596660331
2878+594940526+593255350+591574526+590380653+589608187+588760234+588038830
2868+588282550+589640903+591091589+591435595+590330041+588292492+586090725
2858+584318769+583157087+582189938+580756848+578822738+577223404+576721670
2848+577130696+577602265+577424690+576454952+575089658+573774151+572471625
2838+570956257+569438638+568260636+567313896+566420396+565808321+565540702
2828+564957029+563443612+561446320+559957591+559244441+558734754+557931635
2818+556857558+555736847+554706254+553820670+553019465+552098201+550931754
2808+549642509+548340133+546862284+545110700+543480339+542476197+541989733
2798+541419379+540407508+539105094+537878993+537010630+536527243+536171419
2788+535646424+534858388+533767165+532266917+530536532+529135445+528292819
2778+527499718+526266864+524823081+523640951+522768161+521925160+520853898
2768+519467893+517999461+516901298+516369212+516144589+515761339+514768527
2758+513029475+511060885+509677957+509157802+509067758+508895211+508517513
2748+508040917+507388322+506242398+504558423+502898121+501861826+501359905
2738+500774055+499608584+497751874+495443967+493264449+491848693+491341106
2728+491229489+490855581+490047247+489157273+488504078+487897031+486860585
2718+485345405+483964691+483281556+483050030+482527886+481449045+480227221
2708+479193327+478156356+476872702+475538135+474555153+474008435+473580350
2698+472877631+471732457+470327844+469099829+468323986+467746016+466883393
2688+465712744+464694832+464063285+463494694+462626143+461557245+460618047
2678+459863177+459060358+458140445+457401370+457108164+457062391+456822086
2668+456254283+455555015+454793692+453849166+452785557+451869096+451200593
2658+450675335+450220237+449742628+449027228+448010254+446957338+446107171
2648+445352489+444455724+443406823+442463535+441854011+441435269+440782899
2638+439705934+438455896+437386922+436701949+436431141+436327628+435957208
2628+435181928+434388565+434054388+434218569+434402747+433998711+432868357
2618+431527412+430557149+429985144+429428146+428623451+427620772+426606162
2608+425701969+424917047+424244342+423717321+423305895+422851922+422205105
2598+421369120+420501395+419810569+419350706+418898084+418217350+417432466
2588+416874417+416569655+416183703+415510136+414729378+414101545+413692895
2578+413529577+413690119+413995631+413906487+413088699+411881845+410891997
2568+410332223+409995045+409626614+409111937+408484179+407886324+407378175
2558+406805757+406049911+405292077+404810904+404629540+404545011+404357794
2548+403955522+403376201+402851243+402545093+402281189+401806694+401227635
2538+400833542+400610382+400306183+399879411+399534430+399368674+399232369
2528+398923818+398419646+397914048+397615252+397496093+397345232+397051350
2518+396679731+396276258+395805402+395340174+395109999+395245327+395567948
2508+395705941+395413072+394765392+394055019+393514417+393151426+392822990
2498+392430585+392021222+391698489+391461710+391179422+390749949+390257595
2488+389907999+389803923+389842717+389852359+389768205+389649497+389572622
2478+389526699+389386793+389003655+388357176+387593039+386876475+386267402
2468+385793469+385551964+385604377+385801949+385857176+385614282+385157533
2458+384645894+384165734+383784997+383612075+383670716+383780645+383697692
2448+383357588+382904178+382560247+382537248+382909056+383440616+383702532
2438+383504322+383061793+382625867+382163152+381563421+380968529+380664180
2428+380706388+380840704+380831475+380740493+380764842+380888015+380878710
2418+380649773+380421286+380408905+380479327+380306405+379857122+379484677
2408+379436804+379539079+379553336+379538478+379587590+379555399+379346084
2398+379144723+379122174+379211806+379293821+379326274+379291983+379230865
2388+379224224+379186256+378826792+377923349+376490859+374712563+372907215
2378+371495323+370731149+370435279+370212044+369995188+370168073+371039100
2368+372368639+373590650+374466517+375272862+376203581+376944982+377285687
2358+377755154+378927679+380652362+382832968+386036401+390381218+394921544
2348+398626072+401193606+402888199+403834225+403675147+402112844+399387620
2338+395981701+392158502+388002177+383837523+380365759+378145383+376947758
2328+375857587+374076063+371569872+369078914+367488584+366984750+366913803
2318+366599173+366036998+365663727+365752233+366226165+366892267+367642635
2308+368409060+369054114+369406637+369409901+369218295+369109942+369237316
2298+369496343+369732822+369984570+370332516+370651610+370782324+370820255
2288+370967815+371231569+371487219+371686479+371824810+371870582+371853324
2278+371862253+371901572+371901948+371861465+371821208+371750711+371588369
2268+371336320+371048067+370799657+370696369+370803934+371046866+371271188
2258+371444073+371691469+372085075+372508733+372817546+372998535+373101936
2248+373155962+373196107+373259963+373347756+373454759+373597291+373781882
2238+374013032+374313480+374682436+375068350+375419634+375767130+376233258
2228+376879663+377564148+378123922+378678707+379496495+380588993+381719197
2218+382795412+383994312+385455954+387028462+388404787+389501412+390633004
2208+392215080+394303278+396553256+398642580+400546076+402378587+404237173
2198+406254686+408554639+411106677+413762567+416363229+418763430+420934357
2188+423043266+425243982+427441622+429377271+430864687+431922481+432771559
2178+433690910+434779769+435810399+436387882+436390884+436137334+435916238
2168+435614891+435068285+434389090+433659657+432671198+431181605+429187915
2158+426857198+424319829+421622444+418848034+416059668+413133683+409955050
2148+406580646+403007095+399507004+397340054+397902380+400953450+404829550
2138+408417059+411834009+415402270+419010414+422339421+425207739+427783602
2128+430426472+433287550+436263996+439212604+442037514+444741727+447366251
2118+449834586+452145644+454578861+457295681+459981510+462182751+463791802
2108+465151619+466722214+468548684+470350242+472251974+474802062+478126004
2098+481699630+484953488+487636578+489690935+491013196+491368082+490586837
2088+488673249+485576931+481157565+475439012+468686377+461384697+454177452
2078+447577442+441826623+437025620+433079398+429733395+426973617+424978052
2068+423541698+422082645+420244356+418159309+416236980+414774738+413674999
2058+412665154+411671517+410690073+409639145+408602250+407784199+407212493
2048+406840836+406658985+406512213+406215968+405809156+405407184+405078823
2038+404967693+405216628+405881866+407097500+409085712+411984795+415793212
2028+420275722+424939670+429368004+433389112+436835101+439561938+441614569
2018+442885505+442897923+441372088+438672227+435442118+432108384+428779715
2008+425390867+421909985+418448801+415160952+412098101+409204945+406396393
1998+403688691+401399019+400070680+399817994+399803474+398917102+397005803
1988+394824934+393018161+391749927+390943957+390389960+389860388+389321549
1978+388886711+388611926+388422646+388138031+387711222+387535373+388054328
1968+388910948+389077304+388113719+386673988+385556991+384938275+384646382
1958+384601510+384749895+384907810+384871192+384575135+384156167+383926104
1948+384236419+385337921+387178986+388976192+389319860+387616150+385044077
1938+383181739+382432572+382264339+382225658+382265202+382386875+382425106
1928+382391264+382863508+384310067+386056398+387061403+387601593+388429812
1918+388706097+387024485+384162620+382380309+382643725+383972364+384782386
1908+384371635+383260640+382310187+381812993+381542898+381342137+381410533
1898+382065117+383164518+384032281+384521859+385497074+387186602+388070235
1888+386901613+384695944+383057741+382227046+381732216+381469025+381513897
1878+381724562+381860416+381947234+382771738+385740493+391284548+396969823
1868+398547396+394888603+389447536+385679001+384267634+384168398+384301288
1858+384196949+383916912+383726956+383755846+384118048+385167813+387327296
1848+390941218+395927749+400416075+400843709+396548454+391486472+388966437
1838+388898529+389506890+389982510+391528756+395557931+400903251+404063950
1828+403754236+402185179+400528367+397827418+394318698+391914707+391496490
1818+392124885+392701543+393443807+395352105+398427900+400988493+401385662
1808+400067529+399006471+399836228+402983496+407419407+410888921+411633473
1798+410506571+410425006+413684641+419653029+423896547+422077655+416250786
1788+411857796+411202349+413035123+415546716+418115450+420235014+421135306
1778+421538666+423904538+430146923+439250760+446307857+446640983+441725511
1768+435930495+431969266+431492708+434913860+439791025+442534483+443024810
1758+443478258+444271396+445421185+449034881+456734368+466106499+471872964
1748+472053952+469653788+468086870+468855059+471862158+475567850+478014874
1738+480055349+485381122+495049537+502945169+502470149+497304692+492988989
1728+490654482+490554308+493160936+497914741+504475920+514486352+529495884
1718+546256137+555735609+553947557+547500885+543198726+543602874+549018991
1708+558503828+569405884+578552981+586450489+597091793+611442390+623558916
1698+628564958+628480279+624929426+620010277+618552275+622935286+631590966
1688+642944556+658430197+677603971+690232361+688227828+680869871+678016448
1678+682104827+691706308+702707226+711126502+717844395+725204003+730734964
1668+730807975+729035006+731510469+738667552+745273866+747194057+747119170
1658+750581592+761388315+780702332+802103497+808947002+803050386+801703551
1648+807417227+810642683+803888997+793358411+787024331+786417358+790954232
1638+799872504+808712662+808038982+796587243+785112394+779992259+779809694
1628+780432875+779865897+779008001+777391484+773034023+767840352+766239292
1618+768215461+767578474+759980024+750106985+743355100+740181420+738286591
1608+735513231+731798085+728518603+726287909+724403135+722247629+720283391
1598+719293281+719162116+718905040+717842219+716273575+714874815+713921998
1588+713198718+712379542+711421847+710508349+709959455+710846915+714956305
1578+722462384+728767650+727667536+722159235+720253676+723630632+727233823
1568+726279505+722787068+721059797+723486936+732578168+751057025+773802175
1558+780427097+767027479+752048186+742849352+738729608+737866460+738287191
1548+739767967+744676648+755020843+770198008+787670473+800902984+798786646
1538+784670127+774708994+774296742+777944730+778074394+775227423+775904405
1528+782483780+791930611+801162536+810471674+819226591+823408991+822286666
1518+819485242+815814218+810558267+806241175+806825112+814445622+829109535
1508+846503136+852786116+839380570+821818061+813078152+813751457+820083511
1498+826315841+826657108+821417665+817427509+819711778+827158204+833376427
1488+832477186+825891958+819265910+816026797+815958364+817256200+819535592
1478+824147278+831667914+840701892+848076882+848973197+841894452+833137434
1468+829594573+832505099+837711677+840280261+841306764+846134405+857125268
1458+869067972+870175815+859040581+847472536+841480474+840082239+840746614
1448+841298810+840739711+839619037+838885852+838967042+840659647+845411276
1438+852854099+858273631+857171340+852800148+850556323+850791638+850613501
1428+849112165+848520500+850357250+853865745+858295691+863768124+868296894
1418+867489498+861231505+854459511+850374058+848889906+848785980+849329621
1408+850482487+851759538+851576523+849467764+848079284+850196746+855086518
1398+859334801+860652372+859242731+856430202+854186002+854425294+857209609
1388+859851054+858978226+855057929+852379792+853858016+858860718+865403325
1378+872410635+879242059+884258793+885822484+884883999+884151640+884727398
1368+885968956+887870988+891099221+894606440+895587246+892900854+888540842
1358+884844080+882489876+881016979+879888501+878933433+878061880+877052110
1348+875851222+874771893+874337505+875212584+877892897+881702890+884342159
1338+883723255+880481741+877291853+875981936+876350892+877210813+877799101
1328+878181489+878656697+879130254+879410892+879956634+881500966+883879482
1318+886117154+887623667+888455300+888804521+888918277+888960898+888872429
1308+888946416+889827648+891293266+892226423+892321945+892428272+892977392
1298+893437217+893263957+892336052+890714807+888594793+886073708+882861458
1288+878831232+874667516+871196390+868288640+865106630+861276077+857285321
1278+853934329+851846655+851251689+851782574+852528815+852600325+851786251
1268+850618453+849873638+850011781+850838461+851609239+851702209+851351262
1258+851545157+853076433+855765751+858616849+860604573+861385931+861544184
1248+862105759+863534159+865402875+867191227+868872951+870547772+872156260
1238+873892311+876112200+878528759+880408731+881769823+883330513+885169289
1228+886649165+887770214+889350639+891648115+893833711+895161637+896019983
1218+897401035+899645085+902255089+904876349+907743054+910949001+913933664
1208+916110706+917625248+919133938+921088421+923473090+926118286+929038718
1198+932237986+935358991+937899962+939659649+940832249+941981437+943790499
1188+946141326+947851940+948415466+949349374+952537086+957695265+962511651
1178+965253720+966285175+966828892+967438866+968046589+968709163+969790519
1168+971586299+973962188+976144183+977231541+977226589+977242721+978543409
1158+981284578+984272242+986529724+988730778+991789652+994791048+996220799
1148+996260268+995939786+995540140+995461202+996694131+999037755+1000898142
1138+1001796557+1003152772+1006219750+1010716554+1014939925+1016256220
1130+1013194569+1008004050+1005012634+1006177279+1009862486+1013559998
1121+1016118677+1017432572+1018143920+1019938575+1024266021+1030540972
1113+1036511048+1040201582+1040695249+1037764763+1032658735+1028499296
1104+1028034218+1031226283+1035538422+1038054555+1037523219+1035197304
1095+1033342695+1033113608+1034625299+1037931119+1042183454+1045202559
1087+1046370881+1047719968+1050062241+1051252249+1049976699+1047908910
1078+1047016948+1047656261+1049365599+1051319632+1052665717+1053731539
1070+1055725267+1058499377+1060050612+1059154072+1057275226+1056869503
1061+1058910503+1062601937+1066383866+1068985842+1070119798+1070142384
1053+1069459099+1068942395+1069861371+1072134760+1073741823+1073039104
1044+1070665915+1068266539+1066469333+1064869774+1063307508+1062264122
1035+1062092063+1062771821+1064476356+1067420875+1070762187+1072795684
1027+1072958139+1072277405+1071408554+1070015797+1068801551+1069400195
1018+1071607702+1073319666+1073374218+1072411121+1070699757+1067153669
1010+1061473234+1056032092+1054082486+1056151701+1059188589+1059851614
1001+1057960762+1055627644+1054167128+1053065438+1051382738+1049429906
993+1048452027+1048856025+1049686081+1050179823+1050443653+1049881477
984+1047089133+1042211067+1037290005+1034201491+1033454050+1034000093
975+1033599471+1030757528+1026588860+1023374284+1021473602+1019030705
967+1015054131+1011073955+1008506121+1006106145+1001937026+996633351+992439996
957+990210428+989007063+987317235+983839430+978331430+972052202+966693676
947+963217747+961954502+962848491+965124506+967421832+968616268+968319272
937+966745376+964447149+962312203+961309711+961506233+961764810+961305659
927+960719097+960361021+959522786+958380501+958639978+961142605+964648698
917+967501446+968900432+968594657+966772839+964224665+961700878+959390496
907+957371181+955861966+954998893+954680962+954429889+953775043+953204463
897+953834022+955523475+956347679+954813027+951755203+949201176+948222246
887+948498156+949346597+950495260+951694873+952098271+950866392+948448257
877+946209235+944605173+942914369+940963488+939676232+939499220+939854294
867+940546659+941905425+943289553+943273721+941863254+940952533+941694346
857+942731430+942198744+940571196+939961222+941433444+944233891+946728789
847+947351069+945588680+942709069+940693281+940182730+940242010+940077679
837+940180179+941515009+944238619+947117105+948398283+947980178+947437061
827+947553669+947730380+947780205+948630446+950865642+953407363+954254828
817+952343191+948429498+944777308+943901778+946378518+949927007+951791596
807+951635369+950957787+950580577+950163448+949507701+949014259+949129891
797+949910349+951040253+952071708+952530408+952232137+951718960+951665834
787+951596125+950398988+948169495+946163312+945365371+946035749+947843311
777+949922730+951320440+951662157+951374166+951198955+951166464+950493159
767+949077891+947998562+947950688+948623918+950028081+952379809+954238470
757+953372621+950089687+947225082+946629140+947842710+949847093+952357523
747+955378354+958419895+960426378+960487008+958823293+956328020+953683348
737+952150797+953355963+956818835+959893392+961296430+962476158+964794269
727+967414029+968206867+965751739+960903612+956270841+953472195+951888768
717+950728700+950631152+952173158+954166660+954348849+951673113+947649716
707+944918602+944429437+944659050+943750504+941637544+939520681+937903188
697+935894378+933069394+931164285+932009949+934241393+934157127+930095836
687+923769260+917442684+912309718+909095367+908128368+908907250+910530596
677+912555838+915299033+918438947+918660681+911343844+896150547+881032286
667+876593786+881143041+886222280+888667204+889327377+889748559+890326567
657+889679225+886257473+881439286+878459875+877600629+875588143+870249201
647+863445316+858684832+857513583+858831304+860592267+861280054+860475360
637+859846101+862361184+868396468+873685135+873015131+866149566+857908427
627+852899196+851331153+849323393+844598102+839622713+837330940+837039947
617+836105139+833850734+832096599+832466305+833400588+831559711+826710159
607+822686537+823084907+827958396+834171741+837487317+835464025
##END=
