##TITLE=<SNM>
##JCAMP-DX=4.24
##DATA TYPE=INFRARED SPECTRUM
##DATE=2/5/2025
##SAMPLING PROCEDURE=Instrument type and / or accessory
##ORIGIN=Admin
##XUNITS=1/CM
##YUNITS=ABSORBANCE
##RESOLUTION=4
##FIRSTX=4497.3318
##LASTX=599.83466
##DELTAX=-1.4281778
##MAXY=1.7238551
##MINY=0.22485381
##XFACTOR=1
##YFACTOR=1.6054652e-09
##NPOINTS=2730
##FIRSTY=0.24323313
##XYDATA=(X++(Y..Y))
4497+151503208+152128077+153024227+153426135+152876623+151706167+150567909
4487+149817331+149607624+150025683+150730865+151084649+150948906+150796912
4477+150996975+151541244+152381519+153490196+154593500+155148266+154699746
4467+153401688+152157277+151907864+152741688+153867824+154345201+153808228
4457+152748241+152062615+152122221+152435639+152329069+151597880+150437188
4447+149179718+148212658+147817441+147934815+148249357+148586889+149058836
4437+149739719+150437132+150838280+150697795+149955561+148903704+148114014
4427+147909635+148027993+148010098+147736534+147364893+146939094+146389377
4417+145843456+145523439+145329232+144975699+144536321+144389070+144670448
4407+145151426+145508394+145501980+145125289+144628747+144260335+144155203
4397+144402342+144757351+144489886+143228109+141787942+141438168+142434251
4387+143758344+144269320+143756478+142815443+142092858+141854407+141943352
4377+141980691+141780813+141512652+141352536+141281635+141292401+141384622
4367+141399631+141248258+141137632+141285060+141619148+141942433+142174526
4357+142320877+142396253+142478292+142650186+142766790+142512996+141847752
4347+141088737+140476852+140077376+140055239+140513199+141193766+141806737
4337+142348249+142759216+142757527+142320747+141860338+141714367+141849033
4327+142076226+142175260+141864969+141118104+140465390+140484714+141024397
4317+141447041+141539392+141603722+141812593+142016880+142090918+142097954
4307+142143108+142275370+142545602+143013650+143586292+143981713+144085044
4297+144128881+144306835+144568101+144921588+145469485+146048578+146332212
4287+146318253+146228463+145950018+145088488+143680342+142472417+142225445
4277+142922896+143880090+144512802+144806423+145049209+145317064+145403243
4267+145176134+144749453+144234143+143548247+142663328+141927638+141817819
4257+142311243+142950443+143603807+144467025+145260670+145369134+144863959
4247+144460287+144488948+144709477+144942193+145321259+146051975+147057981
4237+147799983+147770690+147244818+146959003+147048291+146962418+146404645
4227+145736988+145430290+145550170+145877631+146283336+146761260+147160802
4217+147194688+146851597+146506603+146479139+146697060+146868740+146787591
4207+146495242+146317779+146622492+147360995+148002998+148113364+147840636
4197+147670088+147803408+147969361+147829749+147369116+146771191+146115841
4187+145488095+145270907+145898997+147182520+148252596+148488635+148249357
4177+148274993+148695937+149161359+149532565+149835059+149934844+149805831
4167+149743617+149947309+150245683+150409232+150458109+150617231+151060517
4157+151607681+151733232+151098877+149992473+149055207+148673588+148727430
4147+148856851+148872676+148869372+149017802+149328288+149572113+149471901
4137+149098375+148915594+149198504+149682313+150078439+150520935+151081966
4127+151307489+150805136+149966531+149540695+149697739+150006052+150207443
4117+150505519+151075989+151739961+152262567+152685405+153172601+153669868
4107+153909406+153766377+153479309+153386791+153492127+153440726+152993032
4097+152374520+152046938+152202190+152551296+152612601+152235223+151822196
4087+151877114+152358380+152824024+153184045+153834532+154940824+155978173
4077+156278375+155847137+155322230+155214768+155455447+155640178+155506551
4067+155114416+154652930+154205802+153821064+153692831+153950820+154312595
4057+154374299+154204428+154197532+154477834+154896282+155406757+156059238
4047+156833744+157644188+158257994+158286488+157609197+156676163+156071805
4037+155887456+155728835+155327520+155052379+155581370+156919264+158131115
4027+158408169+157982927+157631528+157756866+158250977+158773155+158961960
4017+158769647+158596491+158777741+159120916+159231626+159051323+158795914
4007+158590848+158465454+158539465+158905881+159411594+159831045+160193321
3997+160651606+161074249+161098938+160694319+160362969+160564044+161173116
3987+161772405+162187846+162351349+161989908+161021177+160028537+159816974
3977+160598218+161861935+162856932+163131443+162826470+162441640+162258163
3967+162180124+162167612+162487231+163306901+164282537+164863950+164913941
3957+164727215+164572770+164630112+165294075+166920346+168950994+169955144
3947+169432910+168874106+169783417+171456337+171965614+170892039+169512397
3937+168943978+169633316+171678277+174343615+175849783+175108319+173378689
3927+172770619+173708350+174755640+174752596+174389261+175065810+176893416
3917+178219857+177185468+173920210+170484302+168675537+168880473+171062466
3907+175785388+183173609+191157835+196306073+197106864+194344720+188904281
3897+182400551+178027674+178175955+181833005+184683008+183791220+182109910
3887+183671934+187546506+189878804+190465155+191516157+191380016+187633901
3878+183556602+183745258+188042306+193503573+198455784+201479445+200589142
3868+197593568+196626285+197771643+197330326+193737653+189715765+188509482
3858+192035793+201540406+215582551+224158492+217174090+202554987+190981282
3848+185660612+186313530+191298803+198211328+205047782+210888885+214586885
3838+214285198+210278625+205453885+201510408+198162024+195428486+194216746
3828+194583255+195952298+199504745+207052163+215873192+218965796+215845589
3818+212493103+209675846+204000176+196707554+192494188+193576841+199023517
3808+205428584+209485556+212478475+217118865+220896556+219225585+214375897
3798+210949140+208261787+204195125+199975355+197905669+198328535+200565679
3788+204246768+208538024+211793759+213767530+216460100+220800604+224435378
3778+225135446+224566600+226115389+231730153+241038035+251056455+258115832
3768+261852555+264450453+267270458+271669676+279756871+291565251+303533403
3758+312512050+320294867+331335423+348608485+371157312+391970421+404420618
3748+412198051+421361920+431118545+435855277+435917983+438033317+446608255
3738+462005855+480608810+495811684+503443991+505456857+505953084+506962876
3728+509021964+512687682+517605107+521483447+522262167+520748870+519888027
3718+521993856+527967110+538274352+552125576+564926132+570483165+569072225
3708+566079083+565432346+569100070+577006070+586075157+592232037+594132744
3698+593529631+593669373+597434515+604926189+612943382+617009989+614795640
3688+608973193+603988013+601342259+601253045+604447485+610694952+618373519
3678+625617895+629367556+627062917+622672051+621297198+621285169+617027661
3668+608081387+599609919+594986124+594549596+597487532+603117889+610704976
3658+617914195+621748206+623364787+627869370+638300167+652111147+660634332
3648+657041714+645797410+635944962+632574656+635381760+640366903+643857349
3638+645664870+647752173+651628062+658025184+667320146+677776115+682959512
3628+677743964+668351955+663608057+666355165+675062570+685002263+689466007
3618+686255937+681190008+680136221+683519670+688429001+692356051+694428429
3608+695176297+695568645+695917482+696422694+697940186+701025067+704612932
3598+706734391+706261702+703364901+699666400+698401069+702444397+711028766
3588+718375202+718612586+713019392+707430654+706006200+709105931+713710532
3578+716204737+715497113+713250614+712290384+714807459+720563785+726521854
3568+729114592+727664298+724436630+721171019+717796778+714042884+711166949
3558+711510885+715731527+720888044+722398705+718668350+713203761+711134204
3548+714024767+718867420+721954900+722674849+722424099+721859114+720506982
3538+717783486+714258661+711851703+712151830+714924926+719034264+723571369
3528+727059217+727670684+725535934+723011954+721551042+720284894+718109676
3518+715489837+713422507+712104977+711342852+710987853+710880261+711418515
3508+713520966+717468880+722014673+724125736+721267770+714955592+709984335
3498+709751183+713981329+720113371+724964118+726129580+723650374+720243238
3488+718593355+719214771+721237029+723177981+723283717+721208220+718567144
3478+716838033+715868894+714907848+714045854+713994843+715125852+716849245
3468+717680350+716885926+715721281+715595052+716025195+716103902+716476574
3458+717886845+719232740+718677928+716298666+714122408+713172278+712131708
3448+709843330+707579826+707432436+709786081+713186534+715644355+716120089
3438+715247180+714294748+714071249+715414248+719124778+724134646+727026843
3428+724960999+718811805+712712879+710349284+711982609+715286460+718227737
3418+719755327+718973897+716302378+714308410+714844882+716593744+717293496
3408+716569760+715430732+715226835+716905009+719570885+720976776+720618657
3398+720512031+721996109+723752248+723609758+721002170+717386014+714906734
3388+714592350+715516939+716092542+716261985+717482171+720050777+721559432
3378+719768618+716209340+714487729+716009602+718959789+720526288+719489950
3368+717201424+716046208+717130884+720006225+723594907+726012039+725410150
3358+722902951+722436945+726131362+731181104+732375153+727770330+721056374
3348+717762547+719844950+724053637+725582712+723385591+720409489+719167695
3338+719654122+721370758+725066289+730605650+734805650+734179258+729094469
3328+723368587+720386619+720658531+722378805+723430290+722777762+720638928
3318+718193507+716586838+716202509+717072373+719268233+722460111+725454405
3308+726590463+724939169+721857555+720635958+723078558+727072879+729048953
3298+728169955+726293454+724949564+724400618+724483929+725152718+726722186
3288+729123428+730888625+730518478+728759815+727603040+727531164+727655611
3278+728021525+729598567+731927116+733155247+732965384+732837299+732903458
3268+731554815+728461544+725149674+722772639+721435580+721235916+722070139
3258+723124743+723935948+725056042+726942715+729135828+730773163+731340449
3248+730841549+729523573+727649522+725580485+723990820+723599363+724249737
3238+724874421+725128660+726173537+728769467+731387674+731726412+729797489
3228+728139066+728880994+731238798+732303277+730469842+727216038+724853259
3218+723985028+724074502+724855932+726078123+726914648+726605239+725487001
3208+724848804+725405250+726404833+726965065+727722438+729549338+731318842
3198+731289958+729811523+728457014+727499458+726312908+725268849+725138165
3188+725733519+726331546+726525938+726173314+725115295+723125188+720006894
3178+716201618+713029862+711656345+712315556+714552329+717101257+717798485
3168+715622228+712532298+711170810+711826457+713068844+714098574+714962126
3158+715517013+715513375+714937846+713820202+711919346+709024922+705804902
3148+703692205+703266072+703577931+703804474+704382453+705523412+705872472
3138+704118412+701416598+700337640+701467238+702994309+703493803+703202438
3128+702683935+702060216+701404792+700543764+698881332+696347179+693880373
3118+692468097+692292936+692832081+693267125+693030854+692260785+691605212
3108+691648279+692362882+692856807+692184676+690886154+690596571+691692979
3098+692824508+692832675+691785497+690137544+688051577+685991599+685028549
3088+685881855+687703186+688437392+687094021+684916947+683525313+682997529
3078+682524245+681893250+681479294+681330047+681017372+680389866+679883986
3068+679733700+679362142+678102974+676113906+674200799+673181094+673421819
3058+674460607+675139643+674528028+672796690+671132402+670681320+671316176
3048+671595290+670385128+668417668+667658811+668929117+670726242+671068248
3038+670048543+669167318+668757000+667973417+666696354+665491092+664035007
3028+661406035+658104114+656262883+657169577+659285838+659691552+657567791
3018+654952406+653958021+654745169+656023494+656310330+654941566+652572847
3008+650408099+648896844+647740292+646861221+646527606+646697123+646911861
2998+646740041+645986530+644666178+643031442+641442297+640135384+639157186
2988+638419194+637835200+637307044+636547296+635315601+633996140+633414374
2978+633840136+634686388+635224939+634929118+633362323+630732682+628251843
2968+627080069+627247434+628007330+628712058+628938972+628305156+626832735
2958+625209360+624018355+622874723+621188493+619591069+619313997+620213525
2948+620738413+619982675+618564532+617366919+616536334+615802500+615036514
2938+614311924+613574712+612510307+611017058+609566356+608600187+607764293
2928+606328998+604371006+603014010+603144991+604014409+603644782+601141333
2918+598022333+596415664+596622754+597223936+596988520+595964656+595011853
2908+594739607+594781708+594155762+592446440+590216758+588206306+586738081
2898+585957468+586031274+586749219+587114279+585927841+583195101+580429504
2888+579035420+578875629+578798073+578019798+576673903+575474359+575006831
2878+575078892+574932578+574301398+573761956+573703779+573606731+572825970
2868+571536803+570401376+569738750+569385087+568930923+567886418+566118548
2858+564214388+562952695+562541560+562614996+562578167+561865123+560400573
2848+558766542+557426922+556115703+554473801+552803202+551660386+551060577
2838+550508401+549696750+548777285+547880134+546884300+545944676+545621531
2828+545945864+545937845+544627999+542151912+539546477+537912038+537766170
2818+538574888+538970280+537999582+536020056+534013836+532447115+531105935
2808+529702866+528383145+527574576+527307899+526974321+526009563+524458101
2798+522665059+520961231+519767590+519354897+519415264+519350887+518857222
2788+517912697+516579053+515068541+513602469+512163536+510793212+509917779
2778+509831943+510032090+509671670+508593900+507312456+506100734+504798760
2768+503437012+502315692+501449132+500557364+499591343+498724523+497901772
2758+496862093+495538362+494128276+492908535+492103679+491675875+491223308
2748+490398329+489325199+488282031+487247364+486169965+485362880+485116549
2738+485097058+484534560+482972888+480680241+478436749+477002976+476579553
2728+476619278+476348220+475538909+474488389+473316578+471855407+470237637
2718+468932618+468090413+467366380+466495959+465682192+465254759+465093929
2708+464633417+463569903+462309101+461406009+460838351+460176801+459214307
2698+458092728+457021269+456155637+455609401+455357649+455170422+454763520
2688+454055192+453282561+452777349+452514793+452009990+450892012+449414579
2678+448086468+447051763+446204583+445596235+445288163+445033849+444456130
2668+443451609+442320489+441474571+440930191+440246031+439154190+437950897
2658+437032286+436423789+435931497+435407091+434781405+434057632+433280694
2648+432489835+431773524+431256877+430932024+430641809+430248792+429645790
2638+428704793+427449968+426190948+425290640+424836291+424627680+424409081
2628+423989594+423256873+422293488+421365373+420590217+419799023+418878853
2618+417951072+417091715+416256675+415576599+415311073+415379905+415265000
2608+414513605+413201086+411859164+410985772+410609091+410345830+409911566
2598+409455584+409265609+409264310+409044820+408384533+407481738+406685903
2588+406193203+405955262+405707853+405181368+404393961+403581939+402862510
2578+402209388+401646593+401203716+400816491+400445527+400139794+399921641
2568+399735973+399486857+399071750+398469194+397787373+397168964+396708118
2558+396421505+396188241+395835506+395360775+394864214+394248812+393297270
2548+392104409+391158510+390860722+391076164+391278687+391122312+390720571
2538+390339768+390044727+389713934+389228510+388597627+387969825+387484698
2528+387121011+386802135+386584056+386563525+386651700+386632023+386432025
2518+386151352+385820707+385365281+384853201+384522593+384470022+384531874
2508+384516764+384354783+384021205+383515845+382931777+382405997+381973775
2498+381560859+381147831+380811766+380527751+380124302+379593325+379234093
2488+379308382+379718069+380120924+380228404+379961319+379453211+378958654
2478+378690641+378673786+378727025+378610040+378214128+377626719+377043134
2468+376608684+376310191+376055951+375859962+375811884+375869875+375867128
2458+375736110+375581740+375499394+375380108+374977735+374253368+373537391
2448+373152023+373000882+372780762+372467306+372294670+372318171+372291143
2438+372020382+371609471+371248048+370964071+370718742+370553159+370506083
2428+370513026+370456297+370283847+370102746+370092573+370238961+370278946
2418+370003582+369484188+369005076+368885492+369226533+369746855+370059605
2408+370085408+369976888+369790961+369494954+369156253+368944820+368999692
2398+369276653+369491353+369356288+368908065+368467527+368318577+368495371
2388+368732756+368586887+367805346+366553566+365070675+363252165+360883409
2378+358158392+355583474+353365599+351248001+349067772+347169997+346040473
2368+345735482+345908527+346219903+346489996+346653462+346868645+347627873
2358+349497135+352563824+356328224+360514376+365513218+371311237+376730829
2348+380346205+381701121+381614469+381148871+380242809+378145482+374741613
2338+370634465+366478200+362640402+359230704+356272572+353880427+352220556
2328+351246442+350598072+349905448+349149523+348637369+348689976+349370535
2318+350383706+351285053+351909291+352450218+353054074+353614344+354054771
2308+354506335+355100056+355807011+356522319+357169501+357701110+358074561
2298+358287256+358432159+358637764+358920070+359181549+359374085+359555001
2288+359778945+360046253+360345824+360639602+360817399+360789406+360622784
2278+360477250+360423417+360418776+360387590+360234965+359922586+359604935
2268+359500500+359601520+359735211+359888690+360199732+360621225+360856382
2258+360720463+360409198+360276324+360436671+360729819+360984689+361151497
2248+361257046+361398794+361698030+362128321+362485920+362627667+362662974
2238+362840437+363288326+363916202+364549388+365092654+365558995+366007107
2228+366483954+366996628+367538298+368162759+368975969+369992778+371060896
2218+372018600+372900828+373902378+375153787+376614068+378184167+379864976
2208+381760375+383906411+386163343+388368150+390522652+392722521+394994489
2198+397271209+399452961+401525785+403642900+405948653+408358359+410673913
2188+412789989+414681675+416391183+418021723+419554919+420819657+421766298
2178+422547319+423320247+424158629+425028270+425740683+426074595+425932290
2168+425321492+424317454+423045737+421580110+419910105+418038059+416032099
2158+413966292+411807558+409419831+406758893+403910542+400908786+397762610
2148+394506021+391077204+387766819+385808529+386442086+389360679+393093856
2138+396715283+400236359+403817059+407479510+411149313+414584107+417627741
2128+420473976+423422790+426565550+429773616+432922799+436157410+439721700
2118+443503066+447136374+450452179+453453638+456181663+458831946+461556110
2108+464145989+466332344+468293604+470630394+473896339+478160531+483013839
2098+487958551+492592332+496556322+499673911+501977585+503387931+503572188
2088+502115954+498747801+493544654+486835153+478909549+470112931+460984554
2078+452038651+443752368+436617550+430714613+425663980+421316181+417859000
2068+415217812+413008625+410924032+408857259+406982726+405615112+404680277
2058+403718675+402506062+401182777+399969274+399082628+398534387+398008236
2048+397323520+396668133+396160026+395699625+395242863+394805369+394436521
2038+394394012+395019772+396435130+398596091+401586115+405756785+411484153
2028+418594653+426172719+433188659+439136778+444004788+447989828+451183377
2018+453245286+453631360+452283052+449737428+446553309+442954677+438960355
2008+434596629+429905747+424878132+419577158+414318581+409517139+405319700
1998+401596176+398400251+396157427+395013832+394199137+392682165+390388218
1988+388027259+386020890+384332136+382925132+381810643+380928973+380261335
1978+379845522+379641774+379496017+379230454+378881655+378839146+379388723
1968+380080679+380020683+378935636+377488090+376432818+375930539+375742867
1958+375673478+375609064+375402718+374977624+374456485+374092946+374132411
1948+374761661+376126602+378131077+379938857+380161503+378382606+375907929
1938+374187098+373421669+373080741+372858764+372764166+372792382+372833666
1928+372926222+373524175+374978106+376690250+377759742+378434360+379359245
1918+379731174+378251588+375635238+373963859+374144217+375310793+376022909
1908+375583781+374416277+373352875+372765095+372502019+372403301+372599289
1898+373319127+374405362+375249647+375700283+376506810+377924730+378680394
1888+377641903+375612591+374032319+373286308+373078179+373169361+373340438
1878+373405631+373390149+373523840+374486112+377426127+382641674+387836802
1868+389128381+385586070+380437758+376822122+375326349+375033647+375101476
1858+375202162+375264237+375292713+375390911+375871806+377115641+379303407
1848+382638481+387219692+391501370+392100696+388203719+383448684+380958117
1838+380653795+380917761+381111485+382491573+386423300+391685923+394776782
1828+394459428+393003343+391640741+389420526+386407967+384261374+383800305
1818+384294230+384840615+385552731+387198159+389773633+391854958+392017125
1808+390665364+389610909+390429614+393548539+397885126+401170451+401802374
1798+400789686+400967446+404393293+410253683+414174829+412141582+406375715
1788+402122958+401483387+403235813+405728384+408360327+410467121+411195164
1778+411396238+413624658+419615361+428090764+434316141+434319891+429844823
1768+424683332+420867698+419886530+422511010+426765103+429267995+429810630
1758+430518328+431693220+433072640+436471867+443520775+452073810+457163574
1748+456950062+454410117+452831405+453462288+455960020+458846685+460636311
1738+462606147+468390763+478671200+486744008+485620981+479361560+474032963
1728+471030317+470560709+472777953+476872255+482562831+491630878+505589248
1718+521209939+529939322+528187416+522105866+517804994+517514297+521723096
1708+530109545+540617751+549981730+557989234+568301933+582285326+594481469
1698+599766665+599620537+595617639+590133967+588170442+592085908+600235456
1688+610894691+625294898+643243283+655799475+655264414+649198234+646499316
1678+649797152+658056816+667663414+675484396+682785836+691248951+697461111
1668+697563207+695611118+697830961+704523978+710774006+713224848+714722366
1658+719904129+731362205+749292547+767062133+770488945+763871071+763103823
1648+769776644+774641276+769873172+760661447+754963409+754884776+759876453
1638+768487775+775856412+773643994+761905171+750761775+745632212+745083785
1628+745626865+745763415+746079061+745291468+740923807+735191093+733158143
1618+735289180+735541192+729087490+720155324+714303435+712343549+712181902
1608+711505910+709593026+707104018+704662755+702325742+700065060+698172892
1598+697078118+696816305+696796925+696278422+694970767+693085652+691116633
1588+689624387+688955820+689078411+689634485+690416287+692304891+697098908
1578+704920559+711084455+709735441+704517518+703487046+707887750+712135123
1568+711248181+707577227+705670803+707824264+716283221+733480100+754522351
1558+760751143+748955962+735790828+727434042+722988267+721294872+721499437
1548+723820263+729869291+740527746+754684666+770296261+782344494+781204277
1538+768901656+759452250+758241123+761234599+762342664+761512005+763417762
1528+769641357+777602155+785329283+793918552+802758571+807410618+807029705
1518+805661014+803970069+800005746+795366692+794473067+800393565+813501673
1508+829408792+834824820+822018398+805571318+797273859+797526168+803070430
1498+809061838+810223217+806241963+803112754+805732296+813196125+819304778
1488+818392441+812033336+805619656+802149851+801486334+802488144+805057047
1478+810058748+817782311+827183008+835226450+836755822+830342587+822484108
1468+819668391+822494726+826402395+826825707+825938616+829758222+840759202
1458+854104398+858175571+849589271+838315118+830996897+828380919+828961645
1448+829833291+828659587+826108802+824335289+824408204+826764597+832002569
1438+839028236+843236181+841342305+837269721+835902813+837192796+838343036
1428+838370510+838869484+840644557+842824749+845383034+849275407+852740385
1418+851217176+844502329+837527079+833447368+832164067+832456546+833507883
1408+835215757+837175792+837964647+837140374+836998404+839558470+843527249
1398+846355218+847479916+847015097+844226334+840188203+838044468+839111101
1388+841198033+841135438+838973586+837907250+840087963+844849012+850444582
1378+856138982+862073587+867632774+871221084+872295810+872207673+872196907
1368+872561782+874015342+877484850+881807218+883623797+881297922+877145963
1358+874103554+872698035+871665632+869990577+867900007+866121371+864923237
1348+864186210+863713001+863345082+863457054+865007811+868248547+871572000
1338+872706945+871092183+867985397+864902670+862943897+862743862+864189849
1328+866390906+868245577+869110244+869205880+869389951+870138636+870984146
1318+871473468+872186066+873856963+875989040+877401762+877925982+878584079
1308+880028210+881509392+881815460+880988884+880312967+880559335+881100708
1298+880911885+879799439+878395701+877398940+877022036+876716711+875388711
1288+872400283+868304385+864028499+859631136+854762421+849961423+846363014
1278+844337563+843338500+842806929+842490837+842201848+841911596+841847220
1268+842071090+842322359+842607785+843439112+845035088+846715786+847610748
1258+847705197+847678020+847986464+848664832+849794504+851558736+853794841
1248+855935976+857547768+858668531+859638339+860880281+862733912+865052659
1238+867062443+868118977+868533081+869237734+870867644+873499216+876811605
1228+880131197+882783411+884656868+886053328+887133029+888028065+889172811
1218+890919519+893070902+895217458+897304613+899543019+901992301+904478041
1208+906756766+908841842+911265730+914609900+918567689+921890474+923593745
1198+923995226+924412746+926044587+929015713+932178114+934042437+934395952
1188+934677739+936168277+938387749+940186657+941971605+945284811+950327425
1178+955415036+958681464+959245112+957436997+955139412+954910344+957504047
1168+961108099+963874290+966076312+968835969+972099204+975137157+978126921
1158+981709589+985337105+987210413+986200658+983493943+981711891+982349420
1148+984424471+986006340+986753094+987960880+990333163+993014631+994845542
1138+995626081+996097730+997008879+998370144+999736087+1000938675+1002179652
1128+1003698035+1005514615+1007243502+1008395376+1009249945+1010923886
1120+1013992283+1017604057+1020113410+1020467221+1019285052+1018428405
1111+1019136696+1020749974+1022165369+1023822529+1026788903+1030622618
1103+1033318491+1033626341+1032735909+1032873350+1034452471+1035665380
1094+1035573976+1035911155+1038131592+1040501499+1040523032+1038900473
1085+1038560769+1040983544+1045112707+1048941892+1051102111+1051267990
1077+1050165568+1049079853+1049102723+1050584722+1052631632+1053550428
1068+1052595545+1050837179+1049180687+1046830235+1043234647+1040252011
1060+1040441057+1043653281+1047092048+1048705176+1049128488+1050126957
1051+1052660144+1056531059+1060251539+1061915827+1062058985+1063682212
1043+1067731629+1071611602+1073454319+1073741823+1072275417+1068330695
1034+1064081763+1063232170+1065437831+1066390263+1064093643+1060745241
1025+1058041942+1055574171+1053493031+1052869313+1053645100+1054933152
1017+1056810470+1059874783+1063251475+1064546062+1062619960+1058960962
1008+1055718666+1053625274+1052120183+1050517152+1048529793+1046578297
1000+1045636779+1045962524+1046280843+1045532901+1045006898+1046088678
991+1047260377+1046144813+1042858114+1038868099+1034579442+1030123197
983+1026265425+1023587446+1022466461+1023072879+1024352170+1024528221
974+1022935289+1019888871+1015669417+1011132757+1007806408+1005845853
965+1003585543+1000324684+997266460+994942961+991928842+986844127+980355081
955+974414683+970184611+967324046+965251074+964415365+965432917+967238879
945+967407357+964725220+960487871+956706356+954013155+952068564+951064378
935+951679038+954060528+957477093+960514453+961541435+959871280+956757961
925+954422730+954014417+954840770+955498867+955578094+955728529+956123847
915+955875696+954204428+951346462+948319275+946410251+946394362+947727708
905+949057713+949646087+949597378+948998682+947720283+945927093+944214318
895+943073730+942307967+941270144+939880738+938877665+938769628+939310332
885+940062136+940731148+941108869+941007960+939867298+936871074+932442229
875+928954158+928631458+931103313+934030334+935717047+936235030+936359328
865+936015763+934265045+930927113+927487232+925856060+926625090+928820207
855+930723736+931181649+930893328+931770840+934476516+937469175+938855761
845+938125193+936013536+933972492+933600266+935460802+938171824+939297784
835+937731508+934843544+932865912+932669663+933728722+935403703+937154643
825+938150736+937917065+936935005+935832880+935072092+935545153+937684878
815+939923358+940132972+938997359+939688276+943741702+949078429+952603329
805+953425820+952755026+951628472+950144319+948472531+947013328+945625703
795+944055938+943160159+944134422+946469579+948097112+947706992+945955902
785+944552759+944883552+946900836+948892428+948994450+947113271+944783460
776+943349428+942899089+942860403+942903247+942970000+943003933+942981657
766+942794319+941916807+939974444+937905555+937481353+939347533+942348063
756+944729628+945396561+944432470+942977202+941722786+940116711+938532170
746+939380055+943642650+948110552+949270223+948147752+948002218+949942799
736+952787103+955073030+956148722+955830254+954051395+951298124+948970392
726+948269823+948564307+948609527+948614056+949008855+949108576+948956581
716+950049722+952525067+954047162+953371690+952460319+953185392+953905935
706+951000076+944055641+937330547+934892996+936257306+937150708+934411693
696+929428258+925712085+924809402+925569967+926074362+925384485+923874195
686+922348387+920548515+917353740+912871359+909005791+907225149+906442902
676+904300801+900350808+895592729+889424006+881456896+877159402+882728910
666+891595660+894714919+891793987+886421322+880969059+876279143+873257673
656+872950046+875991267+881621216+886619798+888209018+887159760+885189404
646+881887855+876657161+870571749+865029121+860689452+857019390+853234682
636+849801930+848115885+849352704+852928615+854953694+850918163+842049482
626+835353272+836055772+842695105+849410027+851682218+849728717+846938988
616+846254086+848522862+853029301+857962393+860090312+856820468+850566876
606+847482069+850304691+854178205+851127405+839211490
##END=
