##TITLE=<SNM>
##JCAMP-DX=4.24
##DATA TYPE=INFRARED SPECTRUM
##DATE=2/5/2025
##SAMPLING PROCEDURE=Instrument type and / or accessory
##ORIGIN=Admin
##XUNITS=1/CM
##YUNITS=ABSORBANCE
##RESOLUTION=4
##FIRSTX=4497.3318
##LASTX=599.83466
##DELTAX=-1.4281778
##MAXY=1.7161708
##MINY=0.23197618
##XFACTOR=1
##YFACTOR=1.5983086e-09
##NPOINTS=2730
##FIRSTY=0.25461492
##XYDATA=(X++(Y..Y))
4497+159302728+161051831+161899280+160757054+158250357+156103559+155297989
4487+155447550+155746615+155979571+156506978+157486013+158369170+158418396
4477+157611912+156709363+156455925+157002947+157934304+158577411+158524083
4467+158083362+157986849+158535345+159309273+159778988+159936958+160096458
4457+160179340+159618594+158213587+156671102+155874435+155980261+156523163
4447+156983611+156998733+156415873+155491806+154828432+154882067+155591368
4437+156487213+157066531+156965282+155977380+154290294+152628548+151765222
4427+151834194+152298772+152577635+152584534+152596999+152647437+152286633
4417+151164936+149689009+148833579+149304301+150870224+152451950+153052469
4407+152613613+151758033+150990007+150454704+150093118+149775396+149502258
4397+149413549+149527225+149758810+150094917+150397488+150397768+150181090
4387+150152235+150368195+150408331+149969978+149183940+148309323+147432646
4377+146667622+146469441+147229421+148513582+149323973+149255821+148815408
4367+148624499+148891988+149509474+150146697+150303614+149624875+148273522
4357+146896307+146151272+146302036+147249857+148664132+149914012+150265660
4347+149554178+148410702+147525056+147000726+146680012+146692300+147227305
4337+147989579+148324445+147872108+146914777+146064036+145622579+145369373
4327+145138543+145253730+145927024+146678371+146990909+147144460+147762394
4317+148852178+149839054+150340058+150461892+150361967+149963909+149285394
4307+148614393+148099106+147574897+147029329+146815654+147171599+147822714
4297+148248331+148322049+148560161+149492236+150844120+151763776+151855096
4287+151486545+151112447+150777031+150368223+150013014+149954260+150107550
4277+150046409+149566112+149061127+149126286+149825116+150533866+150638108
4267+150267179+150100119+150532598+151247996+151585361+151307318+150854310
4257+150682383+150686159+150582514+150463384+150582346+151002407+151643453
4247+152267913+152436222+151951292+151253990+150990436+151311840+151887270
4237+152403135+152737097+152816268+152669849+152523374+152557665+152733685
4227+153028266+153479046+153840325+153713951+153184670+152790071+152796858
4217+152972635+153046502+152960524+152709650+152319003+151990654+151946509
4207+152134182+152357414+152570820+152775657+152874426+152875787+152942494
4197+153089397+153134698+153007131+152844433+152809220+152945048+153181109
4187+153449082+153727292+153920364+153874420+153641240+153576305+154042766
4177+155034183+156107242+156768677+156998733+157207608+157582675+157744225
4167+157235819+156227714+155473869+155430507+155685195+155549479+154934939
4157+154279638+153923906+153985094+154510822+155396273+156367514+157177848
4147+157696678+157856289+157656756+157213462+156732895+156401180+156326194
4137+156594913+157190621+157777453+157901786+157613012+157545942+158099677
4127+158805901+158847295+158080546+157199795+156899051+157231754+157846295
4117+158434506+158836387+159024303+159084307+159128050+159253222+159539217
4107+159938469+160247753+160363527+160476616+160855767+161507114+162088763
4097+162099783+161298315+160096663+159336701+159413281+159798455+159794614
4087+159592247+160031588+161366746+162797951+163287375+162551654+161244968
4077+160303747+160111990+160323885+160498226+160634232+160928375+161341052
4067+161661579+161785073+161762343+161689306+161578846+161366914+161132550
4057+161147374+161514069+162026093+162583147+163326495+164145490+164534487
4047+164199191+163493192+163139996+163601768+164609277+165371550+165459784
4037+165219696+165074256+164970005+164825236+164863685+165142687+165339945
4027+165286375+165236832+165413523+165619693+165491650+165022289+164675657
4017+164892381+165515778+165879024+165532933+164771834+164350859+164730794
4007+165651989+166455097+166780473+166885153+167258449+167961633+168477535
3997+168351468+167783226+167302249+167079930+166928132+166732907+166552244
3987+166551517+167009317+167981267+168887378+168980832+168422025+168334892
3977+169450007+171102654+172005762+171802537+171279811+171132077+171217439
3967+171208955+171371252+172155994+173306518+174006943+173924881+173513845
3957+173260611+173254738+173510526+174213467+175509767+177050257+177882044
3947+177507070+176932302+177411844+178427314+178322429+176772169+175048144
3937+174350200+175349019+178250772+181924215+183832240+182609946+180170525
3927+179522011+181325785+183440950+183833452+183230211+183626740+185169319
3917+185735789+183581859+179607187+176147615+174579119+174949860+177257398
3907+182122163+189723364+198397410+205084875+207676897+205874111+200316734
3897+193150492+187975641+187348533+190477993+193144022+192101421+190014412
3887+191107525+194876157+197572970+198576879+199792833+199677712+195953886
3878+191792604+191743695+195895990+201443429+206407578+209054792+207603524
3868+204259223+203305863+204804642+204635335+200642240+195756871+194013287
3858+197556039+206989469+220183755+227812105+221244386+207761252+197113324
3848+192439458+193504713+198559818+205212564+211952947+218453186+223308143
3838+223496040+218859709+213320848+209433104+206562341+203913411+202328730
3828+202486943+203991166+207460993+214437194+222779226+225975216+222984837
3818+219316000+216134162+210619746+203678712+199205535+199492537+204526795
3808+211583380+216869362+220794566+226105589+230677946+229551717+224425701
3798+220165258+216601361+211718583+206695046+204105691+204578352+207188684
3788+211109730+215544571+219222694+221919507+225222004+229674521+232878342
3778+232897175+231607475+232178477+236308080+243826418+252365335+258748252
3768+262504503+265361990+268289083+272401084+279690709+290159205+300324515
3758+307379720+313724673+324174095+341123979+361877568+378512742+386962624
3748+393246083+402677312+412550007+416136821+415111878+417820457+428602638
3738+446858537+467749959+483575032+489631194+488219530+484916437+483721441
3728+485980461+491246324+498267052+505727494+512147890+516154502+517974182
3718+519774953+524670130+535679347+553130664+570645825+578436527+576688711
3708+574184606+576586679+584912862+596455657+605027969+606655705+604510203
3698+603178382+604029356+607276249+613985735+624855441+636710597+641319034
3688+634066720+621342430+611508145+607982491+610399370+616565954+624803717
3678+634346040+641301655+640182513+634951071+633165812+633193334+628411787
3668+619733974+613506417+611688938+612533386+614755262+618556506+624118470
3658+630360012+635387316+639396763+646231179+659342191+676232407+686135832
3648+681165809+668713901+658830316+653974035+652109866+651315763+652035878
3638+655517117+660799724+665462309+669621671+676123663+684820084+689101690
3628+684634666+677890499+675660268+678775147+685177046+691708499+695178624
3618+695884792+697858525+703240106+709806539+714557134+716964055+717056241
3608+714130286+709434809+706262724+706326270+708662932+712322130+717306324
3598+722796798+726859723+727398895+724205404+720838429+721867026+727786512
3588+733424216+733630741+729722729+725535621+722439985+720582380+720415534
3578+721643943+722662248+722236444+721355972+722947832+729326535+739367420
3568+747374007+747030321+738904547+729109867+722304913+719616733+719249851
3558+718543832+717387770+718280698+721889551+724855111+724313701+722337133
3548+722662397+725456860+727605718+727002403+724613233+722411942+721282655
3538+720527560+718843588+716522439+715908235+719034450+725025686+730103409
3528+731249104+729371883+727130614+725383170+723444044+721847261+722420817
3518+725205957+727599379+727330725+724891285+722159174+720323720+719916041
3508+721216573+724089350+727558208+729808949+729678873+727692013+724901652
3498+722240322+720861327+721814891+725160461+729713406+733571297+735066496
3488+734156488+732358700+730848286+729448108+727876311+727143368+728782291
3478+732568059+735820024+736034977+733776107+731525366+730712094+731119327
3468+731987716+733038986+734865937+737530474+738908649+736903888+733178683
3458+731615464+733130949+734829391+734611007+734018357+735581876+739121812
3448+741261124+739065203+734025741+730332011+729632332+729900837+729335262
3438+728548245+727973122+726583014+724832586+725334019+729024617+733296900
3428+735263623+735116766+734781731+734803734+734315577+733553173+733647597
3418+733852332+732209754+728848970+725823369+724407603+724750842+727056253
3408+731046905+734973712+736689308+735522954+732761457+730636093+730925854
3398+734059454+738549002+741191536+739664117+735729851+733607769+734846545
3388+736871966+736694902+734480633+732673074+732957838+735077161+737809794
3378+739847073+740227753+739343702+739148141+741208765+744512940+746161634
3368+744670761+741407608+738779991+738091649+738880456+739795162+740170622
3358+740455013+740918258+740887007+739581627+737273978+735417640+735098642
3348+735674137+736433334+738624706+743158110+747412120+747891028+745280192
3338+742835904+741732872+741444080+742302624+744754893+747430319+748252540
3328+747013241+745075980+742776535+739636297+736928800+736872115+739239134
3318+741374418+741656646+740807798+739984906+739614220+740236704+742292033
3308+744831342+746672166+747911240+748455261+747864849+747201642+748132906
3298+750320101+751429175+749758851+746142988+743029899+742043890+742494754
3288+742733872+742967844+744785025+747901172+749840074+749213489+746974234
3278+744554260+743152068+743432954+744077216+743237095+742572844+745880972
3268+752366182+755770374+753153796+749320368+748897921+750528416+751282541
3258+751473926+752337317+752845537+751532027+749343564+748205775+748528354
3248+749554639+750450102+750401249+748843101+746126281+743673490+743275730
3238+745783713+750015050+753400447+754183511+752762972+750879560+750109996
3228+750958919+752309721+752098348+749751990+747071716+746198926+747478351
3218+749062007+748938420+747723511+747827034+749842759+751937693+752745519
3208+752772221+752681526+752157867+750710402+748404693+745936686+744274791
3198+743733083+743607781+743184662+742383026+741375910+740555105+740513413
3188+741255306+742172324+743056078+743933417+744354671+743772911+742199622
3178+740187030+738593678+738173841+738702647+739025971+738377308+737008829
3168+735649897+735134591+736396787+739205422+740924598+738924685+734256655
3158+730606706+730109525+731969815+734260459+735383928+734540301+732388757
3148+730680396+730570906+731498440+731699521+730169044+728195981+727862140
3138+729061909+729743538+728985311+727768686+726984204+726557729+726187044
3128+725534577+723989780+721491567+719069281+717977586+718556512+719839368
3118+720492655+720041641+718960686+717744210+716175098+714208450+712847579
3108+712896805+713540023+713304111+712027297+710925309+711009589+711833377
3098+711685028+709605384+707007973+705777551+705558272+704877612+703848120
3088+703550080+703861918+704081943+704599859+706047771+707657009+707984510
3078+706873945+705729145+705909565+707052873+707320259+705614508+702848984
3068+700676110+699830170+700050046+700892554+702126483+703526660+704666836
3058+704888651+703446631+700261866+696685607+694665929+694913625+696280090
3048+697019448+696185890+693890995+691121592+689135552+688380158+688238970
3038+688090024+687968004+688109192+688600109+689464172+690608599+691703800
3028+692250431+691776445+690213300+688131792+686314462+685090379+684256597
3018+683468312+682498562+681399184+680613062+680492011+680494472+679435594
3008+676927238+674098764+672473788+672416134+672929724+672675614+671055412
2998+668545862+666151471+664555658+663665192+662912931+662010009+661156164
2988+660420312+659485319+658381018+657854302+658423084+659480620+659888449
2978+659229270+658013689+656842859+655970069+655586854+655734680+655853867
2968+655239811+654026543+653020992+652654782+652758156+652909787+652363380
2958+650449090+647658281+645467656+644759922+644999637+644985167+644053381
2948+642509405+641040161+639931461+638972451+637932667+636963812+636547630
2938+636835377+637046825+636129061+634080891+632020789+631076025+631589689
2928+632815190+633177448+631706862+629193807+627084553+625691684+624325555
2918+622751110+621643043+621471200+621499169+620574320+618705676+616904345
2908+615611196+614401955+613173620+612514367+612729506+613256633+613341958
2898+612851004+611942787+610352269+607869234+605281408+603750633+603329565
2888+603064305+602407400+601604198+600793277+599681704+598358685+597613882
2878+597889920+598455719+598159469+596698057+594709780+592967109+591802433
2868+590958433+589941023+588675546+587543276+586734592+586006385+585158544
2858+584440480+584255622+584459201+584289185+583313021+582000667+580834573
2848+579480414+577494188+575228604+573411163+572328306+571888629+572028774
2838+572468972+572398937+571165121+569170615+567386961+566106305+564896504
2828+563537945+562223279+561000985+559759226+558619125+557761364+557061238
2818+556318375+555608403+555026158+554361050+553377949+552126419+550717440
2808+549133747+547508398+546245158+545554057+545094503+544406870+543571634
2798+542998675+542632203+541962656+540804170+539397243+537861582+536242014
2788+534844745+533876338+533038454+531902604+530403751+528872230+527749992
2778+527195940+526978600+526712818+526048977+524812811+523191676+521586018
2768+520194194+518998042+518026838+517302957+516691773+515986277+515038865
2758+513849166+512552362+511205699+509724485+508179912+506923720+506243433
2748+506020499+505754904+504951105+503597729+502120431+500804086+499571910
2738+498300279+496990983+495733225+494772910+494400323+494481620+494346883
2728+493451643+492009549+490644874+489541878+488419902+487265928+486402163
2718+485804591+485044387+483948403+482805542+481914367+481223303+480419616
2708+479348357+478259794+477423663+476691241+475778139+474718999+473704350
2698+472756901+471812324+470863756+469922498+468982507+468023162+467023542
2688+466028843+465173022+464538045+464032063+463491735+462860487+462195416
2678+461527399+460811050+460035407+459275464+458580559+457895238+457140068
2668+456302893+455410823+454473928+453525733+452657978+451897439+451122019
2658+450245053+449346121+448485452+447606658+446738866+446032922+445493638
2648+444891255+444030511+442978569+441960414+441123276+440480207+440015582
2638+439686216+439325860+438735597+437917963+437071502+436357204+435811618
2628+435413671+435096463+434744461+434273831+433702588+433086705+432384341
2618+431497343+430520210+429735467+429202000+428600885+427689349+426668136
2608+425953354+425769727+425946008+425951117+425299470+424074455+422881473
2598+422217968+422015620+421783140+421138020+420179943+419266728+418546091
2588+417933155+417374926+416838140+416229417+415610141+415230393+415124782
2578+414976545+414533027+413880337+413240102+412702608+412196514+411611285
2568+410911905+410121382+409245833+408350108+407677616+407461992+407560033
2558+407491602+406939302+406038506+405124546+404438032+404136486+404261266
2548+404553190+404598389+404261229+403709004+403032223+402169614+401163393
2538+400201586+399440674+398955500+398789997+398914106+399170080+399336367
2528+399234410+398771612+397959795+396988367+396216901+395912969+395972040
2518+396037898+395926506+395811459+395937805+396212053+396191281+395602547
2508+394763172+394201512+393952548+393644066+393220500+393046569+393241496
2498+393406328+393127717+392426770+391647249+391119339+390960175+391057098
2488+391185682+391162635+390929931+390524339+389968721+389258414+388515290
2478+388011806+387898289+388008338+388007704+387643806+386914442+386118363
2468+385628640+385544061+385693454+385921273+386134623+386135257+385699347
2458+384892341+384120874+383741910+383714686+383752762+383690372+383546498
2448+383384463+383249949+383123416+382915661+382631680+382406434+382279789
2438+382166234+382052306+381944084+381720591+381320221+380918881+380734395
2428+380808346+381014983+381148005+381069467+380867977+380768854+380852351
2418+380971612+380954569+380786157+380552670+380299753+380040721+379844712
2408+379794554+379877940+379988362+379998506+379842102+379610591+379502854
2398+379565579+379570539+379286558+378815258+378513526+378589415+378893982
2388+379109718+379006306+378541942+377923151+377575735+377870867+378869555
2378+380422371+382423812+384881712+387854395+391391461+395452558+399812068
2368+404103147+408033534+411462116+414096371+415290173+414708114+413101263
2358+411588649+410272006+408524226+406578425+405749379+406999269+410212972
2348+414805522+420203810+425634020+429903357+431867507+431073814+427948083
2338+423591072+419105812+414928475+410938196+407071765+403518067+400385810
2328+397520454+394661401+391624985+388449096+385427224+382871022+380852948
2318+379252175+377925090+376739157+375595625+374555094+373834681+373526870
2308+373391611+373097300+372610934+372178305+371980880+371982595+372062438
2298+372139857+372172637+372137470+372053451+371985206+371963613+371934152
2288+371862663+371826303+371888357+371973943+371986772+371957087+371955596
2278+371915394+371678253+371260690+370954297+371020789+371356121+371616907
2268+371618734+371464978+371338408+371296342+371257073+371153288+371083179
2258+371237979+371650805+372098761+372324864+372331390+372374575+372655386
2248+373097449+373447438+373525416+373390679+373318593+373541825+373974043
2238+374322800+374503631+374747784+375241422+375840524+376248390+376374512
2228+376421314+376660917+377223957+378074931+379067615+380011446+380792534
2218+381479272+382265581+383294961+384569389+385998767+387470657+388908724
2208+390366668+392031658+394038619+396328778+398717836+401005348+403058551
2198+404939129+406885452+409062951+411393759+413649385+415642548+417370413
2188+418999864+420686522+422451642+424198154+425720314+426814024+427545326
2178+428246385+429142482+430159406+431067474+431618357+431661056+431325053
2168+430957313+430707566+430315363+429495155+428373440+427257765+426109087
2158+424550939+422327309+419574054+416686882+413925460+411192977+408309758
2148+405200883+401762717+398328020+396266500+396952753+400092954+404086962
2138+407817761+411126895+414068178+416712316+419269488+421849222+424369512
2128+426779081+429186338+431743920+434367286+436747692+438841694+440953446
2118+443187368+445370461+447466514+449531725+451477602+453209756+454758431
2108+456255271+457891509+459688775+461452031+463215249+465347401+468003770
2098+470858125+473427342+475431357+476859392+477680010+477590210+476314067
2088+473904237+470481472+466089742+460948808+455472020+450042593+444866157
2078+439952707+435363401+431366372+428055746+425203555+422778696+421034310
2068+419958389+419173460+418259425+416943006+415337572+413882574+412734157
2058+411663047+410615431+409702365+408814435+407853188+407000275+406431157
2048+406119953+405956724+405834555+405698475+405489004+405067004+404464733
2038+404033671+404044635+404465516+405281248+406660878+408801942+411775819
2028+415335446+418901263+421961323+424331287+426050463+427342046+428418712
2018+429027099+428619755+427140667+425102865+422871554+420378412+417516189
2008+414461314+411525998+408862132+406443240+404241874+402237523+400308168
1998+398392312+396840466+396263964+396691222+397127281+396507371+394885118
1988+393037805+391427224+390157271+389301338+388788419+388383536+387945762
1978+387485201+387073233+386778437+386565946+386415471+386552595+387148638
1968+387805393+387841940+387127941+386195596+385543651+385220289+385072313
1958+385044568+385059186+384867578+384302301+383571409+383127593+383271803
1948+384001129+385289877+387158334+388958397+389174581+387144461+384296409
1938+382408597+381731219+381484456+381158931+380801708+380609354+380635757
1928+380916046+381799912+383560072+385542532+386765832+387422476+388208673
1918+388495152+387108027+384596724+382781483+382615980+383517671+384160591
1908+383733966+382591068+381570303+381005884+380721679+380587874+380733239
1898+381354343+382333229+383184725+383838422+384969685+386634191+387371199
1888+386035686+383621567+381784697+380970269+380800589+380979294+381291170
1878+381476774+381439668+381467973+382473262+385713816+391309902+396641586
1868+397667908+393644029+388066253+384203514+382701939+382582230+382736620
1858+382650251+382468489+382554932+382968467+383619330+384719789+386744166
1848+390214776+395170516+399722417+400208485+395881606+390675187+387906306
1838+387529617+387899034+388362019+390149738+394555416+400258830+403634009
1828+403350252+401705586+400032950+397467909+394150757+391801229+391234274
1818+391653402+392134249+392852276+394598750+397283499+399419827+399686393
1808+398612821+397912285+398940733+402096745+406503542+410021812+410880505
1798+409847060+409762443+412885899+418585174+422542934+420702035+415250084
1788+411416955+411225720+413320430+415938015+418486461+420455757+421144919
1778+421353532+423517345+429512012+438405709+445528804+446389623+442261885
1768+437044316+433140965+432353948+435508767+440336631+443060015+443493874
1758+444128403+445415622+446972353+450578558+458051903+467401387+473454752
1748+473978598+471896045+470719547+471842120+474918961+478410380+480689501
1738+482892321+488746247+499235422+507854051+507378835+501654612+496906330
1728+494620646+494859167+497634425+502227534+508634281+518858233+534406523
1718+551704605+561544931+560145984+554222359+550329861+550725272+555728112
1708+564896915+576183512+586323109+595039630+605969190+620448943+632881869
1698+638104808+637838839+633883764+628625919+626967157+631309624+640191910
1688+651926910+667449169+685931544+697904320+696582083+690668789+688798653
1678+692951452+701793238+711627672+719101875+725458575+732928527+738835706
1668+739359439+737796443+739905100+746050279+751603703+753352340+754033969
1658+758434016+769723447+788776917+809083259+814557549+807814947+805791167
1648+810769395+813750543+807773628+798435032+792967754+792871987+797855062
1638+807271002+816502791+816127034+805194416+794127545+788480965+786630147
1628+785687844+785507722+787050879+787691263+783362593+776362675+772697809
1618+773044403+771460673+763885632+754605064+748248811+745182337+743794914
1608+742294494+739711851+736382691+733215752+730554050+728152125+726090904
1598+724886437+724438257+723718814+721987853+719590180+717205784+715122634
1588+713407784+712160878+711461050+711236252+711499536+713131895+717772105
1578+725395850+731154680+728992322+722660980+720575071+724175272+727913977
1568+726867927+723432931+721982781+724522538+733316292+751118753+772644928
1558+777475701+762933783+748145735+739951119+736677151+735903708+736150956
1548+738093887+744173058+755527079+770496144+786332927+797986853+796190706
1538+783024949+772694900+770900542+773468492+773712831+771491476+772204431
1528+778229976+787331541+796796781+806243374+814409573+817628796+815713462
1518+812249602+808319513+803767910+800913928+802980296+811670601+826834034
1508+843844704+848742529+834084706+816137923+807327388+807914220+814339613
1498+821128755+822235293+817412351+813613606+816394420+824705388+831372211
1488+829648560+821498024+813863688+810762607+811605936+813694381+816052971
1478+820459209+828451625+838629223+846348884+846206875+838694709+831184705
1468+829115727+832020203+835142465+834506930+832825791+836178521+846999038
1458+860317619+864195499+855457311+844648801+838455068+837383958+839668038
1448+841939961+841396985+838922639+837318920+837821994+840548659+846018101
1438+853513038+858535494+857041489+852454607+850202524+850885495+851695112
1428+851228510+851130580+852605865+854714149+856903059+859948575+862717306
1418+861611812+856439740+851144826+848023458+846530796+845319765+843921750
1408+843236988+844084195+845370930+845587747+845973947+848999026+854382247
1398+859185126+861301838+860473576+857185661+853455384+852241519+854224725
1388+856420571+855216924+851585025+850142259+853182404+858972485+864771964
1378+869694029+874211099+877940257+879656674+879740358+880197189+881698801
1368+883334965+885271257+888690740+892622171+893760631+890847429+886492655
1358+883438190+882046515+881201695+879915109+878129180+876432976+875304212
1348+874756984+874545537+874628997+875385285+877172110+879612221+881496677
1338+881662777+880006923+877455681+875242679+874397934+875300557+877232523
1328+878761285+879005475+878349801+877878725+878531863+880582418+883236439
1318+885131709+885839816+886175820+886759892+887180699+886779582+885734055
1308+885056155+885555350+886998936+888427456+889124076+889106624+888883615
1298+888903753+889083577+888767487+887283625+884499903+880779918+876619437
1288+872420918+868489710+865050239+862115259+859382030+856478151+853389749
1278+850587753+848620583+847491073+846665943+845876987+845455210+845588344
1268+845854984+845893022+845998634+846677429+847889803+849013570+849565720
1258+849786863+850247498+851072852+851908275+852464005+852847743+853536607
1248+855072901+857498170+860211336+862653238+864808436+866762032+868272967
1238+869187972+869864455+870792661+872107514+873817292+876191396+879472226
1228+883368453+887096269+889760507+890819758+890779930+891102061+892565487
1218+894258558+895087418+895566997+897082706+900067584+903810540+907553049
1208+911027053+914161995+916802515+918891631+920729024+922655098+924682309
1198+926909929+929687983+932796522+935318528+936796050+937651013+938369637
1188+939174852+940384690+942268773+944913023+948449081+952473296+955507474
1178+956649962+956919511+957309439+957350237+956952030+957560342+960035956
1168+963034333+964782001+965529115+966925489+969527971+972134556+973627815
1158+974462641+975758326+977799036+979954607+981361945+981602033+981328457
1148+981937067+984053556+986706980+988573535+989725495+991291251+993727782
1138+996543353+999210947+1001292605+1002118406+1001594151+1001254492+1003099194
1128+1007069708+1010849957+1012897380+1014193587+1015552593+1015457871
1120+1013009555+1010654619+1011170447+1014224315+1017672513+1020220548
1111+1021760050+1022715480+1023794048+1025462880+1027371352+1028518165
1103+1028016360+1026220884+1024865904+1024874854+1025009331+1024239393
1094+1024086793+1026587243+1031158686+1035289706+1037699014+1039469355
1085+1042234730+1046151543+1049674326+1050774300+1048473886+1043880142
1077+1039587870+1037662915+1038380941+1040318949+1041212697+1040179625
1068+1039344053+1041617020+1047079078+1053014823+1057208793+1059325803
1060+1060001988+1060229993+1060409294+1059732066+1057999986+1056540439
1051+1056450043+1057734763+1059682020+1061123965+1061010074+1059792256
1043+1059440440+1061071606+1064217214+1068175272+1071964545+1073741823
1034+1072323670+1068962886+1065559514+1062271897+1059689776+1059867884
1025+1062513850+1063761800+1061426704+1058201663+1057317388+1058526629
1017+1059292091+1058141548+1055894014+1054188711+1053818398+1054391134
1008+1055264147+1056247471+1057129509+1057396447+1056726379+1055458813
1000+1054161413+1053070389+1052176939+1051255595+1050083870+1048493427
991+1046179140+1043235507+1040884301+1040400470+1041071583+1040684414
983+1038435463+1035758620+1033884084+1032291328+1029654537+1025424021
974+1020768596+1017722708+1016913763+1016748708+1015089423+1011141508
965+1005889630+1001019625+997127201+993222247+988235219+982277695+976200836
955+971005642+967722277+966775276+967549912+969066964+970766524+972458552
945+973586048+973154128+970874001+967751663+964968164+962614645+960259486
935+958123829+956936441+957227620+958978569+961471188+963407406+963662261
925+962047504+959256099+956469318+954850234+954761478+955456980+955954236
915+956059997+955777918+954542050+952220901+950046162+949582693+951109217
905+953352873+954641770+954342238+953335494+952914166+953136577+952838761
895+951286057+948918293+946388009+943863318+941789268+941284927+942666608
885+944264136+943893823+941329976+938348827+936590643+936413430+937420771
875+939159339+941209969+942987918+943979148+944398314+945069128+946146205
865+946475720+944846120+941486380+937820843+935058078+933594354+933569667
855+934973723+936963343+938034453+937357299+935629769+934391664+934405462
845+934837830+934446484+933543637+933588686+934647191+934930613+933546098
835+932004732+932121457+933709886+935108050+935606947+936221822+937657055
825+938879274+938801929+938376349+939599239+942918331+946560821+948456092
815+948433642+948284100+949587690+952020865+954130194+954967854+954204928
805+951489002+946881983+941749515+938474204+939159936+943902774+949835833
795+952967792+952324201+950835864+951211771+952979875+954071123+953690517
785+952236117+950473085+949378629+949701059+951604534+953849159+954293236
776+952264757+949284877+947098800+945975183+944975077+943209360+940872847
766+939395847+940338970+943674768+947445619+949749763+950762548+951679342
756+952002294+950144092+946927479+945188538+945810201+946919872+947373272
746+947991802+948670970+948125160+946686869+945901717+945794613+945663046
736+946647489+950094493+954262358+955862124+954434126+952412136+951469983
726+950991746+949281222+945493888+941129642+939086619+940460170+942857544
716+942854113+939534276+934947171+932073648+932797044+937056052+942889541
706+947269898+948550143+948003736+946944932+944434711+939684266+934417993
696+931283125+930866346+930993811+929383230+925856644+921312127+916896417
686+914413420+915013975+916865837+915845072+910399572+903466406+897948037
676+894192626+892007071+890660520+886756461+876628537+864108608+860209397
666+865928548+873164602+877953682+881070426+884551739+888810895+891167621
656+888618691+883068921+879735286+880182495+881643833+882083285+881603333
646+879993349+876963273+873524846+870877463+868797298+866099422+862450144
636+858789678+855808753+853222680+851164666+850485498+851066139+851554818
626+850914136+848996639+845952541+842256499+838292623+832967353+824464479
616+814277857+807951064+809495489+817310916+826323352+832614791+834956004
606+833943442+832285426+833362279+836748273+838673303
##END=
