##TITLE=<SNM>
##JCAMP-DX=4.24
##DATA TYPE=INFRARED SPECTRUM
##DATE=2/5/2025
##SAMPLING PROCEDURE=Instrument type and / or accessory
##ORIGIN=Admin
##XUNITS=1/CM
##YUNITS=ABSORBANCE
##RESOLUTION=4
##FIRSTX=4497.3318
##LASTX=599.83466
##DELTAX=-1.4281778
##MAXY=1.7201003
##MINY=0.19268371
##XFACTOR=1
##YFACTOR=1.6019682e-09
##NPOINTS=2730
##FIRSTY=0.21438253
##XYDATA=(X++(Y..Y))
4497+133824458+133446061+132757348+132489782+133044308+133724045+133615410
4487+132822665+132222616+132387993+133223432+134239522+134765222+134272636
4477+132862737+131314046+130549049+131043346+132546290+134188539+135060972
4467+134891810+134145686+133524615+133467790+133953594+134498493+134459853
4457+133713618+132912595+132631783+132564234+132260409+132169810+132931691
4447+134067290+134431008+133607689+132062895+130373580+128913498+127973701
4437+127775555+128314928+129230149+129894250+129881385+129403683+129102594
4427+129345733+129881860+130239058+130211134+129800674+129028877+128067649
4417+127289546+126958095+126984968+127063243+126956700+126619780+126128200
4407+125678840+125642591+126260024+127164009+127588031+127151331+126146598
4397+125155652+124625078+124598465+124757172+124887983+125074001+125299011
4387+125378625+125346989+125305503+125015902+124264541+123349701+122683461
4377+122292405+122074287+122106713+122381897+122599177+122440145+121933179
4367+121491949+121568354+122214046+122972253+123201617+122587513+121443366
4357+120487952+120279359+120877138+121923831+122905048+123469638+123630615
4347+123533802+123142922+122501713+122073524+122274061+122822057+123083651
4337+122874510+122421113+121806247+121013837+120359754+120376628+121233555
4327+122495537+123468001+123747362+123461248+123045133+122838177+122824960
4317+122696725+122187825+121372784+120622102+120283387+120394571+120676369
4307+120837745+120925675+121264744+122033675+123062862+124012397+124562951
4297+124513354+123947936+123265055+122928358+123239140+124242737+125628340
4287+126767325+127099966+126545571+125491809+124358414+123231010+122112183
4277+121400494+121571516+122374642+123050760+123446040+124123023+125243684
4267+126165128+126397719+126241309+126088732+125746250+124979160+124191205
4257+123958019+124315961+124920996+125433394+125589477+125500180+125741143
4247+126497824+127068070+126882481+126357823+126136897+126229496+126399979
4237+126669024+126982029+126944394+126311417+125418297+124831326+124805644
4227+125264845+126008030+126693906+126938794+126752749+126628208+126910098
4217+127327023+127517700+127703745+128255173+128814806+128625087+127696136
4207+126901578+126881114+127454448+128114437+128584056+128839055+128951040
4197+129031109+129177603+129387144+129579217+129746742+129958804+130162578
4187+130189191+130046380+129958758+129987202+129869460+129412352+128856654
4177+128673186+129094454+129998244+131145498+132289291+133139530+133548623
4167+133701023+133844605+133913662+133668560+133095998+132442873+131968073
4157+131811970+131983402+132371929+132828125+133242399+133549841+133743867
4147+133887682+133977351+133837648+133363545+132787430+132439004+132348944
4137+132359213+132430288+132552141+132578335+132443878+132366766+132605822
4127+133107504+133521359+133530010+133117643+132549509+132119953+131924457
4117+131861484+131858535+132030134+132465393+132886866+132837380+132276892
4107+131637032+131243083+131134224+131444690+132377854+133724678+134897521
4097+135518973+135657849+135504164+135134512+134628457+134182074+134019739
4087+134237503+134712555+135162091+135377028+135407779+135446661+135593703
4077+135860562+136242661+136575349+136568261+136237480+135972714+135941255
4067+135819355+135372479+134917771+134881950+135147329+135163849+134643266
4057+133862288+133276453+133131187+133434090+133956990+134257846+134106032
4047+133916815+134318485+135204740+135664834+135108681+134050659+133437504
4037+133586658+134155908+134865206+135780446+136887395+137737681+137813723
4027+137246184+136830562+137114638+137765484+138066210+137724277+137030299
4017+136513017+136464127+136645475+136624853+136410158+136365984+136545592
4007+136628731+136521975+136531444+136903199+137533888+138146727+138538053
3997+138651237+138536946+138262878+137868455+137444051+137170244+137196857
3987+137549348+138166958+138901594+139469394+139569779+139217334+138954140
3977+139461292+140744854+141904619+142023394+141168476+140212104+139848916
3967+140132695+140801809+141634533+142411427+142870200+142924569+142769694
3957+142643339+142654389+142919146+143686720+145111539+146708023+147340256
3947+146578328+145715392+146134698+147233518+147279608+145930143+144430453
3937+143945951+145061896+147819530+151115226+152892202+152247691+150775386
3927+150590104+151802135+152690511+152302125+151968916+153332641+155819482
3917+156872156+154801746+150808556+147392160+145828214+145999878+147965726
3907+152590629+160100768+168507422+174463484+176125880+173736587+168074145
3897+160991339+155878028+155378550+158857156+162098846+161725045+160236797
3887+161672025+165224860+167125679+167327379+168286448+168605035+165733574
3878+162301253+162476294+166320610+171394249+176192946+179138746+178214037
3868+175167926+173900000+174479241+173390411+169219213+164836417+163619186
3858+167309612+176577072+189577895+197267661+191042629+177953438+167527088
3848+162816535+163523117+167905485+173894196+180418616+187164232+192431217
3838+193126712+189045610+183693159+179298588+175522343+172254478+170615206
3828+170995574+172736049+176469543+183682388+192000936+194865959+191430773
3818+187348742+184108912+179206909+173238030+169553370+170186970+175001834
3808+181251609+185411850+188313895+193099495+198097678+198386331+194815637
3798+191670369+189061907+185438416+181912407+180581360+181783950+184707631
3788+188748362+193275484+197259029+200657677+205075876+211253171+217136549
3778+220644977+223087904+227431167+235582450+247723026+261755585+274140667
3768+283381152+290533944+296537259+302603975+310895417+322088569+333979113
3758+344436662+354985405+369394165+390522161+417489891+442501270+457599775
3748+466643750+476974497+488535832+495134108+496563308+500022306+510044271
3738+526194101+543804833+556020418+559084723+555772023+551781186+550576531
3728+552255726+554667492+555552576+554654396+552504865+548606451+542976044
3718+537887076+536687257+541608831+551615205+560581715+561629914+556377011
3708+551550800+550840032+554798536+561388068+565657810+564271100+560355868
3698+559071961+562161456+568416235+576355047+585559942+594817821+599454797
3688+595857798+588005232+582213496+581422509+585484003+592729013+601910840
3678+612442468+620554553+619766915+612144141+605501701+600978578+594585537
3668+585496988+576974620+571346780+568706860+568141088+569205138+572139106
3658+575823840+577391228+576889750+578989237+587390050+600257913+609286038
3648+607294489+597772291+588433226+583153869+581675890+581957585+583045075
3638+585853618+590752793+596183770+601388452+608567196+618926518+626842782
3628+625137207+618677379+616604793+621133496+629533751+637615958+641668931
3618+641098918+639068302+638524185+639982779+642371104+644563125+646472447
3608+648489073+650155506+650793385+651079880+652485268+655526877+659541601
3598+663535191+666153383+666200785+664553179+664109818+667279941+674015697
3588+681063248+683968084+681867146+677955932+675458589+675197246+675761976
3578+675426442+674099413+673249825+674392158+678104612+684244682+691403632
3568+695740867+694133445+689170832+685708782+684726365+683772002+681355176
3558+678890798+678134154+678835881+679529198+679305360+678333956+677087741
3548+675554658+673470091+671593066+671559728+673211204+674053053+672766058
3538+671179769+671434787+673175560+674742724+675527125+675839739+675445269
3528+673541975+670209630+666775784+664240043+662558579+661784521+662311746
3518+663970589+665979700+667807389+669236664+669615432+668332307+665759806
3508+663115048+661909240+663088110+665791804+667556985+667198829+666477829
3498+667082519+667711320+666227053+663124201+660383896+658570420+657469238
3488+657782150+659891050+662523827+664072834+664125743+663085729+661183998
3478+658643049+656543450+656538911+659106054+662678162+665074823+665287647
3468+663732315+661480465+659418743+657676482+656118991+655116557+654888849
3458+654973309+655000098+654921666+654286614+652487649+650027291+648605829
3448+649464719+651922548+654332751+656130377+657712722+658494220+657111826
3438+654023560+651619607+651397406+652468227+652932126+652155613+651300816
3428+651561192+652468302+652574417+651506125+650096719+648677788+646874135
3418+644995621+644097441+644626526+645958021+647180424+647914223+648323353
3408+648422026+647705714+645749512+643023048+640788908+640103330+640927021
3398+642402135+643946529+645442032+646464038+646380396+645431540+644303941
3388+642815804+640559043+638319397+637373963+637722966+638091168+637626674
3378+636929338+637274620+638903102+640470862+640723201+640067090+639662425
3368+640049454+641363238+643534497+645668921+646547456+646432412+646921165
3358+648472256+649534891+648265756+644246344+638776747+634302812+633055480
3348+635303610+639065920+641836438+642644056+642345580+642110134+642117277
3338+641846037+641111941+640251116+639500500+638849896+638256368+637615438
3328+636935663+636530626+636641132+637222605+638407875+640331782+642231131
3318+642637954+641019444+638658205+637249394+637112695+637322989+637139558
3308+636576689+636104158+636512618+638274897+640507474+641278926+639486882
3298+636108549+633343315+632701268+633937587+635781349+637517583+639378535
3288+641463771+642916635+642527821+640491772+639286187+641620116+647221798
3278+652484375+653967600+651731005+648337045+645902285+645200335+645969778
3268+646855383+646236479+644400828+643779171+645873337+648842243+649351535
3258+646659003+643339755+641979611+642720777+643955682+644400158+644124900
3248+643729760+643005337+641269848+639033922+637777958+637756899+637654133
3238+636825977+636424140+637617447+639749267+641029862+640715982+639885221
3228+639689661+639668229+638531700+636041427+633293234+631599342+631666240
3218+633314963+635377056+636100810+634695719+632414327+631075540+631109473
3208+631768709+632454064+633025342+633325604+633290183+632949589+631900496
3198+629816302+627696909+627209421+628511373+629812953+629415358+627447323
3188+625298909+624125471+624227493+625194208+625915729+625028562+622421347
3178+619792663+618817575+619341489+619867635+619152440+617151403+615151891
3168+614767207+616017776+616980734+616028380+613541083+610870727+608826121
3158+607622210+607276220+607559032+607881953+607481604+606088197+604504363
3148+603893385+604321267+604622124+603809148+602089621+600398370+599345483
3138+598847800+598540693+598100197+597387681+596796013+596931298+597402117
3128+596920434+595212217+593464635+592400660+591470184+590226722+589119102
3118+588752947+589226854+590058471+590438914+589999386+589236826+588652823
3108+587966649+586787294+585478868+584695360+584427134+584065741+583212954
3098+581972393+580542412+578976177+577442648+576427452+576425852+577479855
3088+579099556+580545537+581172328+580662368+579220517+577587533+576508303
3078+575998044+575354807+574087383+572631654+571730163+571330484+570816542
3068+570067264+569445831+568995848+568461665+567898423+567611891+567652187
3058+567701151+567379830+566668318+565982516+565593367+565250317+564736598
3048+564358648+564421082+564606225+564182919+562688420+560364425+558001959
3038+556309555+555452898+555224372+555420862+555850382+556015581+555183258
3028+553296521+551506635+550903024+551032951+550627207+549360937+547844597
3018+546338006+544554891+542611005+541387523+541561615+542531233+542934670
3008+542296232+541410107+541049793+541059988+540669425+539209901+536802488
2998+534551456+533537785+533590545+533620868+533120619+532659622+532745199
2988+532905896+532377704+531271387+530439175+530270701+530205998+529567002
2978+528373360+527048117+525751113+524429590+523203132+522259559+521624582
2968+521308172+521289718+521193016+520567750+519624438+519029645+518937520
2958+518843349+518377664+517696364+517002116+516098951+514679796+512845150
2948+511043878+509602734+508580505+507914944+507449483+507073877+506990979
2938+507458561+508155488+508233511+507238890+505766046+504907491+505050106
2928+505457524+505164444+503964142+502283793+500551578+499016895+497713269
2918+496398555+494967345+493802390+493272114+493180473+493073651+492735327
2908+492207283+491667445+491363239+491428203+491688244+491622238+490610837
2898+488555663+486253435+484746323+484298014+484399813+484586518+484687647
2888+484451159+483615375+482370871+481253726+480620461+480473121+480574138
2878+480546940+480112732+479338266+478482279+477638049+476714865+475707222
2868+474793489+474142550+473692232+473218511+472584316+471787822+470878703
2858+470033804+469524289+469382902+469318348+469040820+468450752+467636920
2848+466844111+466138291+465199444+463925881+462862129+462360465+461841574
2838+460620288+458935102+457474313+456426113+455569940+454856605+454437095
2828+454325399+454319669+454175417+453790583+453336136+453080783+452948474
2818+452531196+451691357+450762109+449984666+449151412+447962830+446485633
2808+445132484+444230843+443697144+443252333+442812656+442390839+441801850
2798+440843989+439631335+438498080+437672826+437073047+436367599+435390986
2788+434408420+433705541+433195617+432712296+432283223+431838338+431118491
2778+430134065+429276106+428749699+428213582+427198646+425712444+424231712
2768+423169597+422531494+422090255+421706501+421367134+421012811+420473903
2758+419620557+418533997+417469390+416630927+415982258+415307543+414503386
2748+413723115+413075488+412324090+411239613+410132031+409547098+409456461
2738+409234037+408463366+407334985+406240537+405416771+404935497+404611869
2728+404025820+402991313+401850616+401059072+400681643+400416356+399905502
2718+399017442+397965262+397052050+396295740+395527450+394732222+393992024
2708+393267080+392468429+391575681+390622918+389769721+389276726+389168342
2698+389096793+388729633+388038808+387122173+386065565+385037532+384196799
2688+383510960+382933766+382586437+382438725+382090466+381278160+380286702
2678+379489204+378864087+378272680+377776708+377418887+377062815+376623771
2668+376160617+375673612+375068401+374348741+373648242+373043998+372474692
2658+371870002+371239080+370607043+370045624+369770366+369920720+370192295
2648+370000232+369112767+367899815+366882758+366202425+365604432+364858652
2638+364048765+363408430+363029364+362825655+362634298+362253967+361543348
2628+360591366+359693186+359069632+358673153+358349897+358088331+357943856
2618+357816049+357521964+357021193+356402624+355775275+355260700+354928627
2608+354721867+354571773+354473211+354332754+353946433+353249580+352435972
2598+351772420+351388814+351218517+351071140+350784757+350334885+349787271
2588+349155345+348380134+347524668+346870343+346611456+346556054+346371023
2578+345994859+345560131+345084959+344512639+343928635+343509088+343286068
2568+343093335+342774917+342371926+342021212+341746474+341472518+341167234
2558+340848034+340539363+340295657+340142773+339976680+339663805+339195628
2548+338625019+337990265+337421815+337121367+337099936+337119358+336982287
2538+336720832+336460383+336247707+336051885+335835972+335601791+335373079
2528+335120182+334756296+334289718+333929665+333914782+334231861+334611858
2518+334797819+334701490+334316842+333679335+332967861+332444245+332185023
2508+332024213+331822365+331604256+331369107+330993315+330439003+329876915
2498+329507188+329387046+329450484+329565640+329583649+329438504+329212545
2488+329070823+329083771+329079938+328774505+328142133+327511583+327161055
2478+326998125+326764464+326382793+325976045+325654761+325396209+325146103
2468+324969071+324957239+325002669+324858715+324460375+323990412+323605281
2458+323292108+323046467+323012199+323310042+323788340+324077253+323920835
2448+323400567+322823857+322433814+322241491+322133888+322083174+322134148
2438+322218013+322157589+321887465+321534034+321247911+321067978+320967928
2428+320927000+320913791+320891281+320865310+320826838+320675182+320362158
2418+320061599+319996152+320149706+320312078+320333732+320222632+320052595
2408+319854802+319615820+319390606+319343427+319577683+319965307+320235840
2398+320232864+320038977+319836310+319706234+319648377+319704522+319857332
2388+319855509+319375351+318365028+317064230+315683213+314171598+312332003
2378+310122476+307783952+305627687+303753006+302037459+300341781+298635500
2368+296972676+295476391+294352791+293769104+293707378+294158012+295410850
2358+297822598+301378707+305910368+311542617+318202470+324823219+329829848
2348+332317145+332666520+332324698+332373514+332153731+330428176+327251394
2338+323599886+320076333+316732603+313600915+310891083+308816450+307412365
2328+306472029+305593419+304419776+303029532+301989276+301796506+302376212
2318+303259267+304046124+304588604+304930872+305215916+305594591+306168679
2308+306958958+307841586+308548112+308868819+308881079+308884911+309107912
2298+309531404+309971360+310271882+310440448+310595695+310781154+310936048
2288+311057994+311216440+311377938+311398867+311209501+310876963+310524816
2278+310274319+310207755+310339580+310623917+310946019+311130585+311064189
2268+310800744+310504780+310346724+310429119+310694238+310943917+311053845
2258+311087201+311112242+311055482+310860554+310650948+310582654+310645590
2248+310743259+310860108+311020340+311183754+311318611+311516125+311905758
2238+312456089+312948600+313207227+313316467+313534426+314008817+314664370
2228+315354115+316022393+316708232+317473917+318348397+319284082+320176681
2218+320996056+321867224+322957319+324325351+325920606+327653380+329445722
2208+331272927+333151180+335075347+337009895+338898678+340680490+342409989
2198+344298586+346478031+348838489+351182017+353352012+355241799+356901423
2188+358511264+360108641+361558789+362817990+363969253+365050418+366036779
2178+366910626+367666117+368293429+368747244+368934805+368774703+368242939
2168+367386393+366330492+365214613+364095646+362909929+361462609+359565789
2158+357304377+354978075+352738540+350490262+348056469+345303513+342263021
2148+339071505+335776925+332753734+331216595+332333553+335843414+340399278
2138+345044738+349585794+354023675+358424348+362940141+367576075+372232139
2128+376915773+381691085+386615895+391762498+397123562+402624153+408270261
2118+414089828+420054504+426219428+432676391+439328655+446063294+453104335
2108+460934911+470119938+481440097+495799409+513677957+534794530+558030682
2098+581142377+601155461+616246897+626837424+634281678+639639208+643644109
2088+646306875+646643004+643426522+635754486+623269000+606571927+586880014
2078+565361009+543226820+521501836+500498223+480415785+462009676+446006554
2068+432569942+421476300+412126706+403758412+396193384+389777125+384543309
2058+380184866+376519219+373383327+370571845+368116100+366148661+364656060
2048+363670740+363302948+363533558+364346459+365883374+368370745+372309827
2038+378653569+388392164+402063590+419703343+440970419+465292834+491869889
2028+519228108+545102692+567548676+585973723+600726723+612329916+621237416
2018+627730023+631927285+633854020+633466545+630878863+626357675+619884862
2008+611159715+600111206+587064524+572552366+557115573+541049719+524399936
1998+507459938+491129988+476365453+463177236+450563088+437757881+425162336
1988+413639399+403539560+394774452+387226576+380760572+375146053+370148874
1978+365660913+361753345+358506576+355761955+353306247+351281621+349951615
1968+349017753+347689495+345612258+343272748+341324508+339954318+338999993
1958+338288034+337667121+336957358+336081428+335193703+334591245+334462285
1948+334802507+335664782+337123228+338557116+338589524+336706657+334196998
1938+332552220+331986411+331904667+331851200+331714055+331570249+331535944
1928+331734221+332453100+333855846+335346029+336129127+336501348+337141645
1918+337362656+335954477+333557445+332119687+332488521+333795087+334611709
1908+334266985+333213204+332314020+331969630+332012493+332201654+332578562
1898+333336621+334335967+335021843+335335574+336151563+337806871+338962488
1888+338313037+336595407+335302348+334763179+334531862+334411721+334440482
1878+334582799+334767384+335094695+336229661+339308030+344530126+349554094
1868+350679981+347246916+342488459+339311379+338103450+337900894+337906587
1858+337866998+337840990+337958044+338247850+338779912+339857171+341877295
1848+345239368+349983166+354419410+355126903+351295797+346554082+344039252
1838+343697021+343942849+344198610+345732102+349828161+355185021+358280468
1828+357880529+356272920+354774998+352554291+349717061+347845654+347606263
1818+348125079+348527288+349142248+350883988+353635716+355762327+355836220
1808+354437269+353395953+354115986+356953848+360989408+364161167+364876549
1798+363952473+364031501+367121106+372534633+376180671+374238794+368776787
1788+364802618+364318851+366018399+368144489+370204090+371902223+372595727
1778+372868678+374899034+380397132+388345097+394254706+394141745+389537995
1768+384145937+380057543+378774604+380991851+384722424+386715536+386843454
1758+387151269+387847824+388652167+391396566+397774389+405820655+410727941
1748+410471732+407646297+405389833+405093069+406648700+408761544+409963632
1738+411250887+415867399+424472591+431097134+429448896+422997104+417109001
1728+413165082+411550218+412421423+414973498+419151784+426944930+439764536
1718+454071609+461149857+457588650+449676814+443499760+441333635+443727356
1708+450268482+458793529+466233430+472649130+481394890+493075884+502192599
1698+504787126+502878214+497615451+491025659+487873619+490222617+496367375
1688+504957944+517583292+533939361+544678307+542121657+534252236+530089205
1678+532132695+539145049+547298880+553357057+558812293+565898652+571728116
1668+572154696+570264723+571882935+577497529+582336168+582870239+582009898
1658+585117401+595559508+613820509+632905015+636841529+628638398+625088763
1648+628422671+630102573+623550286+614058188+608703188+609226097+615316570
1638+625958220+636542086+638072341+629201863+619967425+616813785+619082751
1628+623174493+626693581+629816450+632068524+631749659+630436247+632317142
1618+638105530+642524175+640621923+635866479+633648487+634830930+637267551
1608+638760748+638958317+638915604+639332026+639828890+639832313+639564496
1598+639755443+640682049+641875357+642673003+642796680+642409949+641919410
1588+641774749+642223690+643166146+644300890+645647490+648215601+653720917
1578+662446585+670201668+670813353+666686040+665631590+669561556+673700180
1568+673668331+671716742+671752387+675396974+684632008+702152549+723441578
1558+729893220+718416382+706335747+700358347+699381734+701560063+705413605
1548+710823969+719646971+733479095+751367019+770023345+782526654+779350132
1538+765631267+756793456+757256313+761389281+761691850+758518081+758178157
1528+763302695+771415562+779614823+787775166+795134142+798225087+796687391
1518+794179928+791937454+789287190+787525953+789202209+796122959+809142032
1508+825481619+832563327+820772089+803898207+795031599+795251940+800993968
1498+806794560+807333468+802789063+799340780+801859108+809587029+816289745
1488+815761925+809454349+803399037+800913823+801384047+803001664+805531154
1478+810065141+816924574+824956329+831342040+831662319+825110440+817806978
1468+815392012+817954765+821172735+821469053+821504772+826649030+838421218
1458+851120905+853061406+842562669+830788249+823879480+821741335+822552004
1448+823683473+822822127+820115978+817725271+817467128+820162189+826005570
1438+833516127+838124007+836313434+831413254+828287558+827536718+827064634
1428+826072394+826044116+827840998+830489476+833438290+837277545+840526844
1418+839338895+833833578+828364725+824985276+822609675+820175956+818451405
1408+818855475+821134412+822943348+822684535+821893661+822895500+826016806
1398+830226421+834284008+836175767+834104744+829690043+826887602+827381489
1388+829074563+828700854+826332248+825502455+828477760+834161894+840353310
1378+846364866+852529567+857897292+860317764+859603908+858337824+858508084
1368+860078671+862876797+867120047+871509893+873214352+871192219+867488844
1358+864228904+861869376+860171168+859045057+858326513+857531025+856394644
1348+855360584+854934488+854940515+855167330+856186284+858458896+860855035
1338+861264091+859142912+856347912+855124690+856155254+858547449+861183649
1328+863685159+866056221+868033929+869394891+870587826+872333659+874632167
1318+876651398+877711504+878068767+878611321+879979130+881997393+883934620
1308+885394256+886722997+888330866+890056384+891572798+892878843+893822192
1298+893745174+892310541+890209975+888458263+887314144+886219808+884439818
1288+881539820+877607398+873289510+869410964+866327833+863798120+861621354
1278+860014824+859081967+858465221+857893124+857517184+857570464+858247783
1268+859660984+861316627+862170233+861865953+861258807+861107597+861013687
1258+860275720+859176324+858698808+859268970+860319848+861251812+862339228
1248+864172944+866567893+868605281+869789808+870660306+871848255+872998179
1238+873438413+873633528+874893287+877805340+881836361+886131031+889832844
1228+892017498+892383616+891868967+891898956+893273759+895961826+899338745
1218+902433411+904583835+905980665+907116599+908129823+909249163+910969993
1208+913157177+915058163+916558429+918318699+920693928+923451125+926294643
1198+929154458+932222558+935606919+938777339+941094450+942883518+944932961
1188+947243599+949284856+951074966+953288344+956500808+960386944+963680519
1178+965421515+965976795+966260759+966667136+967440002+969218131+972262493
1168+975634352+978098134+979690525+981318784+983048618+984146824+984378178
1158+984087888+983689622+984164385+986900151+991814023+996840186+1000102433
1148+1001559241+1002016219+1001837774+1001168640+1000633527+1001021226
1140+1002224951+1003036959+1002585339+1001794167+1002607217+1005771163
1131+1010033761+1013565015+1015507079+1015999404+1015695719+1015811210
1123+1017760417+1021922333+1027002743+1031076701+1033120638+1033522252
1114+1033321333+1033039452+1032774314+1032816135+1032915999+1032163001
1105+1031071269+1031659886+1033730016+1034015321+1031444457+1029595783
1097+1031360443+1035171421+1038382620+1040965315+1044000599+1047672496
1088+1051850858+1055878083+1058177558+1058305849+1058182842+1059468348
1080+1061144976+1061754131+1061733370+1061599275+1061010286+1060728554
1071+1062299588+1065338666+1067679590+1067883411+1066424147+1064794103
1063+1064046239+1064046984+1064226992+1065061622+1067521981+1070685555
1054+1071408266+1067771566+1062212374+1059493575+1061707697+1066801428
1045+1071446738+1073741823+1073328526+1071048920+1068980575+1068793795
1037+1069864244+1070191295+1068735454+1066202542+1064306615+1064588496
1028+1066768016+1068680388+1068997244+1068850276+1069412475+1069756344
1020+1068895445+1068075325+1068779508+1069976015+1069225026+1065995670
1011+1062370653+1060546983+1060540807+1060633676+1059799864+1058518673
1003+1057514006+1056840632+1056365794+1056300979+1056538733+1056129008
994+1054371492+1052048130+1050263006+1048516726+1045675069+1041998334
985+1038875986+1037119809+1037001565+1039078021+1042763164+1045262367
977+1044139456+1040393516+1037053134+1035282893+1033397980+1029329008
968+1023189236+1016742951+1010938341+1005717436+1001790148+1000213087
960+1000057784+998658796+994776009+989979711+986284076+983799309+981300924
950+978264301+975523178+974010410+973561766+973283011+972759506+972398374
940+972592595+973121234+973660440+974334856+975234599+976016470+976228030
930+975670071+974690259+973836727+972905358+971104458+968503754+966155240
920+964631310+963753296+963565400+964218311+965082856+964980536+963484735
910+961393397+959765361+958751839+957485904+955319704+952997310+952075838
900+953205893+955313974+956467693+955370083+952278914+948969489+947416388
890+947818300+948426413+947996076+947330217+947520568+948369486+949473720
880+951050930+952788652+953458232+952638484+951444954+950575348+949308966
870+947299112+945747723+945978333+947998680+950827836+953221520+954054587
860+952895883+950330228+947450098+945061549+943311623+942034898+941458782
850+942294678+944579568+946644638+946492684+944421735+942850850+943121569
840+943613968+941992109+938698385+936558305+937104357+938921330+939873163
830+939753356+939855006+940891299+942694952+945253017+948691328+952379522
820+955444348+957789588+959504316+960287898+960317069+960565315+961505316
810+962753615+964559352+967843923+971724106+973029853+970328615+966614376
800+965009558+964043884+960425639+955102712+952874675+955998809+961473467
790+965187557+966475147+966940608+966762163+965201770+963281436+962831155
780+963724796+964331570+963985171+963635201+964235501+965600110+966943882
770+967505933+966723393+964166965+960306279+956721297+954497129+953608027
760+953802323+954862950+956312316+957712570+958680178+958567143+957322416
750+956217736+956335087+957373017+958967566+961381267+963976390+965041556
740+964369967+963923184+964720831+965174386+963878461+962087756+961609645
730+962103979+961917496+960069567+956589733+952475293+949710134+950061071
720+953507047+958103616+961507920+962560585+961752743+960965812+962373061
710+966162235+969117746+967296457+960523345+952248330+946096205+943712121
700+944451278+946190934+947139493+947356262+947790841+948415921+948291277
690+946924585+944582247+941702266+938468594+934238887+927931608+920380123
680+915235716+915166883+917550818+917349230+913910621+909798266+904737723
670+897560467+893395278+898565804+905898586+905140677+897181550+890108102
660+889365522+892671078+895091997+895822076+896366044+895781966+892601426
650+888582089+886436874+886362385+887485148+890153867+894224029+897108996
640+896219374+892475369+889059605+887794786+887784368+886467161+881612002
630+873676316+865943260+861106407+859240692+859274253+860809643+863182490
620+864084689+862401215+861297428+864902799+872802171+878808444+875927645
610+864842003+853983920+850458544+854664289+861233209+863883696+861956962
600+859838313
##END=
