##TITLE=<SNM>
##JCAMP-DX=4.24
##DATA TYPE=INFRARED SPECTRUM
##DATE=2/5/2025
##SAMPLING PROCEDURE=Instrument type and / or accessory
##ORIGIN=Admin
##XUNITS=1/CM
##YUNITS=ABSORBANCE
##RESOLUTION=4
##FIRSTX=4497.3318
##LASTX=599.83466
##DELTAX=-1.4281778
##MAXY=1.8018939
##MINY=0.25463414
##XFACTOR=1
##YFACTOR=1.6781445e-09
##NPOINTS=2730
##FIRSTY=0.27614835
##XYDATA=(X++(Y..Y))
4497+164555762+164715700+164306744+163563828+162964352+162660512+162410570
4487+161871759+161035626+160530539+161136888+162705673+163997825+164036752
4477+163214506+162620873+162728174+163189413+163502808+163364677+162683829
4467+161719031+161061927+161210571+162206341+163626056+164661482+164473502
4457+163044019+161501340+161021951+161513043+161877531+161528476+161145466
4447+161725194+163264161+164713853+165090151+164355208+163243312+162477611
4437+162212929+162119232+161894189+161579764+161356035+161221368+161026391
4427+160682575+160199261+159620777+159047566+158657435+158568764+158709771
4417+158993295+159535249+160428034+161394129+161953718+161812781+161025858
4407+160041632+159460021+159388736+159306974+158934690+158739109+159151173
4397+159823994+160124922+159928861+159501134+159025598+158699577+158837263
4387+159391649+159847507+160021528+160327713+160826655+160807137+159723478
4377+157920113+156220568+155261044+155146906+155379000+155301943+154847275
4367+154595824+155042323+156018079+156788290+156640925+155542508+154259023
4357+153684871+153996082+154575383+154834630+154877945+155150653+155720951
4347+156193538+156140527+155446502+154371793+153345158+152623322+152189201
4337+151940857+151863286+152089643+152751365+153570361+153898904+153561836
4327+153185450+153212959+153230469+152790577+152243721+152166043+152480396
4317+152727479+152887417+153313191+153961931+154286372+153963654+153233116
4307+152478780+152010846+152186785+153117912+154312957+155153459+155564458
4297+155774797+155793284+155551885+155230339+155114780+155302867+155663074
4287+155972296+156096325+155983129+155420254+154167439+152600128+151735527
4277+152209854+153592915+154936053+155668651+155811931+155646434+155376673
4267+155015667+154561140+154231674+154308500+154739832+155195566+155530361
4257+155888366+156371822+156939473+157556229+158085485+158202287+157786955
4247+157177587+156675254+156186666+155725462+155780160+156681381+157947835
4237+158719325+158671305+158171883+157661310+157264127+157014044+157035302
4227+157300853+157522806+157479314+157233511+156998203+157018040+157473614
4217+158240132+158912455+159209494+159129951+158724138+158059255+157382829
4207+157045549+157254538+157919296+158678106+159206475+159501791+159672331
4197+159596269+159097878+158346686+157782036+157671486+157853996+157920397
4187+157707377+157531455+157696455+157902283+157613378+156977460+156841887
4177+157761240+159342279+160675862+161252322+161356923+161538066+161762541
4167+161439663+160370796+159159964+158491636+158487605+158888001+159397225
4157+159764483+159853669+159739798+159664144+159804956+160019930+159955393
4147+159562403+159248049+159260143+159262949+158837459+158139224+157783830
4137+158179094+159087720+159871837+160146073+160047936+159881267+159758818
4127+159677499+159688190+159822573+159972123+159956992+159713817+159387991
4117+159245651+159461105+159925860+160346058+160592412+160762651+160902255
4107+161015274+161296596+161893248+162505990+162651295+162182703+161295193
4097+160291484+159496960+159106633+159027090+158990826+158786952+158415556
4087+158127379+158228269+158750457+159368473+159662120+159464763+159020644
4077+158786916+158956214+159240750+159320009+159336507+159601011+159977539
4067+160053637+159813410+159596092+159483108+159253465+158868644+158580023
4057+158578140+158742483+158773135+158605578+158598031+159073655+159819590
4047+160345223+160479003+160441034+160471650+160596568+160640877+160401431
4037+159876437+159317185+159062857+159303457+159882333+160353961+160405533
4027+160191696+160125668+160412814+160930226+161468255+161873198+161997511
4017+161751051+161235433+160709817+160446486+160598521+161014563+161221812
4007+160889096+160290046+160051115+160508305+161449910+162376242+162928603
3997+163101719+163103779+163124823+163238730+163345444+163220509+162871223
3987+162748455+163228447+163995019+164368546+164209016+164060834+164415145
3977+165223095+166090805+166610365+166594825+166266033+166036835+165944665
3967+165679699+165309138+165388326+166157170+167166046+167813756+167844728
3957+167364771+166782947+166679714+167419522+168824106+170172998+170644555
3947+170169322+169672032+169929823+170510936+170392128+169376343+168219640
3937+167777741+168668359+171107357+174284334+176258293+175738751+173933859
3927+173146989+173955170+174884077+174816468+174631702+175589290+177257686
3917+177912197+176558795+173945615+171509565+170071025+169850173+171313043
3907+175336188+182049249+189581572+194845793+196157267+193765774+188563230
3897+182445205+178361857+178267788+181271471+183847783+183542042+182549256
3887+183994793+187030408+188558098+188586690+189118575+189042601+186440628
3878+183558168+183724801+186960170+191399233+195854758+198634642+197601169
3868+194444526+193166689+194289259+194651082+192274579+188917737+187466003
3858+189931337+197318125+207965393+213964805+208672010+198431656+190619218
3848+187229185+187852245+191158491+195665215+200650477+205803614+209637092
3838+209846969+206704853+203110981+200555536+198445969+196489131+195448146
3828+195460968+195966569+197964734+203395979+210616204+213787072+211540210
3818+208441230+205767617+201249118+195576349+192217110+193237565+198258185
3808+204324406+207986882+210076523+213715094+217976904+218929448+217070355
3798+215766607+214848107+212641717+210072740+209253851+210752700+214139679
3788+219249911+225589019+231716971+237009819+243097991+251584173+261307205
3778+269923508+277714386+287098521+299601277+314589453+329256793+340283271
3768+346790309+349712070+349871902+349301551+350823931+354674600+358111410
3758+359600794+361666177+368072662+380314289+395756067+407923034+413947806
3748+419027723+428022845+439480763+447256155+450598629+455486641+465864096
3738+481666739+499612124+514758818+524467429+530235831+534840692+540222230
3728+547284062+555199608+561841082+566394087+569731731+572348214+574132718
3718+574997231+575200111+576001720+578327948+579494366+575051574+566183926
3708+558103149+553770250+553565985+556102871+558416597+558399122+556948737
3698+555797273+555717250+557451958+562118941+570127084+579283849+584137693
3688+581685624+576281249+573080599+573187721+575230727+577946412+581899621
3678+588137573+593915743+593715988+588807766+585057756+583037198+578627189
3668+571150896+564390755+560186503+557595097+555692636+555290677+557329989
3658+560321224+561836110+563127622+567889154+576556976+584673698+585736970
3648+578421539+568289302+560277004+555690114+553728374+553193151+553508730
3638+554514072+555823876+557166605+559159495+562956247+568245437+571524867
3628+569624857+565333905+562908724+563716372+567881873+574750557+581307782
3618+583906399+582899529+581351363+581271482+583840584+589578688+595760095
3608+597290254+593844884+591110836+593129050+598321702+602555257+604401421
3598+605797427+607998844+609543317+608740535+606729993+606230110+608332715
3588+611117412+611493692+609169524+606563270+605621470+606638640+609206392
3578+612997745+617084538+619520801+619232606+617988333+618596050+621180992
3568+622450838+619776035+615071580+611688260+610376858+609927908+609085061
3558+607675061+606644110+606865814+607956862+608553496+607859258+606454230
3548+605442174+605187580+604947477+603738438+601419101+598560597+595839798
3538+594004112+593597606+594444999+595728946+596500117+595992988+594032775
3528+591556909+590112562+590299104+591038770+590750682+588904589+585883732
3518+582255194+579269216+578795474+581186097+584015120+584305126+581571860
3508+577848666+575366407+574712766+574739866+574042537+572425395+570481271
3498+568470587+566392063+564697384+564182015+564895433+565753410+565852897
3488+565623911+565839577+566004524+564818749+562101928+559173880+557309815
3478+556603571+556412981+556304117+556041460+555212004+553807331+552670714
3468+552505696+552920229+553014175+552369484+551202463+549974138+548794437
3458+547431924+546198093+545916754+546492326+546516194+544959645+542437144
3448+540453418+540065879+541058505+541873328+540887343+538216056+535580607
3438+534174762+533493701+532430144+530856404+529667256+529486930+529843816
3428+529624030+528294869+526525068+525257353+524452511+523458144+522302241
3418+521631409+521778916+522743057+524411381+526081873+526582928+525538515
3408+523808389+522417355+521718712+521461454+521124387+520393493+519482274
3398+518676012+517731654+516242093+514494669+513346757+512992356+512419057
3388+510763732+508768747+507929488+508536884+509510793+509799272+509196883
3378+508203191+507553102+507564823+507817144+507766388+507620906+508047764
3368+508991233+509476696+508850617+507553315+506237260+504783252+502918156
3358+501190730+500497450+501062438+502329549+503516780+504063724+503769279
3348+502852519+501997099+501947160+502714211+503542602+503830832+503509428
3338+502674182+501702831+501356777+501826505+502294280+502033114+501186965
3328+500210996+499224549+497948559+496066663+493848766+492210063+491759373
3318+492173835+492832839+493439454+493781779+493634804+493071237+492313031
3308+491475441+490867192+491015693+492052967+493418143+494294306+494246641
3298+493569557+493074079+493215193+493529102+493333575+492797996+492790715
3288+493715395+494937647+495539041+495407375+495264379+495693083+496509682
3278+497106316+497060320+496383557+495421191+494500915+493646064+492763153
3268+491959376+491340081+490696740+489777459+488738481+488141882+488491523
3258+489604485+490389543+489717539+487795366+486088291+485657456+486201346
3248+486784093+486824370+486294474+485553707+485035284+484747231+484157416
3238+482861784+481235371+480034892+479494483+479209485+478871778+478663428
3228+478717593+478730664+478460939+478025131+477336007+475943339+473920259
3218+472161008+471249860+470673861+469616521+468007973+466371722+465127271
3208+464444292+464318984+464470398+464527937+464355887+464014983+463599243
3198+463083910+462137386+460416565+458316695+456775170+456046088+455497368
3188+454772690+454219601+454053838+453926576+453406128+452423695+451316771
3178+450498219+449896221+448965965+447508192+446052799+445165981+444749388
3168+444162805+442895445+441126533+439517489+438367943+437347150+436233939
3158+435285177+434558511+433609856+432310529+431294532+431104616+431391212
3148+431423321+431031520+430524498+429936032+428982902+427731809+426650423
3138+425864263+424958336+423682594+422389768+421571642+421297939+421282879
3128+421215928+420897365+420310711+419663428+419137190+418601008+417817761
3118+416803113+415675375+414424069+413176316+412245242+411570219+410732523
3108+409749415+409144611+409149584+409418563+409463067+408962048+407868940
3098+406559740+405665676+405511669+405791304+405911462+405605153+405076927
3088+404583437+404070270+403333694+402421055+401692932+401419939+401382751
3078+401064118+400288933+399441399+398979804+398965739+399079823+398926207
3068+398322043+397364011+396287206+395298167+394447578+393625083+392817044
3058+392269389+392086045+391913178+391437838+390776240+389987133+388833005
3048+387382194+386178731+385560076+385359895+385283460+385083635+384519499
3038+383583240+382628369+381989433+381582643+381019467+380062607+378912457
3028+378051709+377790828+377897560+377707645+376764708+375349237+374181612
3018+373658287+373590483+373565407+373280374+372596720+371556712+370414305
3008+369507775+369004979+368773330+368502965+367957370+367169151+366462481
2998+366167751+366169136+365928323+365173952+364294203+363775246+363574995
2988+363299978+362671661+361630907+360325294+359168289+358605646+358606960
2978+358556560+357848256+356548291+355299187+354582359+354270723+353936603
2968+353377582+352681213+351910362+351001664+350020972+349251328+348897887
2958+348888546+349003802+349015665+348740683+348176157+347541661+347046786
2948+346682582+346297920+345790188+345196501+344636948+344149639+343596514
2938+342770006+341627457+340449958+339689407+339518600+339586866+339378374
2928+338763697+338041577+337466360+336912773+336116491+335130293+334280592
2918+333732759+333445595+333457103+333792288+334142603+333980392+333020016
2908+331500903+330057444+329208737+328907756+328734996+328495461+328347741
2898+328360066+328251131+327720880+326905951+326267903+325995620+325828045
2888+325566454+325294065+324970530+324410763+323765931+323391001+323201476
2878+322755722+321981035+321291769+320950653+320700285+320109831+319108005
2868+318104936+317600542+317669519+317874885+317750216+317279316+316754499
2858+316320467+315887145+315355402+314723285+314096993+313678838+313535841
2848+313404495+313013795+312518956+312279101+312320764+312351203+312171091
2838+311800068+311301748+310714774+310112279+309597763+309262542+309092801
2828+308839805+308190461+307203766+306293755+305673039+305170634+304654733
2818+304224217+303933714+303682742+303385277+303022530+302596170+302159616
2808+301794205+301501570+301215614+300934416+300725960+300565595+300272996
2798+299713656+298991891+298321663+297803719+297438539+297189805+296915942
2788+296410376+295611270+294669435+293800518+293123524+292597872+292109249
2778+291624940+291182526+290763589+290319185+289847397+289318585+288673450
2768+287991377+287447345+287031054+286545911+285925462+285313253+284801897
2758+284314872+283798935+283340413+282991411+282642214+282196212+281721956
2748+281283431+280765860+280056721+279288161+278718094+278430006+278249094
2738+277898761+277220630+276323884+275513910+275020935+274810366+274659716
2728+274376529+273947096+273498608+273118653+272765708+272375683+271950158
2718+271511774+271085006+270686456+270211702+269457527+268419242+267399657
2708+266695562+266366575+266352083+266550932+266748040+266704886+266358583
2698+265797538+265113458+264407037+263839794+263533716+263426983+263294696
2688+262953348+262434286+261911760+261513459+261276073+261164280+261017696
2678+260653528+260128818+259684059+259385298+259105397+258836276+258691042
2668+258639257+258538953+258369407+258214335+258092099+257929461+257626491
2658+257114408+256429297+255718721+255143255+254813256+254764116+254869410
2648+254843730+254493201+253932334+253433871+253124934+252927773+252724840
2638+252484790+252265945+252144881+252107995+252008065+251696340+251223877
2628+250821616+250623335+250503657+250288665+250009723+249788747+249593876
2618+249300212+248907097+248534990+248282900+248170894+248133617+248042140
2608+247830612+247598340+247499955+247558063+247653234+247669412+247594167
2598+247492461+247422543+247366815+247238435+246994265+246736101+246626243
2588+246699659+246827436+246853755+246714843+246451689+246150548+245873595
2578+245661854+245567517+245594742+245652086+245662901+245662866+245708027
2568+245777252+245838965+245930105+246102936+246339398+246571066+246767410
2558+246940668+247049442+246989630+246732816+246394789+246123785+245951273
2548+245766721+245458263+245082001+244796986+244613907+244363344+243957567
2538+243525630+243233316+243089627+242988258+242867567+242747889+242619473
2528+242403629+242087126+241791579+241638372+241621642+241638549+241581507
2518+241420716+241241918+241168306+241247600+241446982+241683213+241812304
2508+241711255+241434835+241181839+241078818+241095494+241152234+241187149
2498+241139075+240984961+240790979+240654074+240600139+240558548+240414983
2488+240123468+239802845+239641930+239650472+239601954+239288577+238763032
2478+238275741+238001913+237864653+237657405+237315684+236957963+236670106
2468+236440054+236316149+236394360+236605427+236709282+236532970+236098902
2458+235563412+235117837+234868819+234748661+234603658+234387405+234201929
2448+234157549+234242367+234322283+234256485+234027873+233762676+233600891
2438+233534880+233419961+233191455+232984419+232929082+232941283+232866961
2428+232704483+232531030+232356937+232194371+232137204+232265318+232527229
2418+232756428+232812760+232732542+232684557+232745933+232826150+232839274
2408+232818905+232831585+232877847+232898519+232841086+232731139+232668467
2398+232733732+232946060+233329567+233970209+235052057+236937256+240154404
2388+245188272+252304553+261640827+273378095+287727104+304798084+324510463
2378+346480200+369885262+393543391+416334912+437676048+457470794+475447505
2368+490757121+502481318+510284201+514220646+514238121+510452558+503260232
2358+492719323+478516063+460496552+439343982+418045468+401610672+393959131
2348+396327342+407573748+423807086+439012953+449103420+454038423+455472825
2338+455012971+453842327+452568290+451373281+450088943+448204561+445323824
2328+441585570+437247592+432091631+425698287+418085000+409695392+400967260
2318+392200484+383614993+375298695+367202716+359217624+351194351+342993841
2308+334610200+326198287+317972027+310126877+302822563+296154006+290113766
2298+284614663+279569341+274920170+270588976+266490231+262639368+259160379
2288+256139363+253534122+251242186+249208557+247462679+246054365+244928776
2278+243909777+242883017+241935730+241215634+240730598+240378346+240044706
2268+239580324+238868379+238022088+237309184+236809266+236373813+235945109
2258+235644980+235501646+235324624+234944384+234444963+234046378+233818990
2248+233649977+233452780+233222924+232922742+232532770+232181993+232014844
2238+231980977+231925853+231819831+231761884+231817132+231953682+232113460
2228+232267059+232393379+232476012+232552749+232707786+232978062+233306694
2218+233603874+233824886+233999014+234210258+234538748+235016219+235640664
2208+236390933+237184320+237880335+238414279+238893455+239486271+240251511
2198+241120801+241989149+242785786+243493096+244120009+244681534+245220807
2188+245783859+246349805+246858887+247274432+247550728+247658455+247693138
2178+247799427+247992131+248194851+248356032+248401318+248222377+247822478
2168+247364098+247012841+246784299+246547571+246150939+245554216+244893879
2158+244417279+244256665+244289964+244337505+244389859+244529836+244833658
2148+245406336+246327287+247696087+249862127+253235680+257779646+263112044
2138+269018043+275426766+282140591+288990681+296036103+303435891+311278519
2128+319495721+327922268+336515289+345330867+354248026+363012564+371456160
2118+379407296+386580335+392645243+397239094+400055650+401062413+400527261
2108+398930754+396850454+394694926+392606990+390597762+388479351+385835874
2098+382366636+378073659+373108892+367696702+362030700+356104491+349825870
2088+343199563+336282858+329165831+321962175+314684890+307307479+299949319
2078+292860582+286353776+280694308+275851386+271571125+267796253+264670706
2068+262191732+260178703+258410768+256690161+255015123+253563992+252375465
2058+251350162+250504651+249872126+249380590+249039509+248939081+249066875
2048+249371071+249868023+250643368+251888830+253753020+256130146+258908183
2038+262260105+266376680+271171954+276355176+281527796+286368693+290890371
2028+295214124+299204609+302687416+305706035+308320245+310506282+312202631
2018+313124044+312824554+311209791+308680435+305705538+302517000+299150551
2008+295584454+291816064+287860048+283789842+279816458+276175578+272891603
1998+269852063+267178556+265231556+264034113+262954201+261325621+259201900
1988+257116219+255431965+254242177+253488108+252932959+252312136+251602909
1978+250993541+250650453+250563256+250542318+250487887+250672883+251401823
1968+252339166+252657551+252058270+251167083+250697178+250710426+250898122
1958+251152059+251529014+251950135+252288890+252588343+252974692+253491464
1948+254186235+255277105+256918063+258582499+259105894+258017759+256351530
1938+255398826+255373875+255693130+255919185+256072961+256338584+256778281
1928+257424410+258533803+260287957+262209136+263626596+264721532+265989851
1918+266905350+266552814+265393785+264879428+265699206+267302852+268658155
1908+269184268+269139000+269171535+269577525+270146882+270639981+271167550
1898+271993809+273017497+273768937+274235113+275104083+276500907+277237448
1888+276344112+274553463+273123163+272355971+271927692+271628967+271396287
1878+271201292+271084455+271187902+271988730+274300786+278263000+282062522
1868+282798547+279909889+275926507+273204056+272128246+271961381+272012368
1858+271981787+271870934+271826945+271971025+272439438+273459396+275242569
1848+278028189+281864295+285457101+286113335+283176976+279507273+277619162
1838+277506569+277904710+278292746+279620167+282914141+287212321+289811595
1828+289732372+288699414+287726163+286170786+284076456+282628007+282387194
1818+282806788+283278611+283959992+285437762+287672406+289564921+290053509
1808+289440359+289000253+289797334+292157376+295446288+298147695+299052769
1798+298738540+299192995+301963094+306517164+309658215+308405275+304394136
1788+301585571+301547176+303201435+305174896+307147718+308898800+309853103
1778+310414184+312338559+317114689+324084848+329654632+330314169+326996167
1768+322787511+319642021+318872200+320979387+324310957+326292481+326877714
1758+327684900+328785680+329874312+332454069+337962478+344829243+349204693
1748+349565487+348079832+347260641+348142699+350479796+352954206+354144349
1738+355006659+358596660+365668117+371202063+369780306+364234994+359190843
1728+355869787+354401820+354659043+355958156+358490602+364069266+373773366
1718+384520778+389244945+385422585+378255584+372662464+370425209+371867354
1708+376453995+382234792+386855246+390825859+397036036+405621847+411776615
1698+412509071+409687578+404201972+397687333+393983213+394647225+398331207
1688+404199770+413536008+425508726+432147501+428053959+420328541+416055988
1678+416892725+421499007+426648576+430032145+433137997+437537385+440562718
1668+439086227+436059580+436257701+440044934+443803681+444893450+445363746
1658+449018958+458292578+473822335+490948031+497237733+493299371+492431164
1648+497851417+503161420+501650477+496411154+493862050+496282578+503662795
1638+515297700+527967071+534510941+532353851+528734371+529762728+535943034
1628+544749519+553995435+563564212+573090579+580609494+586189010+593232941
1618+603890598+615054532+621171615+622792026+624400147+627764500+631837584
1608+635061285+637100526+638910817+641388423+644453998+647767205+651732029
1598+657023314+663464182+670035117+675962817+681297720+686236878+690572796
1588+694242322+697685525+701164389+704403008+707361176+711013511+716947889
1578+725679821+734476894+739031532+740943831+746003610+756207345+768338722
1568+778027372+785515103+793871039+804939784+820230646+842288362+869384331
1558+886374739+885737329+880532282+878212873+878350755+878966072+878545110
1548+877360792+877587540+880608646+885697833+891412709+894064994+886847628
1538+872167607+860207498+853689343+849005703+843198409+838065889+836480641
1528+838175143+841055383+844388765+848786840+852829590+853418198+850960126
1518+848267777+845325877+841132458+837278877+836643954+840994221+850436091
1508+861473864+863787660+851885162+837655086+830616944+831047141+835804659
1498+840163522+839707397+835141606+832155095+834536376+840807609+845356280
1488+843659221+837313046+830869337+827119398+826207788+826806199+828155747
1478+830866637+835504886+841239510+845553477+845126193+839772396+834003603
1468+831719216+832904315+834405740+833582571+832379570+834826702+842097558
1458+850201387+851033294+842989349+833603597+827851357+826209493+826955517
1448+827246766+825266698+821782365+818622312+817091265+818223087+822612709
1438+828778381+832219738+829875325+825039382+821830243+820177937+818015377
1428+815259095+813858258+814608260+816550252+819066005+822070843+823440851
1418+819897344+812796335+806967659+804542478+804172094+803479987+801726028
1408+800473017+801188993+802906581+803691533+803913238+805347604+807871881
1398+809592595+809545356+808012107+805244885+802163399+800626101+801550355
1388+803517707+803844901+802011523+800769452+802745826+807801626+813961900
1378+819752856+824920893+829370682+832550199+834258127+835186004+836066428
1368+837192781+839033191+842120574+845663797+847360927+846063731+843567371
1358+842152824+842033483+841955201+841159168+840021804+839157008+838723188
1348+838446289+837939302+837416474+838059425+840819685+844798290+847655941
1338+848107803+847257569+847023007+848318639+850803633+853601969+856210282
1328+858787837+861607483+864431179+866824252+869150551+872473774+877096963
1318+881987604+886072763+889224078+891663538+893583012+895540419+898241364
1308+901851432+905902849+909733272+912866331+915160948+916753370+917760666
1298+918115066+917905509+917634008+917693465+917637062+916621100+914801859
1288+913349662+912805453+912595256+912208605+911514793+910110759+907823104
1278+905568410+904516716+904803348+905670134+906343274+906621950+906988001
1268+907976258+909467951+911174245+913435758+916528611+919628780+921631792
1258+922566773+923184861+923834914+924682591+926228982+928658923+931031893
1248+931777135+930147561+926992907+923871640+921640814+920371252+920075173
1238+920476457+920539040+919454244+917777785+916396980+915089272+913222223
1228+910972857+908845602+906773684+904549890+902580407+901732304+902535370
1218+904481411+906199568+906611153+905904554+905269773+905837851+907865797
1208+910788233+913928893+916792156+918781316+919589568+919981547+921215377
1198+923589200+926264997+928425213+930033690+931551666+933258741+934990678
1188+936640711+938453062+940665561+943468230+947239124+951878012+955937385
1178+957532791+956435776+954492861+953791519+954972214+957259230+959624883
1168+961664692+963497004+965284208+966972387+968414071+969642147+970903895
1158+972651532+975342318+978818483+981897839+983170597+982339330+980334967
1148+978358736+977542528+978957501+982698703+987116880+989916282+990261589
1138+989516773+989566356+990944959+992769670+994062532+994988918+996413552
1128+998534485+1000583458+1001860336+1002790487+1004504523+1007372616
1120+1010589001+1013478192+1016447938+1019883825+1022848102+1024250928
1111+1024769707+1025790357+1026622193+1025023022+1020557321+1015468773
1103+1012853498+1014694264+1020536366+1027238576+1031417148+1032964249
1094+1034393074+1037112133+1039831548+1040733496+1040728311+1042630878
1085+1046933408+1050807732+1052193794+1052876666+1055281957+1058147067
1077+1058399388+1056212179+1055156223+1057098997+1059426645+1058818432
1068+1055433052+1051510068+1049033172+1049260702+1052044333+1055228183
1060+1056461729+1056850085+1059664759+1064530892+1066795532+1063922679
1051+1058625426+1054619259+1053343872+1054503257+1056903434+1059148822
1043+1060816898+1062189321+1062745749+1061860706+1060624461+1061400320
1034+1065401443+1070747569+1073741823+1072406268+1067293355+1060793314
1025+1056688193+1057402180+1060740747+1061426177+1057602502+1053256782
1017+1052784319+1055971792+1058820563+1058389088+1056088362+1055492936
1008+1057480391+1059075299+1057579913+1053837717+1050509805+1048797616
1000+1047956119+1047391735+1047773556+1049691822+1052196422+1053254864
991+1051495080+1047775545+1044933095+1045013366+1047026963+1048100181
983+1046473732+1043269211+1041148420+1040878269+1040411346+1038133281
974+1035076586+1032413930+1029709078+1027102825+1026076066+1026464421
965+1025226542+1020372840+1014331907+1011068425+1011201690+1011846558
957+1010772772+1008561339+1005998560+1002198896+996875643+991916524+988871052
947+986827194+984114670+980561858+977023181+974288849+973152267+973972098
937+975474872+975128286+971944010+968004546+966030019+966423418+967399671
927+967372962+966314804+964923486+963849700+963548293+963694201+963362390
917+962486299+962274113+963627924+965905350+967774956+968635136+968615814
907+967625567+965289039+962127920+959732645+959147092+959858024+960574426
897+960340574+959000615+957205597+955665458+954395186+953227277+952454685
887+952357649+952606064+952507110+951640608+950365506+949588652+949517260
877+949057442+947361022+945641019+946085493+949090474+952577507+954028922
867+952955492+951091568+950423542+951478788+953020845+953028304+950430930
857+946054309+941767051+939166480+939023413+941167077+944499962+947414584
847+948576455+947538187+944846974+941640251+938908547+937205166+937097830
837+939113274+942598744+945453767+946016801+944643526+942853339+941988755
827+942626733+943492382+942478338+940308390+940612568+945053051+950705130
817+953875626+954670167+955551302+957468716+959369649+960594600+961958072
807+963792658+964689634+963361822+960287510+956547374+952734355+949631700
797+948376843+949182395+950969812+952784507+954196710+954381405+952871811
787+951156140+951645794+954905369+959103405+962270917+963912212+964053645
777+961941876+957328845+952759218+952110727+956440607+962653803+966276160
767+965331163+961514521+957837466+955845535+955134319+955082036+955833743
757+957195865+957967605+957165533+955508539+955337270+958652253+964551326
747+969242852+970031924+968261911+966811774+966634752+966877270+966646189
737+966212796+966822430+968991312+971858553+974778929+978078995+980907805
727+980644473+976537150+971497688+969030453+969785357+971675208+971935414
717+969293288+965688902+964327348+965902296+967702144+966494100+961598344
707+954750794+948821885+946507592+947925406+949818668+949397564+948321789
697+950039022+954337717+956919250+954377711+947895500+941551597+938424079
687+938331164+938697498+936705070+930689853+922109938+916793292+919926209
677+928732304+933807426+930430712+923665137+919142110+917801014+918995491
667+920914183+920644742+918090914+914837945+912346274+911780895+913118510
657+914375712+913126679+909611729+906598650+905893401+906699522+906453665
647+903294109+898292084+893824962+891069248+889775889+888921677+887477507
637+885667785+884825506+884801354+883416216+880555297+879134925+881249820
627+886157723+890675209+890771321+884821386+875321835+866684594+863249915
617+867299343+876348169+883749590+884770382+880865797+875506601+869977201
607+865034277+861383079+857849304+853920567+852962570+857789634
##END=
