##TITLE=<SNM>
##JCAMP-DX=4.24
##DATA TYPE=INFRARED SPECTRUM
##DATE=3/5/2025
##SAMPLING PROCEDURE=Instrument type and / or accessory
##ORIGIN=Admin
##XUNITS=1/CM
##YUNITS=ABSORBANCE
##RESOLUTION=4
##FIRSTX=4497.3318
##LASTX=599.83466
##DELTAX=-1.4281778
##MAXY=1.7236551
##MINY=0.17566077
##XFACTOR=1
##YFACTOR=1.6052789e-09
##NPOINTS=2730
##FIRSTY=0.19721152
##XYDATA=(X++(Y..Y))
4497+122851872+122844204+122865638+122778400+122791953+122962743+122900865
4487+122282969+121400816+120979794+121420448+122259280+122601529+122102255
4477+121211553+120482033+120118369+120235738+120975227+122096352+122940307
4467+123155598+123040921+122945979+122869351+122828442+122968944+123083361
4457+122709430+121894121+121154613+120603320+119944311+119321718+119324827
4447+120102199+121104255+121707142+121645876+120983173+120116150+119685930
4437+120052936+120873722+121398801+121139371+120215270+119195149+118580679
4427+118393820+118297448+118021374+117534678+116844795+115860988+114621269
4417+113596424+113460777+114334056+115506272+116187392+116188358+115652937
4407+114759599+113960840+113769015+114044272+114118078+113626899+112727201
4397+111787728+111273082+111489552+112206420+112926907+113457343+113859001
4387+114132039+114212872+113999465+113352217+112371780+111551773+111306434
4377+111485654+111580809+111247555+110529880+109775232+109426949+109752852
4367+110618668+111538035+112054733+112054946+111665457+111075084+110577221
4357+110458896+110639517+110764507+110743668+110778106+110928103+111060956
4347+111051376+110781141+110258076+109812669+109763276+109973249+110124722
4337+110219971+110482789+110973133+111485486+111710636+111508739+111130037
4327+111045055+111397339+111779049+111756186+111432585+111223058+111229018
4317+111235803+111198951+111239043+111336779+111496059+111903714+112528953
4307+112954346+112907219+112607864+112491256+112820779+113430340+113748538
4297+113379090+112645227+112237377+112458804+113085008+113761357+114300593
4287+114664090+114796413+114582969+114022449+113346583+112930824+113128980
4277+113957127+114789294+114887114+114417238+114216761+114527144+114817346
4267+114772975+114607327+114504930+114438337+114420886+114574401+115006776
4257+115657783+116269785+116610048+116670774+116621094+116712156+117114473
4247+117632944+117802054+117491802+117082253+116914248+116995118+117247215
4237+117572328+117715030+117479382+117029668+116708332+116677773+116911212
4227+117357622+117914531+118371894+118601926+118710236+118838661+118988918
4217+119093459+119088251+118986217+118983618+119248042+119546041+119453568
4207+118996752+118677607+118801632+119169827+119488554+119740725+120046902
4197+120364460+120471386+120259474+119971695+119989991+120367403+120808187
4187+121143864+121494412+121900656+122161005+122167744+122099239+122149058
4177+122339584+122693056+123302755+124118752+124849663+125151264+124834440
4167+123990661+123047428+122482953+122279906+121958756+121350281+120944214
4157+121188179+121817540+122239313+122292651+122282839+122458735+122764513
4147+122977530+122867318+122421159+122064122+122327906+123136838+123784485
4137+123773708+123343617+123075740+123286762+123895914+124671902+125447407
4127+126076173+126315098+125955342+125119787+124349693+124276008+125049277
4117+126106760+126737939+126874198+127031000+127499790+127973453+128069324
4107+127925082+127979218+128299458+128572719+128693662+128817019+128906958
4097+128773669+128439514+128069426+127737434+127456264+127198709+126920593
4087+126724470+126775376+127045286+127395333+127701519+127753799+127483304
4077+127335636+127808130+128655056+129142337+128986770+128560949+128284847
4067+128186749+128040121+127732495+127392594+127181647+127115212+127131029
4057+127174017+127209885+127291154+127548208+128016441+128560429+129019741
4047+129337262+129520770+129564138+129447929+129226715+129075604+129149642
4037+129393106+129614747+129759574+129980026+130401066+130894334+131170204
4027+131097698+130838936+130625724+130565573+130704719+131042652+131446612
4017+131719363+131703991+131259410+130385639+129441914+128915786+128962904
4007+129405600+130016600+130627116+131189373+131783106+132340415+132559029
3997+132379151+132185182+132213754+132182685+131827180+131425930+131480948
3987+132085552+132829404+133244698+133215226+132942568+132655114+132496864
3977+132581930+132941538+133443188+133882357+134115294+134047615+133635133
3967+133125797+133192613+134368867+136220811+137552984+137708162+137150445
3957+136577457+136215975+136145687+136623471+137812461+139372717+140433292
3947+140314428+139431513+138821117+138707786+138319736+137224185+136035075
3937+135683952+136690947+138919727+141440361+142825705+142346760+140924434
3927+140207864+140777332+141650695+141805000+141713938+142452313+143892183
3917+144606507+143458333+140896967+138394684+137004736+136906043+138191404
3907+141380284+146535134+152272421+156527889+158241253+157215582+153500221
3897+148490764+144986304+144999365+147906629+150460801+150145935+148828001
3887+149494427+151704001+153056327+153565923+154461026+154270268+151542307
3878+148985137+149738216+153282340+157375929+160962986+163021903+162101868
3868+159730331+159064972+160014842+159654418+156868542+153769194+152772289
3858+155382370+162531541+172801475+178632172+173339717+162910029+154796499
3848+151185577+151780852+155246436+159812389+164371018+168742547+172163463
3838+172805076+170499204+167573515+165497628+163731577+161784161+160310549
3828+159767758+160061794+162154481+167435111+174090215+177034767+175482159
3818+173467241+171548138+167324704+161757910+158426701+159264251+163778305
3808+169184751+172365582+174143033+177399517+181014570+180913910+177617213
3798+174815409+172901392+170490497+168089943+167220033+168179204+170323893
3788+173148477+176194098+178866948+181383665+184818951+189121510+192452329
3778+193889591+195105556+198074094+203525449+211314738+220187882+228064224
3768+234146369+239208374+244078137+250118529+259185104+271246041+283428822
3758+293317556+302499384+314667461+331984967+352762284+370631956+381132990
3748+388433160+397709633+408245049+415496839+419450632+424949050+434901927
3738+449206896+465711989+480285039+488467242+489911132+489151370+490403815
3728+493977393+497301232+498459552+498559953+499582598+501529085+503310230
3718+504960416+508032623+514407652+524312334+534817155+542150631+546369201
3708+549936839+554313807+559992939+565993099+569754780+570483613+570470209
3698+571586088+574299986+579445517+588113348+599884873+611508989+617559610
3688+615818603+609750494+602893586+597513911+595635410+597840622+602995992
3678+609204863+613153569+611795822+607876820+606174020+606105737+603986074
3668+599646421+595856113+594037541+594165937+596045144+599885838+605898846
3658+612837886+618040449+621150714+625285555+632305799+639658361+642595895
3648+640626499+637407590+634672491+632399739+630963907+630829569+631833204
3638+633585239+635962327+638909738+643050371+649851026+658777026+665012482
3628+664648084+661580593+660924425+663553628+669053309+677066123+684626837
3618+687285671+685682380+684174515+684561191+685928332+687978673+690866229
3608+692758840+691889766+690185852+690754690+693396072+694793140+693344758
3598+691491505+691865705+694580829+699100415+705261759+711899263+716768469
3588+718215738+716452341+713207219+710361990+708553072+707317966+706479710
3578+706449041+706876931+706547288+705008084+703173545+702599658+704344935
3568+707721499+710488457+711147595+710308226+709351449+709130227+709424002
3558+708941753+707152142+705568382+705393423+705425727+704695892+704832829
3548+707150582+710253941+711948944+711115886+707862595+704239559+703462568
3538+706205168+709160228+709262485+707592137+706762198+707058647+707176202
3528+706796284+706941167+708382792+710657845+712559590+713043251+711717770
3518+708980962+706125115+704987291+706390597+709264119+711877505+713313411
3508+713687834+713325070+711960157+709397194+706744004+705828740+707075653
3498+709190675+710864290+711491646+710999148+710023732+709455934+709538735
3488+710071111+711015114+711917606+711267081+707892967+703142801+699822304
3478+699435108+701790809+705518553+708148722+707832742+705815893+705041798
3468+706192841+707207986+706333045+703436651+699187003+695434902+694917527
3458+698197404+701928860+701988269+698133391+694040507+693321440+696726446
3448+702247142+706775491+708012676+705866910+702134563+698843176+696750135
3438+695234175+693806214+693390131+695348760+699230594+702738451+704522938
3428+705488329+706847153+708242439+708619906+707785215+706738435+706639891
3418+707455720+708027825+707360815+705230792+702063866+699246115+698534919
3408+699876069+701149939+701161820+701237418+702839149+705129055+705826215
3398+703701837+699685516+695766625+693218143+692113514+692110023+693031154
3388+694697344+696633546+698149134+698742478+698629676+698841616+700598701
3378+704233544+708322937+710532716+710212726+709284540+709385461+709444350
3368+707587904+704041580+700346288+697450340+696128795+697396947+700849999
3358+704020787+704833051+703836546+703328008+704672797+706788264+707087164
3348+704684455+702182609+702383708+704126980+703672949+700255690+697200824
3338+696874596+697855210+697881573+697215453+697675499+699811685+702403684
3328+704168937+705075958+706193435+708669587+712452952+715848155+716862335
3318+715019850+711709750+709070892+708420516+709347217+710287804+709957418
3308+708091764+705555238+703848502+703535418+703625200+703269119+702904721
3298+703183868+704273273+706102168+707737317+707405000+704903896+702421803
3288+701784274+702751150+704031926+704835131+705523602+707060504+709478658
3278+711109500+710160224+707345888+705741781+707312545+710736710+712627316
3268+710574376+705801189+702122904+701870565+703660993+704180522+702064832
3258+699253689+698176314+698955458+700075014+701079836+703205775+706713557
3248+709426156+709219117+706154819+701515079+697077848+695065752+696424130
3238+699594695+702333879+703827931+704130841+703177407+701611841+700730588
3228+700511964+699695170+698101087+696769443+696101170+695776427+696065673
3218+697519997+699561946+700669323+700026150+698373625+697105176+696892196
3208+697451602+698406596+699665391+700644371+700185736+697916104+694856113
3198+692306666+691061684+691628145+693648559+695159617+694156651+691136761
3188+688629940+687984019+688012164+687262427+685878429+684812564+684770903
3178+686039500+688135957+689453269+688370398+684987522+680886618+677358116
3168+674879662+673915683+674872979+677032408+678389005+677237443+673866819
3158+670251432+668143243+667726788+668060590+668375530+668624972+669059844
3148+669653485+670030432+669727077+668667895+667439696+666650081+666285460
3138+665932128+665267048+664147344+662677351+661374074+660747313+660670453
3128+660674686+660605623+660268702+658897254+656124356+653187564+651863643
3118+652301187+652976441+652736058+652003476+652075880+653708355+656011776
3108+656868078+655236197+652559243+650758419+649834243+648828530+648000596
3098+648269791+649207111+649143098+647173628+643941427+640629469+638310008
3088+637836818+639207078+641095679+641976783+641615801+640842375+640228907
3078+639490903+638095468+636322269+635317817+635623995+636287589+636274891
3068+635903958+635795611+635600157+634880570+634091029+633736359+633539049
3058+633103583+632600021+632274090+631755750+630414377+628354531+626588090
3048+625902440+625686415+624547032+622236407+620116967+619399682+619743695
3038+619940263+619234229+617669628+615848530+614522567+613889085+613437134
3028+612814457+612190703+611425000+610009255+608278719+607444288+607955907
3018+608759892+608683626+607784513+606701160+605517034+604073850+602600256
3008+601246110+599804968+598432777+597692211+597552527+597266808+596439023
2998+595420017+594581278+593855750+593061382+592288216+591791300+591653546
2988+591692533+591569446+590976956+589970351+588929920+587917968+586594752
2978+585129587+584263409+584026331+583506357+582278121+580971205+580133617
2968+579532402+578779286+577871968+576991755+576295745+575896371+575643624
2958+575094651+574096140+573031798+572025378+570572651+568529143+566579797
2948+565238758+564354127+563813731+563662721+563477738+562681031+561448970
2938+560473406+560019227+559877166+559906648+560063523+560103921+559703618
2928+558838109+557731029+556486307+555045870+553452827+551986622+550951798
2918+550206442+549059113+547036138+544674273+543141604+543077666+543957174
2908+544524897+543921194+542443070+540967360+539847061+538784018+537458240
2898+535973878+534834383+534452163+534543764+534295696+533295885+531933868
2888+530737193+529666092+528308753+526705277+525591625+525453314+525708846
2878+525445777+524571282+523545629+522532563+521503791+520738533+520584851
2868+520799724+520608169+519609101+518219310+516940391+515774979+514765218
2858+514277176+514217396+513837997+512737155+511280047+509920406+508808314
2848+507943138+507198191+506391051+505520231+504715838+504034793+503455261
2838+502876547+502104977+501121913+500256997+499704311+499050705+497779323
2828+496118146+494891358+494555105+494692636+494441634+493267274+491337162
2818+489243119+487509798+486476570+486348062+486935799+487559255+487612537
2808+487016297+485928006+484482631+482987872+481846818+481120993+480495086
2798+479676323+478638529+477510841+476334773+475064616+473851381+473004993
2788+472463595+471695887+470410321+468998772+468030300+467562605+467084032
2778+466029231+464365492+462653484+461430669+460637081+459804840+458738381
2768+457792038+457327351+457071486+456396863+455181808+453878383+452755114
2758+451645843+450455517+449355083+448385943+447330586+446115419+444987732
2748+444126863+443341481+442376314+441347876+440579871+440079167+439496146
2738+438612628+437548879+436451639+435286710+434016813+432771719+431767119
2728+431108018+430656178+430128666+429420181+428687190+427965152+426964525
2718+425483431+423794889+422358277+421287176+420311686+419205163+418085422
2708+417206248+416514992+415658282+414539543+413599364+413277221+413402907
2698+413407586+412939260+411971456+410550179+408862119+407391162+406565382
2688+406296112+406154645+405863469+405359312+404613956+403711576+402902097
2678+402323568+401834560+401200670+400227148+398784632+397037573+395540772
2668+394765638+394614183+394612067+394399495+393856500+393001907+391979187
2658+390975701+390067046+389242603+388508238+387820026+387049533+386170359
2648+385350446+384741433+384302218+383895454+383434666+382895570+382281730
2638+381606514+380881543+380162141+379575481+379187765+378907468+378669462
2628+378538132+378421765+377962277+376994213+375805595+374683143+373587350
2618+372505036+371695557+371366693+371435904+371651594+371662399+371111050
2608+370028216+368974752+368471376+368450137+368475200+368268087+367810900
2598+367159484+366370501+365516576+364719906+364185451+364024416+363997534
2588+363718202+363144500+362548557+362072508+361669718+361323737+360995504
2578+360542402+359910888+359212094+358565988+358085632+357901948+357964810
2568+357972941+357700218+357266870+356976621+357001276+357243440+357396343
2558+357159748+356530128+355862115+355526568+355518436+355493670+355159422
2548+354546882+353946112+353649403+353731387+354035968+354365500+354630314
2538+354785222+354708177+354247908+353431485+352567275+352036088+351947903
2528+352074555+352134817+352066572+352000368+352042437+352124309+352056732
2518+351756904+351409883+351289544+351393620+351429006+351225271+350929750
2508+350686880+350411336+350034574+349693976+349484672+349250342+348813503
2498+348286140+347968898+347958130+347999382+347805599+347432921+347186598
2488+347184630+347209024+347019548+346597190+346025419+345391900+344873968
2478+344645319+344634403+344600614+344423910+344128427+343748843+343351770
2468+343059146+342950651+343019602+343169646+343188656+342890499+342358049
2458+341890466+341667053+341583212+341457414+341284795+341164493+341056777
2448+340831025+340523325+340299800+340195018+340110472+339987311+339808491
2438+339546090+339237536+339028381+339039075+339201891+339293789+339162385
2428+338839907+338403773+337910756+337513386+337389631+337506889+337666624
2418+337738582+337697145+337601014+337650063+337993074+338402214+338449110
2408+338071382+337676203+337623107+337856137+338101458+338214780+338225510
2398+338164431+337985945+337685115+337430029+337452938+337726478+337859070
2388+337483422+336657939+335660245+334467134+332721374+330200926+327063964
2378+323634341+320180545+316851991+313598737+310278035+307023983+304186905
2368+301724454+299211784+296715879+295065971+295022046+296646816+299575347
2358+303517685+308381340+314218926+321233749+329287407+337156860+343005678
2348+345670304+345327813+343326930+341124058+339063098+336667222+333685391
2338+330187596+326172129+321684364+317231055+313676302+311532059+310497253
2328+309867596+309240723+308701794+308555018+308982946+309855473+310867388
2318+311838793+312783650+313742097+314660035+315463945+316240230+317246576
2308+318638334+320247937+321724836+322821593+323508246+323915566+324196421
2298+324388422+324457002+324495172+324723932+325202432+325708259+326051270
2288+326338956+326714122+327001771+326919713+326520635+326121929+325909692
2278+325859863+325908169+325975227+325944037+325776134+325569688+325414149
2268+325264068+325038427+324795371+324703956+324839742+325089889+325272757
2258+325281148+325106413+324800644+324465727+324240086+324211421+324334769
2248+324501373+324661330+324806213+324911923+324990677+325127354+325390757
2238+325764289+326172315+326539237+326852841+327171865+327555422+328031211
2228+328615495+329284288+329971089+330655885+331377922+332140506+332911742
2218+333721036+334647365+335730310+336982050+338449072+340176713+342143176
2208+344265067+346403963+348414092+350341271+352478645+355015208+357766756
2198+360430491+362907126+365258705+367567993+369906911+372313555+374773444
2188+377195200+379418345+381390341+383237281+384989464+386500969+387776843
2178+388988928+390120031+390974030+391498572+391836421+392146051+392462922
2168+392680692+392674380+392421225+392005067+391582449+391245565+390901997
2158+390472436+390052862+389700012+389350058+389000958+388659136+388221814
2148+387555583+386601406+385819663+386579425+390105068+395970928+402693609
2138+409528127+416519336+423442818+429896564+435849013+441523948+447226769
2128+453194849+459314644+465282465+470925134+476031900+480225333+483159117
2118+484621832+484709720+483955008+482912089+481853910+481142863+481452716
2108+483454341+487636041+494386199+503748517+514748880+525157496+532372712
2098+534531808+530970706+522696122+512174741+501364857+490474697+479140680
2088+467469334+455624848+443718318+432066428+420939413+410588683+401478331
2078+393831623+387415490+382099457+377926186+374681992+371986250+369521757
2068+367077500+364790045+362996944+361587548+360126801+358548054+357088495
2058+355893379+355018030+354395539+353884699+353588769+353728083+354260607
2048+355092291+356357992+358270356+361113616+365306826+371180855+379007386
2038+389219953+402106689+417414178+434444184+452093673+468768378+482731709
2028+492524889+497227491+496928183+492750308+486111504+478160586+469610124
2018+460748954+451785157+443050119+434714345+426696184+418934408+411441940
2008+404205411+397242718+390641305+384514864+378973820+374028051+369541251
1998+365442723+361935572+359303063+357433437+355684595+353478381+350936657
1988+348587825+346699781+345224108+344037717+342987744+341977797+341084365
1978+340404099+339890289+339434588+338967487+338528086+338315737+338456796
1968+338672523+338462217+337684558+336715380+335999320+335643722+335463046
1958+335269856+335020155+334740563+334438136+334101845+333781447+333638347
1948+333860015+334536160+335558954+336439056+336400811+335189766+333569544
1938+332488715+332143328+332108834+332006614+331830616+331749152+331774067
1928+331873428+332351890+333511658+334905236+335782145+336241707+336769368
1918+336925464+335931149+334275616+333298084+333589817+334589219+335274683
1908+335055800+334209746+333464131+333205221+333263664+333358978+333507536
1898+333926553+334579825+335072657+335335800+335962227+337143939+337857919
1888+337136736+335550191+334293253+333754453+333646144+333642802+333542625
1878+333327714+333157360+333198611+333814642+335755893+339293826+342894435
1868+343861274+341516934+338089613+335759198+334872376+334687615+334572919
1858+334378281+334218881+334213645+334381437+334763212+335498728+336767103
1848+338909155+342180603+345523045+346382539+343924655+340636313+338838088
1838+338553038+338652213+338743479+339802178+342807773+346821197+349277670
1828+349240688+348267352+347205200+345410354+343054022+341454407+341219520
1818+341742502+342306958+342983845+344321728+346332339+348068148+348563950
1808+348023257+347573719+348256399+350430829+353458293+355865457+356602904
1798+356330292+356880416+359590935+363931553+366982781+366038481+362618325
1788+360359869+360678522+362556837+364729263+366887690+368800499+369961567
1778+370824106+373076807+378066910+384997967+390316785+390871848+387878135
1768+384330697+381960218+381896836+384527451+388197716+390436716+391258486
1758+392264126+393528565+394702034+397169646+402361664+408859483+412879926
1748+412778931+410707277+409314665+409706650+411628408+413854190+415145957
1738+416404194+420351267+427583043+433478608+433126055+429062318+425374453
1728+423101070+422544671+423928224+426638743+430387094+436419150+445793610
1718+456188785+461686497+459830051+454790528+450940366+450165417+453026463
1708+459136975+466591831+472905075+478306991+485589488+495152570+502564429
1698+504874756+504018567+501138065+497498469+496363727+499370880+505368851
1688+513238787+524038349+537597999+547119198+546835893+542451313+540798082
1678+543878346+550724671+558397074+564501571+570258565+577397627+583620125
1668+585500445+585225086+587453987+593020093+598778387+602098624+604582833
1658+609622431+619479215+634853762+651775272+659181153+657092865+657202028
1648+662558608+667607748+666625055+662280576+659874600+661298625+666903310
1638+676396439+686310107+689123551+683016269+675793738+672871502+673918505
1628+676382849+678722139+680990806+682482854+681893000+680689456+681941344
1618+685598985+687268368+683626767+677538941+672522476+668880058+665522431
1608+661778498+658016818+655367638+654717708+655798054+657570956+659582755
1598+662163244+665080802+667012251+666926925+665302619+663371764+661774414
1588+660323655+658686353+656979246+655658889+655217334+656371644+659993492
1578+665781452+670485502+670261458+667489228+667649928+671859476+676659322
1568+678885438+680079700+683222120+689695805+701045899+719760882+743559537
1558+757954621+757764884+756621268+761263162+770116682+780224394+789869609
1548+798719416+807787996+818452886+831047517+844276409+853013712+849418672
1538+837428153+829092898+827730287+829253153+828763552+826600929+826685809
1528+830613611+836800946+843262452+849721508+855856192+859824095+861072642
1518+860983083+859736245+857192590+855304732+856695636+862531124+872447911
1508+883625943+888193353+881294302+871409819+866158021+866147550+869513941
1498+873412038+874463646+871877885+869039266+869389183+873040512+876837318
1488+877372738+874718583+871474426+869598004+869432625+870590871+873083063
1478+877213003+882790360+888903435+893374232+892768635+886953049+881255761
1468+879947954+882509877+885033705+884493309+882943783+884716685+891379884
1458+899463691+901411329+895551410+888416432+883862538+882148301+882930342
1448+885195445+886690017+885663659+882844422+880670586+881201179+884623933
1438+888886280+890678713+888931579+886529094+885881763+886310990+885928176
1428+884550861+883771865+884466426+886246829+889064506+893321358+897499642
1418+897751831+892868664+886186009+881036023+878325504+877169263+876776944
1408+877497051+879152249+879643782+877480639+874688359+874345200+876750358
1398+879532019+880455081+878987985+875899404+872845800+871297388+871001830
1388+869869799+866194929+861518058+859382912+861422187+866361570+872075270
1378+877561732+882686766+886937009+889630448+891096579+892243017+893151820
1368+893535600+894146098+896216489+899538249+902163962+902473333+901024579
1358+899651497+899515080+900480915+901937095+903695591+905715559+907577351
1348+908972712+910106971+911126572+912042876+913422047+915867975+918484034
1338+919370263+918402125+917572038+918282491+920270898+922973619+926109801
1328+928663556+929211972+927974787+927020164+928003377+930623521+933234011
1318+934550358+934849406+935244919+936031192+936661592+937052872+937750552
1308+938950013+940251953+941201377+941652140+941941906+942754245+944278819
1298+945641727+945729281+944386274+942323829+940140488+937988187+935909999
1288+933871465+931631463+929119443+926680050+924471311+922082638+919256941
1278+916456195+914314736+912996087+912118176+910940771+909019199+906891627
1268+905394455+904456987+903417262+902027991+900212611+897534396+893863462
1258+889785727+885712300+881429605+876934228+872994173+870498416+869489955
1248+869024339+868050483+866343079+864411853+862849554+862107763+862360992
1238+863219596+864124018+865111167+866476229+867893273+868770887+869249869
1228+870245038+872487269+875567235+878156264+879593433+880815469+882948536
1218+885654599+887750907+888818926+889421626+890219039+891307257+892234254
1208+892833093+894001215+896881792+901204141+905304971+908051284+909901863
1198+911783112+913833229+915729182+917502901+919363654+921240595+923123626
1188+925370015+928222669+931301745+933855945+935436215+936286427+937232806
1178+939057839+941759373+944582546+947011690+949311844+951559125+952916166
1168+952966218+952864035+953851481+955726492+957921864+960641146+963679081
1158+965658948+965959555+966122558+967863082+970907329+973738374+975618063
1148+977043870+978533245+979746963+980013559+979447841+979217632+980535687
1138+983414407+986470833+988174153+988364260+988405846+990090230+993930627
1128+998278076+1000732544+1001015924+1001177441+1002705876+1004972687
1120+1006677641+1007741278+1008986780+1010580714+1011757822+1012076698
1111+1012436491+1014582628+1019263361+1024613702+1027433236+1026754121
1103+1024691231+1023304930+1022590615+1022287557+1023560387+1027536533
1094+1033358208+1038749913+1041839162+1042217298+1041285994+1041060612
1085+1041789333+1041870649+1040522073+1039164288+1039797807+1043287619
1077+1049251132+1055733803+1059622321+1059245522+1055658799+1050832367
1068+1046359788+1043785761+1043715287+1044641839+1044913634+1045132406
1060+1046566382+1048680587+1050528418+1052977539+1056729714+1059571749
1051+1058881421+1056052010+1054902824+1056238034+1057108964+1055873710
1043+1054938024+1056748651+1059832999+1060684473+1058371323+1055744199
1034+1056394353+1061180164+1067369727+1071340229+1072476716+1072956961
1025+1073741823+1073155905+1069745775+1064461971+1059273815+1055218507
1017+1052435510+1051077577+1051353753+1052907511+1054629916+1055053871
1008+1053356715+1050099042+1046611532+1043607015+1041197326+1040119357
1000+1041404588+1044842714+1048627267+1050633720+1050021440+1047567269
991+1044419948+1041016278+1036912404+1031316630+1024676453+1019925321
983+1020299521+1025145484+1029424020+1028419865+1022027644+1013820193
974+1007452329+1004292013+1003365312+1002801302+1001030479+997338603+992106485
964+986253843+980349293+974782109+970274330+967139262+964846535+963300128
954+963038804+963375725+962326940+959167069+955312488+952425451+950998604
944+950481972+950031134+949164214+947960075+946716949+945623014+944742949
934+943949324+942971977+941867942+941211031+941473320+942361034+943125846
924+943511556+943944497+944620938+944921917+944080617+942020028+939404118
914+937263402+936388758+936760507+937576188+938041283+938142798+938326445
904+938633588+938698863+938282482+937505937+936768750+936341602+935991463
894+935160113+933823567+932692724+931988360+930971062+929255340+927649896
884+927132447+927575709+927749702+926331396+923087535+919263624+916718410
874+916671700+918940590+921976668+924042529+924774889+925100449+925716219
864+926459198+926945978+926967439+926266046+924669290+922766209+921984169
854+923117388+925228548+926700620+927032640+926797456+926140991+924729590
844+923013943+922232719+923098897+925152802+927392137+928875422+928875199
834+927311787+925041783+923246528+922875224+924592802+928145067+931751765
824+933208688+931834492+929319873+928305842+929416412+930193922+928415822
814+925679014+925241396+927626875+930774865+933165023+934856980+936397446
804+937973855+939242526+939250843+937273427+934325644+932807011+934232818
794+937881771+941872695+944773916+945643881+944018758+940842846+937845680
784+935727168+934450700+934491543+935988418+937915857+939696705+941681028
774+943251421+943436330+943212954+943742507+943632973+941143602+937273353
764+934454635+933770174+934710315+936353855+937735255+938123267+937494278
754+936630997+936951283+939361418+942644562+944262927+943095176+940344779
744+937842562+936790657+937507645+939102544+940341363+941226552+942699515
734+944949245+947028770+947541170+945602889+942033470+939317752+939026056
724+939912655+939741113+937853255+935285465+933586453+934178163+937584654
714+942166099+944725052+943632824+940169078+936017380+931636587+927876763
704+926672698+928579418+930787489+929354330+923712811+916984560+912378015
694+911023201+912459405+914818299+914400805+908702848+900283679+894112829
684+891823889+890658291+887562656+883169981+880994808+883025321+886885026
674+888322715+886173905+881919058+875501960+867616280+864721223+869833114
664+876860116+879956123+878638291+876132583+873738786+869511490+862865743
654+856408024+853104236+853341350+854125322+852247192+847747062+842712774
644+838830420+837211906+838563006+842374665+847039208+851062212+853760404
634+855197350+855545559+854539920+852274594+849505186+845772987+839043548
624+828952397+818668168+812162402+810892097+813162398+815948441+817604234
614+819153982+822694217+828403684+833641446+836170027+837278220+839314229
604+841007672+838231952+830453133+822750729
##END=
