##TITLE=<SNM>
##JCAMP-DX=4.24
##DATA TYPE=INFRARED SPECTRUM
##DATE=2/5/2025
##SAMPLING PROCEDURE=Instrument type and / or accessory
##ORIGIN=Admin
##XUNITS=1/CM
##YUNITS=ABSORBANCE
##RESOLUTION=4
##FIRSTX=4497.3318
##LASTX=599.83466
##DELTAX=-1.4281778
##MAXY=1.7993479
##MINY=0.26346073
##XFACTOR=1
##YFACTOR=1.6757733e-09
##NPOINTS=2730
##FIRSTY=0.28260827
##XYDATA=(X++(Y..Y))
4497+168643498+169348731+170346693+170777871+170237533+168983923+167512030
4487+166119775+165105540+165177584+166882113+169434647+171023169+170742445
4477+169491734+168663612+168668929+169021235+169310762+169595078+169980071
4467+170280589+170298497+170156152+170047615+169861984+169358352+168579243
4457+167874152+167589729+167767838+168068605+168129356+167998037+167922846
4447+167847814+167567855+167200717+167019816+166975196+166767654+166294184
4437+165825784+165802575+166452251+167461327+168119788+168068196+167724374
4427+167571625+167395010+166838328+166204997+165891585+165587777+164923057
4417+164283074+164214889+164701839+165436647+166141205+166528491+166506955
4407+166240547+165713387+164776088+163773075+163425839+163918693+164599633
4397+164774114+164522449+164448111+164762678+165068976+165082937+165069278
4387+165357312+165804371+165940545+165504512+164708045+163919226+163166242
4377+162226969+161196729+160575793+160635868+160989756+161058136+160796175
4367+160601295+160646200+160796904+161015063+161252216+161196764+160737896
4357+160327223+160373337+160708250+160949741+160997670+161077930+161554387
4347+162526615+163365301+163019096+161210565+159085386+158170957+158809624
4337+160050802+160943855+161287873+161117998+160347497+159131714+157965282
4327+157280768+157217403+157717193+158610032+159526328+159943297+159727912
4317+159485816+159816157+160375916+160378068+159857346+159634118+160164817
4307+161006064+161331338+160818654+160080573+159951851+160329143+160279792
4297+159413203+158473004+158364592+159120065+160013794+160420999+160392669
4287+160436471+160862901+161468774+161845177+161795114+161366141+160696832
4277+160020480+159661043+159770328+160075469+160092720+159673226+159190775
4267+159080620+159364314+159777210+160158646+160488490+160734126+160939942
4257+161311437+161937762+162493732+162436040+161653837+160844815+160849154
4247+161549834+161944520+161512754+160885683+160883015+161562230+162494514
4237+163327403+163816344+163836725+163570798+163331209+163213513+163186161
4227+163364252+163871315+164466091+164579074+163898988+162831205+162112278
4217+162002318+162241872+162663144+163278105+163889687+164177862+164028083
4207+163488706+162810931+162603496+163275686+164315281+164800505+164534578
4197+164076403+163873432+163907453+163953710+163833844+163600657+163489631
4187+163467098+163118936+162277583+161365394+160894913+161041366+161738685
4177+162694374+163389826+163564822+163586448+163974998+164738670+165411002
4167+165631153+165526102+165451621+165491903+165458415+165272445+165014254
4157+164702177+164370945+164259847+164608471+165325762+166029964+166339819
4147+166105227+165464106+164686455+163991234+163544121+163517730+164028368
4137+164986653+166052337+166836390+167214198+167350087+167363372+167130843
4127+166527407+165707714+164998551+164620245+164644449+165092345+165857386
4117+166585294+166870180+166602545+166028435+165488310+165118221+164777475
4107+164311350+163891074+163929754+164559263+165354715+165766971+165721177
4097+165554450+165447638+165219324+164707814+164092249+163730055+163811809
4087+164208255+164597623+164771482+164787043+164804720+164924888+165188699
4077+165560247+165921747+166254526+166683090+167113557+167071319+166248995
4067+165078419+164426397+164735629+165616659+166255575+166181290+165660052
4057+165302430+165372482+165664819+165911859+165993435+165832577+165444010
4047+165104989+165199743+165760053+166283941+166219544+165598110+164954072
4037+164654586+164641728+164808882+165172711+165579881+165665192+165294693
4027+164817721+164728693+165209792+166082783+166995221+167524177+167419339
4017+166958532+166715528+166857677+167100841+167317346+167650373+168109615
4007+168547605+168871367+168966139+168770210+168603768+168892850+169435571
3997+169554370+169080669+168573179+168479954+168681254+168922283+169153105
3987+169342293+169347628+169112112+168821553+168751074+168983977+169418125
3977+170023287+170770117+171265176+170996404+170142067+169562337+169762997
3967+170414575+171048245+171621875+172156948+172392323+172180281+171876136
3957+171963456+172454710+172951512+173314541+173974691+175272388+176714386
3947+177523586+177783396+178076835+178194727+177346260+175634244+174123030
3937+173580237+174191606+176009633+178600794+180528906+180541444+179289239
3927+178502447+178838587+179491730+179682697+179778554+180562749+181911700
3917+182500020+181076553+178105023+175407193+174336547+174991629+176971119
3907+180256843+184960627+190312717+194488683+196012044+194709884+191219339
3897+186865957+183708689+183389658+185548218+187511667+187234838+186535491
3887+188012915+190779802+192145381+192301135+192950437+192832030+190265785
3878+187689527+188283911+191698090+195707774+199227751+201424850+200999504
3868+199085958+198339109+198765753+197912057+194926353+191947265+191367179
3858+194477017+201863142+211959119+217579164+212670844+202940652+195239373
3848+191588948+191772926+194699764+199001429+203804112+208596817+212090154
3838+212567500+210331792+207489465+205007036+202508122+200111272+198718251
3828+198596554+199397199+201794904+206899562+212923060+215345199+213795643
3818+212027571+210496527+206984837+202250980+199447262+200426639+204918684
3808+210304973+213479741+215318434+218832685+223159426+224424613+222687397
3798+220800260+218731475+215570881+212942213+213058042+216014349+220426383
3788+225223018+230036851+234648299+239283134+244972715+252244488+259881317
3778+266589045+273407106+282503059+294965281+310302321+326000987+338123103
3768+344941822+348181894+350162522+352613828+356323154+360049624+361628330
3758+361479867+362943046+368836772+379731848+393349262+404659208+411445667
3748+417932390+428329793+441462266+451369820+456515079+462235730+472716078
3738+488429184+506429021+521374880+529668480+533046450+536225593+542230791
3728+550732289+559078210+564973324+568648824+570988410+571258018+569079202
3718+566327308+565646777+568337280+572668129+573584372+567930697+559666299
3708+553992706+552336639+553983778+557181737+559253065+558754858+557027903
3698+556037358+557122729+561476839+569372073+578708398+585049860+584798924
3688+579811731+575152727+573286736+574118717+576844789+580798791+586364042
3678+593776043+599091284+596778269+590284218+586816117+586161907+583405673
3668+578121412+574041569+572583619+572572770+572763346+573194258+574505382
3658+575815794+575018705+573129274+574260955+580220163+588027970+591067471
3648+586140103+577725926+570529292+566085762+564111358+563466751+563429191
3638+564332772+566491136+569330920+572513691+577188060+583848464+589083997
3628+588518992+584297445+581613130+582750787+587665171+594142825+598012138
3618+597819428+597188515+599178498+602697071+605114515+605891615+606061774
3608+606018381+605858678+606546643+609243869+613560100+617256230+618606266
3598+618311901+618074731+618488321+619279363+620966374+624910345+630860447
3588+634810038+632491474+625791802+620314689+619013453+620941120+623394987
3578+624765937+625790877+627960623+631383873+634826755+637353609+638766956
3568+638426780+635664961+631678237+628466620+626593942+625577965+625173907
3558+625273428+625314900+624722330+623467049+622183811+622000847+623501266
3548+625561888+625877522+623165002+618597445+614770138+613483414+614528628
3538+616353289+617403127+616968268+615573487+614650343+615019828+615829580
3528+615907759+615401407+614650201+612857765+609677235+606618349+605101071
3518+604484172+603293482+601305704+599410902+598406805+598619007+599772705
3508+600893039+600990639+600027161+598932293+598618864+598910099+598509029
3498+596251500+592399224+588638715+586954265+588206914+591124594+593028501
3488+592553556+590918190+589537850+588034870+585689024+583248745+581922362
3478+581750317+582088289+582556796+582854753+582445147+581016007+579281263
3468+578359471+578075991+577102945+575181929+573782062+573990493+575142377
3458+575969948+575988728+575183209+573481402+571457380+570429060+570675087
3448+570480066+568286738+565096889+563123623+562820473+562528349+560893446
3438+558729995+557718998+557877669+557685528+556816662+556778533+558221580
3428+559617748+559312357+557448571+555409326+554303076+553954007+553204224
3418+551685416+550528446+550487969+550651157+549979020+548753154+547518467
3408+546006915+544033151+542279235+541466354+541442132+541346275+540356121
3398+538439942+536660275+536215492+537107050+538387906+539393319+539811817
3388+539202067+537543440+535531297+533684548+532063196+530983872+530997744
3378+532211303+534128762+535710171+535659557+533712967+531397924+530447820
3368+530894417+531558196+531913738+532468179+533396977+533893940+533394737
3358+532601809+532494962+532868181+532748565+531897590+530803255+529572694
3348+528065410+526795901+526448291+526714805+526824570+526874010+527433786
3338+528267901+528585848+528164362+527296990+526052557+524386531+522781291
3328+522119007+522705246+523812172+524670651+525421359+526314945+526719074
3318+525974306+524545949+523352129+522664449+522277002+522004263+521622223
3308+520879376+519808766+518739045+517960665+517582466+517627602+518097034
3298+518914362+519821143+520351825+520071510+518948401+517559275+516863094
3288+517411986+518747261+519864466+520266958+520222284+520151610+520346703
3278+521101429+522323348+523173042+522964433+522194412+521802235+521837625
3268+521687491+521154035+520548483+520025093+519438427+518727947+518064418
3258+517657800+517626073+517935305+518158390+517504429+515719960+513831311
3248+513133992+513515072+513695867+513022378+511922886+510820122+509823103
3238+509226905+509269587+509701246+510094811+510043699+509047462+507047627
3228+505024529+504140689+504302739+504267597+503203888+501611951+500607605
3218+500719005+501366315+501382250+500322915+499116398+498940014+499785156
3208+500543084+500065791+497986531+495095101+492854929+491983716+491750814
3198+490996870+489432712+487731118+486874309+487431845+488823673+489431502
3188+488128310+485515524+483176721+482036717+481813205+481698888+481105322
3178+479934017+478559155+477424557+476452969+475235070+473888414+473010798
3168+472685204+472326888+471478474+470113321+468471518+467078195+466413848
3158+466272143+466002748+465442936+464990683+464784707+464398931+463370221
3148+461665923+459675976+457987791+457013429+456553529+455833304+454288175
3138+452309787+450935138+450728379+451192867+451427227+451115861+450506858
3128+449658089+448362046+446810479+445658915+445260727+445297433+445281534
3118+445073601+444755726+444344697+443852003+443449866+443259290+442966740
3108+442112030+440857069+439922401+439599760+439345054+438594311+437524021
3098+436672228+436196678+435849424+435434518+434998555+434675452+434482813
3088+434237355+433772653+433281667+433177949+433549639+434010713+434054640
3078+433319085+431719501+429630282+427725022+426434919+425689761+425204180
3068+424800656+424398022+423942817+423478684+423106105+422829062+422608502
3058+422513748+422567563+422501797+422026887+421302358+420758587+420504664
3048+420229863+419684705+419012213+418490459+418104684+417608219+416925056
3038+416121138+415105162+413821532+412538045+411490412+410564921+409721985
3028+409243411+409196674+409153850+408704229+407818575+406649903+405402802
3018+404337385+403566332+402969885+402429636+401900022+401270034+400468748
3008+399638047+398924010+398235903+397454714+396684586+396099271+395674406
2998+395204618+394556312+393836265+393338129+393313480+393679977+393955206
2988+393665643+392829856+391825296+390913073+390134586+389458608+388827019
2978+388264966+387934073+387813923+387490357+386581512+385198718+383817489
2968+382864610+382390483+382025479+381429246+380733456+380209141+379740207
2958+379093786+378396111+377869342+377387106+376659838+375637067+374516270
2948+373559728+373030896+373064117+373398674+373462733+372944643+372105121
2938+371383971+370908634+370454710+369710511+368601238+367451275+366726390
2928+366564554+366604248+366244971+365157217+363673728+362540802+362131018
2918+362093921+361925682+361609158+361418476+361308214+360887617+360007120
2908+358986341+358186870+357713560+357536429+357528996+357435451+357113023
2898+356656431+356111700+355381017+354536338+353874801+353552728+353400282
2888+353142624+352665118+352014500+351222711+350296082+349415052+348909482
2878+348855916+348857836+348437880+347597362+346781671+346327640+346220899
2868+346358122+346636658+346730808+346211615+345042410+343702404+342759556
2858+342438622+342522706+342557314+342173103+341293638+340183796+339342567
2848+339091489+339173332+339026043+338473737+337853956+337497276+337360373
2838+337184985+336863126+336532696+336290617+335964419+335315899+334377070
2828+333453536+332847485+332625822+332611702+332556393+332289914+331758166
2818+331050425+330362602+329788634+329206984+328497891+327743876+327095641
2808+326560087+326042851+325531341+325129524+324907613+324771386+324524434
2798+324057349+323454002+322877331+322334841+321659325+320804793+320007349
2788+319488156+319156125+318804886+318434512+318124818+317722218+316972578
2778+315959304+315124086+314790454+314845870+314896768+314581454+313796352
2768+312778205+311920010+311421625+311151731+310819700+310210697+309325114
2758+308363699+307567037+307078291+306904859+306865094+306612380+305922210
2748+304973671+304191023+303799023+303638503+303402542+302923648+302191828
2738+301278252+300378833+299746355+299413079+299137565+298724082+298197296
2728+297617406+296964583+296266676+295640743+295136365+294667697+294171695
2718+293723782+293378448+292976115+292303943+291437105+290717537+290357958
2708+290242058+290163648+290077287+290010401+289889166+289590480+289093589
2698+288496733+287939251+287510793+287156194+286706697+286079626+285408467
2688+284947571+284854453+285005992+285047839+284741986+284207819+283706233
2678+283327838+283012417+282683427+282256908+281719291+281241820+281008526
2668+280936162+280777420+280470892+280178252+279985738+279746523+279260569
2658+278524978+277769042+277256803+277060572+277016662+276895267+276618527
2648+276288363+275978686+275594903+275051008+274477271+274074032+273858060
2638+273731312+273671557+273680734+273663732+273494640+273131877+272643736
2628+272171743+271807522+271469764+271023131+270526187+270187539+270074663
2618+270053820+270021541+269993318+269957376+269844677+269657250+269446186
2608+269182695+268802700+268325763+267833353+267423320+267203205+267190347
2598+267244144+267212257+267055898+266774890+266373446+265947923+265658592
2588+265591545+265716640+265929641+266089504+266078104+265871416+265573868
2578+265394443+265493056+265749647+265797914+265426970+264832052+264335428
2568+264037276+263895109+263920220+264078446+264205781+264241581+264349780
2558+264622679+264885121+264954052+264860703+264676672+264340977+263795055
2548+263145237+262611764+262370112+262417631+262539773+262463835+262100325
2538+261586646+261100229+260729855+260522491+260495050+260547247+260502929
2528+260318328+260153077+260165651+260322597+260464212+260501879+260479222
2518+260428679+260250997+259851813+259355953+259017128+258936672+259030502
2508+259196286+259344660+259371745+259248821+259024188+258698186+258287904
2498+257993433+258039209+258342412+258556944+258464074+258164713+257879898
2488+257700029+257575415+257445394+257277191+257037033+256731447+256434646
2478+256199752+256015650+255897135+255892120+255939444+255847269+255494607
2468+254988504+254572371+254411175+254480391+254625226+254685283+254569010
2458+254273703+253874981+253467117+253114118+252889432+252878673+253019062
2448+253046485+252812711+252554378+252580058+252786551+252793433+252479666
2438+252064476+251748095+251617060+251763513+252111355+252269243+251938777
2428+251348323+250974748+250979443+251150509+251250972+251236496+251184726
2418+251127443+251017679+250859310+250748995+250734198+250742379+250693686
2408+250608891+250609869+250823102+251220828+251612081+251879253+252102819
2398+252377354+252685519+253047748+253663437+254885089+257184091+261142378
2388+267366126+276352208+288467567+304072402+323550606+347020691+373965493
2378+403309244+433934063+464893190+495062663+523129827+548259713+570280811
2368+588786822+602468864+610271726+613129081+612785775+609064604+600435771
2358+586525701+568073576+545244896+518221062+490359732+468302461+457575410
2348+460235218+475082517+496824759+516710612+528709875+533220096+533456803
2338+532191919+530904768+530040810+529733535+529723540+528991399+526590743
2328+522583175+517384136+510792166+502372795+492424622+481873600+471257487
2318+460395490+449138789+437982392+427527262+417522002+407094935+396005940
2308+384894110+374221230+363848085+353730250+344221881+335555559+327582324
2298+320085599+313007550+306381861+300242179+294588077+289386851+284614686
2288+280277097+276391334+272985922+270098174+267720957+265757988+264069038
2278+262583860+261355700+260447691+259780338+259167422+258486287+257731809
2268+256947756+256205887+255586303+255078439+254573527+254021380+253499627
2258+253083405+252745736+252405488+252000044+251534079+251103754+250816664
2248+250656161+250479493+250164196+249720925+249269561+248926557+248712595
2238+248568294+248452429+248396694+248451024+248587358+248683375+248640515
2228+248514336+248467920+248599896+248880229+249220334+249519074+249678047
2218+249677531+249616762+249608119+249669528+249772410+249934051+250202254
2208+250586892+251033258+251442188+251743844+251984536+252296098+252749293
2198+253274692+253748072+254133030+254508721+254934618+255337573+255620964
2188+255828204+256073430+256365216+256613857+256769060+256881332+257051154
2178+257320638+257606306+257773958+257773406+257663180+257533977+257433016
2168+257338902+257205378+257022450+256798671+256522393+256217109+255998079
2158+255967205+256065107+256147733+256210173+256386557+256730540+257184855
2148+257749611+258512785+259595933+261199697+263541167+266658919+270429921
2138+274733417+279448210+284440223+289700404+295358668+301516454+308164836
2128+315214252+322544161+330064468+337718725+345460979+353277464+361082674
2118+368537713+375181933+380770518+385334234+388977687+391694511+393320025
2108+393724260+393035370+391542029+389491900+387044186+384231114+381013771
2098+377490467+373862486+370205802+366486872+362626700+358390783+353494005
2088+347912036+341881905+335612042+329110166+322285045+315229867+308319096
2078+301915496+296132655+290971354+286468905+282627051+279357973+276571683
2068+274281698+272565485+271351837+270353893+269340086+268309312+267343967
2058+266523723+265940899+265577016+265292717+265044058+264914109+264946743
2048+265120975+265418701+265896189+266751343+268152438+269987396+272064628
2038+274489649+277529862+281223164+285304376+289390265+293203433+296707209
2028+300000669+303155661+306213196+309140300+311764967+313933966+315584022
2018+316516626+316417212+315252666+313382086+311217071+308928526+306436067
2008+303606882+300460107+297144506+293796217+290538023+287510722+284764216
1998+282237665+279996373+278314982+277276739+276434069+275211173+273559570
1988+271856144+270385407+269266299+268569709+268208903+267944256+267639843
1978+267346243+267129027+266955311+266759577+266632812+266876278+267615443
1968+268389306+268517761+267935684+267225044+266827780+266700374+266711098
1958+266932387+267420759+268003850+268457348+268764322+269083691+269522996
1948+270092767+270911144+272142043+273444133+273889787+273044574+271687123
1938+270850873+270779985+271111928+271511504+271908269+272379427+272948415
1928+273620232+274647822+276282957+278127607+279501829+280522519+281667325
1918+282450329+282004496+280820191+280365111+281341056+283196857+284877270
1908+285755313+286010356+286193498+286583044+287122261+287772524+288649410
1898+289834231+291101250+291975148+292404193+293045847+294216334+295059946
1888+294660566+293407721+292254058+291530418+291118020+290902120+290725647
1878+290447964+290137096+290040030+290652127+292700442+296269309+299648542
1868+300141663+297217901+293200392+290302845+288981851+288637175+288629652
1858+288637601+288599081+288553962+288544608+288738545+289475629+291066890
1848+293741370+297425105+300781717+301321646+298580884+295286321+293711368
1838+293719016+294020494+294145215+295098822+297946734+301880355+304464011
1828+304725972+304077666+303340119+301899135+299812192+298240938+297829749
1818+298194877+298814960+299756207+301381899+303484527+305031754+305194444
1808+304406425+303903737+304674434+306978877+310141872+312693374+313515539
1798+313171948+313547053+316130637+320435308+323407443+322181327+318286974
1788+315508403+315422968+317092870+319154488+321134548+322781047+323699246
1778+324411575+326543512+331322097+337910261+342853243+343122354+339930691
1768+336199704+333589869+333195949+335461161+338820600+340740264+341048216
1758+341364597+342095066+343181149+345859879+351154206+357486136+361373482
1748+361442022+359628814+358312177+358677892+360714399+363219875+364682485
1738+365775005+369280417+375938012+381181618+380131246+375357143+370931896
1728+367894884+366530159+366993153+368740880+371770493+377503237+386788627
1718+396806514+401312396+398206026+392141286+387466491+385792142+387459768
1708+392009399+397666666+402307565+406407539+412537689+420738242+426664692
1698+427700409+425523905+420897482+415327073+412352733+413444827+417388798
1688+423321578+432231793+443273055+449409501+445998203+439343240+435766087
1678+436823999+441381241+446596250+450431346+454167811+459053635+462465039
1668+461568750+459373182+460523429+465362409+470215616+472148441+472939056
1658+476417081+485195977+500057076+516563181+522753584+519044364+517957997
1648+522364821+526254052+524004383+518942710+516709474+519092844+526018233
1638+536716331+547908439+553122844+550844045+548010236+549810604+556327809
1628+565100374+574185195+583585791+592998766+600625280+606548066+613887543
1618+624527415+635357152+641155591+642886351+645160597+649447306+654086071
1608+657230677+658856154+660040655+661286404+662324291+663236621+664971650
1598+668342329+672908250+677340362+680974390+684452983+688447106+692532284
1588+695888308+698405843+700526504+702581436+704900356+708388410+714358645
1578+722949633+730966475+733987018+734036600+737042987+744833472+754447835
1568+762162417+768255433+775340595+785232535+799741115+821384583+848184906
1558+865607111+866783146+863689901+862659768+863064323+863471369+863100105
1548+862526244+863635055+867427220+873103232+879070407+881128468+873049025
1538+859152649+849754328+846594285+844961054+840509236+834815654+831969894
1528+832614536+834649620+837055043+840485619+843719573+843895992+841835584
1518+840569987+839566602+836636331+832685602+831265568+835288999+845066763
1508+856117593+857769178+846267056+833702646+827847156+828098482+831675387
1498+834836781+834037701+830071748+827769190+829947045+834787057+837320668
1488+834354189+828390499+823892656+822530314+822894819+823136898+823573252
1478+825965514+830903908+836999485+841380236+840679467+834895327+828872167
1468+826752003+828661744+831448745+831906297+831047960+832623215+838450820
1458+845738082+847211469+840590404+832487699+827671874+826557231+827578970
1448+828206895+826652127+823783177+821800663+821600768+822836487+825336593
1438+828528220+829900806+827558127+824011882+822508831+823063983+823616005
1428+823078993+822156988+821315011+820359999+820086335+821806638+824318482
1418+823749529+819085368+813600359+809917247+808331179+807995697+808206974
1408+809032802+810490041+811499829+811119318+810367187+810772739+812155995
1398+813382751+814124566+814303191+813245315+811180993+809787493+810010436
1388+810637152+809714791+807489914+806446691+808416045+813216077+819416653
1378+825676343+831354987+835968711+838857936+840154619+841064104+842364486
1368+843900545+845734241+848295595+851146548+852926748+852949157+851841342
1358+850465128+849295353+848627378+848619979+849109757+849658720+849902293
1348+849754755+849332771+848989037+849383278+851131752+854143331+857246322
1338+858822289+858394543+857197451+856715570+857343993+858784444+860964078
1328+863898475+867137408+870012192+872324923+874595826+877647811+881818069
1318+886569515+891116584+895247361+899083631+902415398+904941611+906904420
1308+908857269+911011934+913224505+915218329+916518000+916784906+916484993
1298+916609269+917690194+919399755+920811823+920999624+919791079+917773211
1288+915437929+912949063+910581414+908427958+905975941+902993100+900380029
1278+899081283+898643364+897977310+897141096+897098627+898032797+899221281
1268+900426197+902137466+904526669+907130635+909377280+910903237+911750620
1258+912475433+913647414+915237465+916685741+917405077+917264582+916839610
1248+916980746+917827132+918373037+917362182+914776498+912108154+910782518
1238+910730944+910879406+910494911+909517846+908241722+907327186+907414756
1228+908238023+908895612+909123961+909173117+908608930+906852632+904764266
1218+904097785+905442130+907698236+909378774+909945592+910275383+911900221
1208+915305472+919073522+921147375+920866811+919598441+919468900+921549299
1198+925260368+929221767+932367013+934472878+936147868+938180106+940587236
1188+942738557+944345255+945617254+946979169+949186831+952532470+955811454
1178+957747017+958967726+960560339+961910303+962167890+962472356+964470235
1168+967764726+970592275+972279571+973562809+974827481+975429654+974917540
1158+973982801+973866493+975168440+977198117+978687866+979408056+980485851
1148+982905643+986310041+989569604+992005046+993747686+995333683+997075683
1138+998784178+1000325074+1002300403+1005483992+1009358106+1012007030
1130+1012062375+1010580665+1009984893+1011420578+1014046240+1016331442
1121+1017736253+1019199254+1021429253+1023408850+1023888384+1023699800
1113+1024763865+1027203007+1029382997+1030017822+1028840507+1026329588
1104+1023809635+1022888199+1023979937+1026109135+1028290832+1030099487
1095+1030830205+1030112577+1029708092+1032329273+1038353856+1045082480
1087+1049613544+1051186665+1050241113+1047907255+1046578560+1048666001
1078+1054389959+1060771862+1063837079+1063014737+1061278997+1060977234
1070+1062241906+1063904303+1064186575+1062361771+1060049111+1059100430
1061+1059032565+1058224094+1056429240+1054853558+1055062273+1058233200
1053+1063984190+1069663190+1072334309+1071908768+1071072696+1071834572
1044+1073377460+1073741823+1072182574+1069481151+1067217290+1066700765
1035+1067962307+1069280260+1068377746+1065218344+1062082844+1060193590
1027+1058471935+1055982073+1053912346+1053887803+1055143725+1055414899
1018+1054741944+1055923670+1060314452+1064965452+1065550482+1061737758
1010+1057625406+1056611848+1057592399+1056955297+1053744107+1050908377
1001+1051061820+1053901035+1058299144+1063279935+1066023827+1063320198
993+1056426821+1050492582+1048795968+1050325268+1051735699+1050144012
984+1045321856+1039665762+1035705216+1034068712+1033746462+1033871165
975+1034511966+1035417467+1035029273+1031935886+1026989169+1022552362
967+1019973579+1018830338+1018084610+1016975159+1015368390+1013622834
958+1011801872+1009558214+1006923091+1004047240+1000416414+996048111+992718976
948+991958807+992703682+992605441+990956417+988856101+987083156+985076029
938+982012590+978015694+974090787+971424292+970682548+971667438+973394073
928+974764169+975098014+973997029+971794915+970425317+971943165+975492611
918+977644572+976583637+974084456+972614910+972616618+972863249+972078396
908+970293571+968924969+968935070+969405499+968867277+967348007+965787477
898+964265290+962397520+960814866+960584596+961522323+962241801+961611101
888+959494850+956573045+954164777+953469058+954388787+955744941+956550637
878+956304219+954821299+952650557+950724242+949525727+948961256+948883859
868+949208244+949667432+950041328+950179973+949943799+949744260+950474694
858+952073993+953214175+953469770+954024353+955147106+955150877+953098293
848+950371687+948153924+945946333+943788182+943168651+944602984+946507959
838+947293239+946785250+945214690+943136995+941981305+942903737+945706246
828+949342265+953046292+956321861+958231815+957711164+955028094+951970844
818+949959947+949273832+949719576+950951026+952669551+954891369+957680362
808+960464304+962398160+963390662+963683603+963052050+961801108+961298953
798+962342033+963889900+964338561+963373802+961712116+960010877+958839111
788+958688585+959254906+959385726+958453122+957393325+957597630+959004433
778+960224146+960598824+960995412+961795275+961362620+958483426+955286037
768+955151019+957841629+959147062+956724424+953836836+954775558+959231786
758+963076379+963379564+961066762+958944535+958553496+959120599+959532909
748+960716769+964664723+970862240+975230400+974233915+969545496+966614230
738+968676417+973742501+977546546+978059870+975632466+971027846+965888918
728+962992509+963595820+966055805+968548726+971094644+973693986+974648002
718+972313859+967662787+963688725+962682850+964427340+966786096+968047282
708+968079578+967332214+965900584+963890185+962059122+961344409+961829990
698+962197198+960505492+955564751+947848960+940337545+936683386+937515688
688+939178441+937368007+931835479+925617759+921355024+920117100+921649886
678+924217643+925356331+924772369+924445566+924952060+924384032+920715859
668+915070294+910883817+909006443+909393926+912784950+917990036+920415377
658+917530563+913192564+911922060+912616996+911673081+910167682+912999712
648+921415277+929344621+928980827+920273459+910681646+905352355+902121958
638+896661206+889800267+886560267+889518708+895394756+897648586+892782895
628+883802290+876839910+875502892+878029816+879107398+874696342+866137508
618+859471626+858618197+862004384+865867117+868480757+871758673+878057133
608+885484037+889567721+889836263+888150105+882650370+871811599+860258898
##END=
