##TITLE=<SNM>
##JCAMP-DX=4.24
##DATA TYPE=INFRARED SPECTRUM
##DATE=3/5/2025
##SAMPLING PROCEDURE=Instrument type and / or accessory
##ORIGIN=Admin
##XUNITS=1/CM
##YUNITS=ABSORBANCE
##RESOLUTION=4
##FIRSTX=4497.3318
##LASTX=599.83466
##DELTAX=-1.4281778
##MAXY=1.7487736
##MINY=0.18899433
##XFACTOR=1
##YFACTOR=1.6286723e-09
##NPOINTS=2730
##FIRSTY=0.21042794
##XYDATA=(X++(Y..Y))
4497+129202135+128641404+128332012+128600543+129490429+130192361+130091709
4487+129629818+129441462+129510063+129719435+130274832+130952729+130873341
4477+129776938+128746419+128850657+129759536+130423105+130430681+130045012
4467+129576148+129280819+129331908+129560905+129597960+129270993+128661148
4457+128031047+127760338+127958072+128176850+127950854+127501039+127466125
4447+128031587+128667845+128676830+127848922+126666031+125907191+125990440
4437+126654018+127211300+127125754+126507712+126016826+126100130+126508224
4427+126752839+126702957+126536734+126469560+126545983+126399586+125497212
4417+123958469+122713766+122514349+123211779+124129506+124677016+124573483
4407+123915065+123152574+122739403+122647123+122401447+121733193+120966787
4397+120597632+120709948+120940245+120865834+120419432+119988089+120000102
4387+120432945+120853702+120829419+120283528+119636840+119411905+119528329
4377+119383176+118727375+117908890+117259768+116884886+116899031+117315881
4367+117875779+118305328+118524892+118477380+118059012+117347116+116664919
4357+116316762+116403387+116879003+117539223+117997025+117997153+117733005
4347+117621384+117818093+118106899+118187943+118037685+117976714+118254303
4337+118709241+119040847+119167546+119159971+119064635+118894916+118694630
4327+118552139+118414333+117963905+117085017+116275389+116041964+116253413
4317+116655413+117428755+118606165+119555978+119672439+119165753+118690540
4307+118569367+118699717+118882034+118980544+118946848+118883763+118935704
4297+119034507+119011615+118955713+119138452+119612768+120107515+120296749
4287+120119830+119839478+119669201+119437102+118873791+118137567+117769190
4277+118102818+118807724+119152660+118855071+118373646+118150266+118082324
4267+118034492+118266023+118967433+119802908+120245028+120203491+120101000
4257+120289018+120622390+120777891+120682812+120473266+120406998+120811368
4247+121687136+122537753+122951821+122991346+122827437+122476379+122013344
4237+121644043+121468102+121388815+121309546+121288731+121448633+121859755
4227+122596198+123609965+124394999+124295126+123370876+122390724+121898191
4217+121893242+122333184+123196720+124059111+124272225+123739235+123133077
4207+123229465+124192197+125485812+126354581+126403575+125822542+125120116
4197+124682598+124558625+124558579+124556621+124728527+125314345+126095062
4187+126486312+126301305+126004941+126034905+126255933+126313199+126262512
4177+126524290+127264064+128131890+128705083+128919423+128940429+128877720
4167+128779064+128678404+128545712+128342580+128123336+127970607+127895976
4157+127856982+127783596+127579942+127209077+126793746+126556331+126600092
4147+126776664+126855457+126835457+126952074+127293936+127602074+127594124
4137+127317221+127043374+126962714+127070127+127286836+127641672+128228845
4127+128908746+129270572+129098099+128649025+128280145+128071816+127995520
4117+128131460+128514522+128959167+129196719+129120359+128863283+128680462
4107+128741552+129024035+129467958+130123220+130907541+131351491+131006755
4097+130096165+129349566+129182922+129375514+129455250+129077412+128224142
4087+127381229+127254283+127949573+128728880+128931509+128783282+128869989
4077+129238339+129561162+129796179+130125031+130490407+130572275+130128325
4067+129266372+128413679+127943717+127875363+128032172+128274692+128412727
4057+128219824+127730750+127268757+127105681+127282481+127709661+128289249
4047+128975919+129672728+129983675+129369183+127876360+126425991+125971162
4037+126550659+127493756+128343687+129152555+129989677+130612632+130697464
4027+130212123+129524089+129125336+129183462+129444975+129646332+129830388
4017+130131015+130396572+130248638+129572790+128769292+128319331+128238461
4007+128257519+128424685+129078986+130203157+131203272+131471410+130967121
3997+130172443+129608216+129425734+129431599+129481261+129725016+130373891
3987+131318068+132105372+132267461+131657973+130619842+129882255+130058735
3977+131042996+132083981+132605105+132691511+132680065+132689736+132707540
3967+132788575+133043803+133556840+134262834+134889751+135171063+135089278
3957+134796328+134456396+134290712+134624111+135678747+137163454+138218895
3947+138295987+137956613+138025361+138289308+137873858+136615221+135283307
3937+134784260+135659845+137781990+140124853+141255876+140638667+139314374
3927+138803021+139478283+140319275+140453861+140444199+141291787+142817592
3917+143653781+142694855+140345121+138075664+136943222+136971054+138030640
3907+140670021+145297383+150770357+154740783+155855566+154390036+151050901
3897+147065909+144478112+144789754+147382556+149493064+149164340+148147591
3887+148948390+150997698+152134055+152624319+153772662+153964376+151314455
3878+148222981+148160583+151246146+155353729+158896802+160635840+159563875
3868+157366074+156836185+157814772+157656234+155309648+152727504+152171686
3858+154872221+161522239+171059986+177134040+173444707+164415202+156554625
3848+152366401+152248723+155372997+160081266+165101598+169973620+173608716
3838+174038128+171256696+167701509+164771913+162097509+159750666+158764302
3828+159338089+160703178+163233793+168125011+173743613+175621720+173520792
3818+171399991+169650175+165819559+160702703+157643480+158547629+163151486
3808+168997393+172996264+175451782+178749782+182028606+182185424+180017834
3798+178320224+176776687+174264353+172157899+172459129+175169271+179007847
3788+183239237+187777604+192425853+197435188+203955159+212273052+220465051
3778+226856621+232687834+240113253+249863354+261235823+272141971+280039529
3768+284622580+287485350+289670653+292345497+297551339+306253356+316950919
3758+327420208+337615787+349629949+365548359+385096944+403851957+417697217
3748+429688176+444763280+461263438+471270799+474248703+478543662+489280293
3738+506039412+524392040+537970361+543489895+543867248+544326285+547665366
3728+553809758+561219898+567520487+569894539+566380561+557820432+548354598
3718+542134230+540277990+541809833+545347197+548639141+548945897+546101133
3708+542603807+540934175+542309566+545977874+549221107+549883002+548773342
3698+548305631+550591302+556668283+565950912+576536762+585717212+589964669
3688+587655833+582114120+578043354+577554747+580172645+584336222+588983904
3678+593357254+595045038+592277165+588690249+588104293+588510923+584746877
3668+576046362+566443948+559382395+556348717+557257020+561177701+566963699
3658+572575641+575271309+575056813+575714426+580343956+588031721+593437146
3648+591867387+585547621+579674523+576935414+576933475+577478295+576856877
3638+575680098+575661104+577145628+579716865+584425701+592456857+601061305
3628+604782715+603629541+601531175+600622543+601965033+606160559+611702600
3618+616001549+618968181+622339431+626716295+631431901+635899599+639541301
3608+641488119+641447057+640255676+639546937+640633211+643115884+645160343
3598+645671384+645379193+645747653+647698277+651564904+656688495+660520794
3588+659831086+654714888+649346975+647062586+647914785+649906252+651081750
3578+651140159+650900521+650380623+648881899+647410770+648812438+654281286
3568+660466045+661501596+655840614+647890045+642683160+642199347+644694828
3558+646972923+647596976+646844613+644771975+641781408+639839201+640229765
3548+641206175+640046560+636908580+634475021+634024584+634225063+633591495
3538+632515467+632664783+634808347+637767880+639931499+640963170+641392454
3528+641221107+640036972+638032696+635899013+633961052+632091014+630188552
3518+628345889+626864000+626174585+626436547+627234729+627767436+627203475
3508+625227965+622420896+619734890+617767944+616772064+616768185+617226892
3498+617391433+617116808+616731514+616378572+616208103+616353686+616269659
3488+615377788+614257186+613661386+613205606+612532293+612450901+613566087
3478+615066201+615665222+614880215+613041065+610700975+608432469+606996802
3468+607312452+609636988+612710630+614555525+614239546+612334010+610028906
3458+608215704+606804667+604797427+601579739+597813461+594709480+592967020
3448+592697080+593728568+595531743+597295100+598469939+599037962+599180874
3438+598778745+597421433+595056274+592382821+590344400+589460178+589542631
3428+589491944+587929945+584906880+582225815+581375994+581999315+582742309
3418+582807598+582264022+581440954+580473876+579309028+578212616+577870250
3408+578370349+578713008+577973637+576378041+574828850+574058518+574322237
3398+575417880+577055306+578877219+579669765+577822711+573705759+569978274
3388+568584401+568980637+569540682+569356343+568499752+567613041+567442133
3378+567929642+567999470+567039528+566063887+566568670+568650275+570907290
3368+571957773+571592131+570527596+569474515+568721530+568439659+568709014
3358+569050794+568762629+568042654+567907904+568634978+569310560+569203294
3348+568513402+567750646+567135010+566558460+565840498+565263875+565713580
3338+567581165+569702039+570196465+568408771+565469294+563140366+562673497
3328+564263384+566729405+568071163+567241288+565086342+563041810+561599556
3318+560535972+559760919+559174963+558449572+557708628+557817285+559287682
3308+561297886+562341928+561746347+560283086+559344664+559645126+560689679
3298+561409983+561277465+560726862+560560382+561020773+561541147+561724425
3288+562132702+563143111+563752342+562924517+561306047+560233021+560037117
3278+560364697+561062201+561917585+562429468+562330363+561715422+560529494
3268+558546591+556057880+554131666+553752045+554785949+556163792+557023238
3258+557308732+557363225+557239966+556524969+555021341+553331471+552192790
3248+551505204+550746181+549988438+549597691+549315198+548504171+547119959
3238+545821275+545260315+545570476+546329682+546909599+546986417+546646979
3228+545991928+544973028+543640529+542223783+540973188+540116853+539897856
3218+540472247+541710179+542931021+542976658+541254253+538782962+537414122
3208+537865437+539127048+539888267+539867151+539391279+538318106+536300143
3198+533849896+531991167+530948443+530168157+529324631+528385806+527106336
3188+525507117+524347209+524106547+524166053+523761290+522931927+521880383
3178+520314980+518154728+516203152+515410020+515632933+515527789+513961215
3168+511398980+509340724+508597401+508803955+509347678+509879653+509862050
3158+508555717+506043840+503791327+503381439+504639574+505577703+504572894
3148+502038034+499437665+497550683+496277874+495338536+494568461+493901918
3138+493361087+493010816+492862927+492719064+492171352+490990657+489438832
3128+488014473+487007798+486356919+485820698+485330846+485048573+484874993
3118+484310996+483185379+482070193+481544732+481454813+481167197+480221638
3108+478703701+477245893+476521015+476494885+476402550+475666986+474535002
3098+473541464+472737317+471889143+471121483+470813665+471024720+471429667
3088+471707951+471707951+471362548+470751779+470202164+469951584+469622430
3078+468522029+466693383+465096177+464510221+464799667+465388514+465847222
3068+465843891+465170615+464034678+462816288+461460696+459654850+457677986
3058+456430501+456345230+456755922+456729060+456116425+455359817+454652945
3048+453833646+452911912+452194536+451805436+451437672+450748146+449763063
3038+448753898+447938808+447442296+447347253+447521163+447426083+446500507
3028+444961380+443747418+443307229+443001460+442092023+440678680+439314415
3018+438346422+437859681+437715964+437511972+436880380+435870483+434845436
3008+434094244+433627778+433280435+432929103+432555044+432106913+431426317
2998+430365880+428976363+427608584+426714188+426398977+426305032+426044168
2988+425557061+424936119+424133142+423069521+421946211+421209585+421086728
2978+421234727+421012144+420093557+418681569+417219515+416111173+415560423
2968+415389003+415086199+414267339+413000787+411590775+410297032+409344264
2958+408863634+408719661+408657629+408653933+408879810+409319707+409603225
2948+409251453+408056339+406320101+404734093+403818215+403444595+403093995
2938+402526704+401913959+401385497+400880604+400441695+400194043+399960920
2928+399296353+398021970+396469705+395110782+394151390+393574949+393337068
2918+393304204+393196792+392893988+392623206+392580717+392596746+392382324
2908+391867879+391167777+390425661+389774672+389280795+388874458+388381019
2898+387595390+386414402+385018736+383814656+383046959+382610648+382366802
2888+382384259+382632460+382723221+382307149+381528436+380792066+380285563
2878+379936720+379566833+378908195+377791362+376510867+375703719+375658229
2868+375944235+375888241+375255112+374328913+373510163+372980604+372628796
2858+372222166+371690337+371170549+370746755+370314580+369757499+369107974
2848+368525166+368160878+367948689+367584731+366945965+366364621+366139695
2838+366019693+365581041+364847050+364113791+363462473+362844275+362342016
2828+361984573+361560669+360897713+360102715+359354231+358707524+358203875
2818+357885224+357633583+357245215+356692745+356114365+355562042+354960533
2808+354285426+353578517+352799036+351865811+350878385+350112737+349728761
2798+349610772+349532344+349333293+348918172+348264036+347482981+346733327
2788+346058111+345424103+344830901+344251423+343595786+342825711+341960336
2778+340977741+339907643+338961279+338340300+337957531+337512620+336824888
2768+335998416+335271452+334773695+334419765+333950005+333097220+331879781
2758+330718629+330066689+329943284+329976331+329768679+329113408+328093228
2748+327069864+326356514+325898684+325427204+324783389+323983706+323148487
2738+322428769+321872201+321387473+320893046+320388555+319871000+319315383
2728+318736600+318179336+317663684+317198974+316794942+316376381+315758476
2718+314843915+313801082+312894170+312187590+311562878+310961624+310448204
2708+310051821+309664148+309137370+308457689+307779765+307273298+306967401
2698+306728788+306358462+305757246+305030373+304368990+303829129+303306705
2688+302712223+302088059+301549625+301154248+300854903+300586335+300335242
2678+300080454+299734410+299211364+298512031+297727920+297002932+296461607
2668+296112086+295833656+295500055+295101183+294715450+294374841+293987480
2658+293431698+292753133+292193546+291918464+291789880+291562063+291207255
2648+290850506+290516704+290170112+289842092+289523368+289104387+288531642
2638+287844953+287079013+286326394+285789405+285570719+285532274+285495860
2628+285437305+285378328+285221565+284817350+284157157+283434603+282897815
2618+282635579+282516254+282335959+281997179+281538728+281063698+280697453
2608+280555108+280651340+280840950+280894839+280684991+280312067+279996033
2598+279816341+279657053+279411376+279082424+278692848+278264717+277861106
2588+277530470+277285013+277173172+277212642+277226165+276934559+276289042
2578+275585719+275180480+275173234+275412835+275688795+275833134+275771907
2568+275603304+275525901+275649142+275968580+276457425+277030078+277482143
2558+277616418+277430578+277126054+276896663+276719442+276434003+276006659
2548+275564145+275169629+274732678+274174920+273594875+273197394+273043650
2538+272953767+272738083+272419285+272149510+272051412+272185906+272516871
2528+272878725+273081180+273046815+272844983+272629499+272508802+272455352
2518+272369257+272188468+271912361+271608715+271393286+271303038+271222195
2508+271017014+270695344+270373765+270126588+269924627+269728650+269576919
2498+269537266+269626178+269788248+269893373+269795019+269470787+269052995
2488+268675624+268347074+267983317+267522761+267008353+266544448+266183455
2478+265909562+265681087+265409317+265003547+264504088+264038994+263646179
2468+263294847+263020278+262872810+262804337+262724519+262601589+262452785
2458+262303305+262169432+262024691+261805749+261506147+261211394+260976478
2448+260749265+260476031+260167572+259812782+259397222+259041059+258911817
2438+258969512+258997729+258913354+258864899+258979979+259154273+259176560
2428+258995112+258742574+258512945+258270819+258017384+257876705+257916669
2418+258016506+258022233+257953303+257964959+258156124+258464216+258709161
2408+258728960+258520063+258240700+258067120+258096910+258356639+258775310
2398+259145819+259234384+258991690+258638492+258499624+258701841+259042487
2388+259187997+258927682+258176399+256852499+254894080+252352541+249377418
2378+246104103+242608570+239004819+235518600+232340638+229443137+226715008
2368+224276911+222477469+221506567+221160633+221206124+221948989+224128876
2358+228128131+233578936+240011952+247561984+256271777+264864057+271259048
2348+274204235+274071332+272496853+270950590+269481821+267452751+264697815
2338+261384755+257650883+253709231+249950364+246838917+244658408+243262669
2328+242210174+241208475+240315250+239790705+239890798+240705595+242057125
2318+243533250+244702343+245437304+246046609+246947610+248206074+249538098
2308+250707082+251706987+252580084+253285401+253797632+254175862+254477935
2298+254718743+254938363+255216628+255599946+256069999+256577015+257075504
2288+257548393+257988894+258323555+258391827+258095135+257578238+257156713
2278+256998211+256968659+256859160+256637144+256396848+256205573+256065150
2268+255925075+255739344+255577311+255593834+255824561+256101820+256198052
2258+255999696+255571675+255096004+254722916+254470652+254266184+254056556
2248+253871649+253773880+253770129+253833076+253967735+254147884+254252698
2238+254210520+254156503+254324538+254807491+255490100+256191209+256807613
2228+257315709+257724571+258093543+258532689+259129569+259901731+260803813
2218+261765071+262765123+263854197+265076485+266452242+268005184+269678951
2208+271326112+272906539+274549583+276342455+278218293+280075064+281875952
2198+283628860+285348392+287072974+288882224+290808511+292749675+294569794
2188+296208940+297617214+298741952+299626668+300386936+301129289+301933364
2178+302770668+303470130+303879724+303964135+303745504+303297629+302716962
2168+302014847+301160506+300204078+299222527+298190745+296994826+295603606
2158+294164079+292782027+291357284+289883740+288617810+287724347+287167852
2148+286938407+286997493+287505790+289446350+294034086+301167021+309443761
2138+317785149+326089758+334487799+342865235+350986566+358754478+366487514
2128+374730420+383647334+392895598+401980420+410454363+417963095+424212485
2118+428906023+432008174+433998945+435563763+437297001+439925110+444458792
2108+451829517+462358093+475574871+490403531+505157203+517539201+525634365
2098+529077528+528679717+525434508+520168921+513319083+505015975+495456782
2088+484529114+471608333+456455643+439510502+421360218+402901275+385327030
2078+369337474+355133051+342965951+332892130+324568271+317757921+312387300
2068+308161070+304693424+301688657+298873226+296229782+294013372+292267472
2058+290859436+289843245+289227847+288860339+288815581+289333063+290557839
2048+292797837+296522248+301991589+309484823+319599120+332812238+349208936
2038+368739734+391025414+414901822+438628842+460364943+478457806+491819691
2028+500108965+503723915+503853651+501908480+498722741+494636092+489753383
2018+483826780+476594502+468251650+459154934+449429773+439058345+428000465
2008+416298843+404233702+392228177+380627855+369641047+359323014+349597743
1998+340484559+332309065+325483051+319954770+315038319+310073047+305133522
1988+300730674+297111095+294206513+291896359+289998728+288268418+286598530
1978+285086613+283857079+282870971+281932933+280976212+280289981+280190144
1968+280453698+280406030+279697639+278683515+277890914+277455903+277225159
1958+277100308+277049840+276982337+276813405+276578726+276423372+276506483
1948+276919610+277721854+278881213+279893415+279818501+278375185+276541104
1938+275405900+275097002+275108018+275046370+274855480+274666584+274609071
1928+274809367+275548024+276978860+278618245+279811986+280671707+281522058
1918+281770717+280696684+279002459+278143745+278644210+279837659+280735861
1908+280880475+280536389+280219495+280175176+280337319+280583361+280913522
1898+281432047+282101207+282656567+283107882+283941674+285181326+285813943
1888+285079605+283685622+282738417+282415996+282276342+282071051+281889401
1878+281900655+282136925+282548130+283443148+285565120+289063233+292321196
1868+292850902+290325375+287054401+285043136+284472844+284519249+284491892
1858+284237927+284001272+284052782+284404352+285004544+286026133+287735949
1848+290345229+293803396+296948220+297521824+295017559+291891108+290330645
1838+290369419+290881412+291316167+292453330+295255898+299005726+301408781
1828+301520183+300691863+299768390+298262768+296306252+294989288+294788937
1818+295153664+295531785+296148409+297562227+299652341+301381242+301874863
1808+301477620+301308633+302277852+304652819+307809701+310294972+310995477
1798+310551298+310915841+313519101+317790126+320789147+319866937+316459347
1788+314023665+313955192+315367327+317080326+318803646+320400230+321456129
1778+322285821+324279337+328629485+334721325+339478469+340056776+337443745
1768+334280842+332079931+331829021+333980819+337217355+339314697+340092421
1758+340914099+342002057+343233146+345866305+351027481+357287558+361313382
1748+361806199+360650902+360035852+360854382+362862793+364931040+365950818
1738+366841627+370114613+376148373+380569154+379108711+374325253+369911463
1728+366811105+365337487+365590336+366972132+369525144+374732579+383466727
1718+393014026+397391842+394584004+388990434+384693754+383180136+384857306
1708+389479554+395364912+400131901+403940083+409406589+416911405+422481114
1698+423536866+421578776+417335674+412246631+409702695+411107511+415231013
1688+421210134+430107615+441252669+447742172+444753106+438398756+435061468
1678+436361543+441133179+446497286+450449624+454324303+459384910+463011351
1668+462277250+459929474+460424267+464240647+468225849+469812515+470449121
1658+473497658+481442517+495093043+510282074+515955975+512643391+511983180
1648+516657102+520975996+519486532+515290348+513808678+516663397+523687839
1638+534318558+545658089+551194056+548844816+545386466+546184392+551342713
1628+558485438+566011992+574172262+582654915+589748746+595728965+603628626
1618+614867552+625514373+629653722+628366091+626641051+626355740+626628974
1608+626345054+625615455+625533989+627058697+630416918+635402538+641777455
1598+649161648+656806264+663798721+669636833+674528106+678896626+682751542
1588+685889815+688431042+690766082+693273055+696277895+700157038+705509873
1578+712674556+719961839+724139029+726284423+731318351+741131125+752461287
1568+761089853+768267711+777890399+791100041+807655387+829081438+855211238
1558+875109728+880718669+880687195+881404132+883101870+884551334+884564363
1548+883065200+881831513+882676905+885721928+889475983+890052899+882799871
1538+871330347+863350794+860003918+857722237+853337834+847975118+844793881
1528+844854632+847151684+850832252+855849565+860646856+862067335+860016874
1518+857302542+854715714+851842331+849866235+850734611+855572232+864245739
1508+873424798+874376249+863767928+852205081+846850124+847121601+850251603
1498+852970546+852434911+848867501+845727326+845770657+848785524+851796731
1488+851554312+848176695+844376820+841959437+840735631+840075127+840607175
1478+843489707+848550278+854158853+858148593+858338971+854499352+849845521
1468+847753852+848741900+850391989+850028434+848731214+850085671+855640522
1458+862084901+862040912+854302460+845971428+841099625+839430872+839408840
1448+839174473+837582866+835192930+833140347+831799137+831569966+833403260
1438+836929754+838745775+835895668+830836707+827543776+826749546+826592032
1428+825482701+823791038+822564451+822333669+823615958+826705849+829781906
1418+829251322+824797092+819988821+817169090+815926619+814741752+812906409
1408+811066601+809864314+808835570+807621132+807349655+809152720+812178127
1398+814315470+814505701+813040135+810356325+807279974+805387247+805682073
1388+807071883+807008204+805068120+804211017+806893216+812409713+818513301
1378+824038434+829105153+833727437+837446359+840100964+842051149+843684623
1368+845492519+848283924+852237946+855781274+856626887+854568667+851802733
1358+850135517+849516148+849008912+848187088+847377195+846936932+846916950
1348+847356920+848330037+849779427+851763428+854552345+858037411+861405660
1338+863914755+865723529+867527252+869799931+872627787+875818101+879018808
1328+882057756+885262781+889117771+893507444+897686757+901171530+904249637
1318+907503849+911281107+915628254+920108468+923687076+925695158+926839548
1308+928360816+930526118+932848862+935243921+937743647+939545248+939721573
1298+938584795+937226457+936159872+935252045+934476260+933963096+933430536
1288+932202704+929961572+927162188+924619789+922951621+922250422+921973967
1278+921279208+919713878+917531960+915370976+913898895+913543831+914082979
1268+914685659+914851371+915081347+916283268+918745007+921786005+924411552
1258+926354491+928105588+929781148+930649890+930152243+928772826+927283105
1248+925473599+922407423+917923110+913202746+909544136+906903877+903943027
1238+899576996+894357813+889982633+887460582+886251854+885409828+884830277
1228+884853114+885393726+886041860+886557147+887014756+887708564+888773612
1218+889810261+890344139+890643064+891430486+892851697+894291280+895294259
1208+896214676+897571915+899156495+900438857+901676790+903845020+907425897
1198+911702998+915336648+917683692+919486537+921910581+925080913+928094462
1188+930312245+932152712+934625503+938234048+942267924+945272764+946493423
1178+946516845+946401491+946544878+946579865+946364235+946572838+947996391
1168+950590685+953640759+956684464+959806780+962984651+965531807+966733948
1158+967075399+967887342+969543433+971317512+972927784+974714819+976893150
1148+979794493+983525858+986776483+987633880+986021632+983970586+983332918
1138+984292420+985766038+986604550+986707022+986951271+988201208+990689736
1128+994096118+997603216+1000196778+1001720460+1003040078+1004692289+1006572281
1118+1009045072+1012931609+1017959754+1022472174+1025416848+1027353053
1110+1028626045+1028208253+1025634088+1022814942+1022339765+1024438461
1101+1026553187+1026210931+1023987366+1023059557+1025826369+1030969795
1093+1034285490+1033649653+1031586749+1031351649+1033719700+1037900257
1084+1042588635+1045965740+1047214139+1047693561+1048412108+1048346160
1075+1047051063+1046221041+1047139774+1048858592+1049716062+1049406817
1067+1049097352+1049591998+1050680175+1052482362+1055605337+1059628161
1058+1063086072+1065050237+1065492403+1064790471+1063926341+1064163124
1050+1065812847+1067820270+1068407067+1066455126+1063308216+1062047300
1041+1064164368+1067856062+1070407171+1071619851+1072832605+1073741823
1033+1072301508+1067944700+1063645641+1062868466+1065387808+1067573166
1024+1066608687+1063378848+1060676301+1059562579+1058966705+1058632866
1015+1059461205+1060669055+1060074059+1057559987+1055429451+1054739011
1007+1054150017+1053032928+1052503734+1053245411+1054967523+1057484231
998+1059816489+1059144567+1053860022+1046515721+1041000981+1038336494
990+1036952978+1035803025+1035698943+1037616190+1040699860+1042527298
981+1041506167+1038345058+1034594223+1030993583+1028027610+1026764864
973+1027832181+1029867784+1029892304+1025955410+1019511690+1013876765
964+1009931380+1005139872+997809697+990200579+985532476+983874262+982796112
954+980813868+978350885+975895953+972932761+969119419+965457808+963296824
944+962420104+961017924+958152300+955496011+955427208+958053488+961223892
934+963159292+963739722+963388243+962335565+960789778+958737267+956019056
924+953209206+951703602+952284983+954032054+955043817+954316267+952810517
914+952266538+952995259+953459749+952215815+949647359+947324250+946148093
904+945952957+946723911+948621616+950572533+950911715+949883410+949343018
894+949788550+949908076+948580481+945672038+942020674+939650721+940203776
884+942589539+943881270+942687473+940217902+938292311+937480368+936948393
874+935757890+934261655+933625744+934019236+934485336+934666199+935200443
864+936255171+937211745+937949982+938805548+939313150+938810672+937999754
854+938197890+939240761+939162004+936350250+931667947+927733469+926339706
844+927441351+930434040+934672713+938412056+939441605+937553489+934718826
834+932730726+931820264+931356433+931303879+932463934+934947411+937206475
824+937612557+936499054+935564365+935904352+937507962+940044945+943371765
814+947213726+950489823+951552383+950143103+948422967+948431092+949463715
804+949613763+948856496+948386297+948157126+947841293+948778178+951853065
794+954580791+953355082+948530709+944584300+945225041+949861013+954541705
784+956166176+955447556+954877081+955112913+955017101+954108396+953077383
774+952586616+953186662+955340986+958358414+960423734+960742860+960333339
764+960020727+959387305+957857986+955409861+952390822+949602637+948043602
754+947735088+947596605+947313197+948181134+950961999+953995970+954626318
744+952129226+948565622+946912825+948386004+951236184+952734322+952475142
734+952385113+953398413+954271253+954025906+953295209+952957052+952875221
724+952067011+950048316+948352701+949622766+953828282+956861155+955287115
714+951061836+948350871+947931468+947777907+946817160+945362280+943719804
704+942087647+940918371+940973266+942802754+945466362+946300044+943473432
694+937756530+930980874+924646139+919894741+917363248+917049977+918303500
684+919113686+916857989+911964447+907869747+905880476+904201183+901859629
674+900372250+900441345+899790210+896668480+894630388+898972266+906044651
664+908600005+904551051+895869346+886220673+878851925+875262411+875578316
654+879433087+885562218+890683906+891121388+886903940+881746022+879030885
644+879482419+881336866+882112944+880022665+874380641+866502461+860069573
634+858649900+861956812+866211368+869458627+872599022+874492847+871772513
624+865008349+859372472+857129291+854533680+848200483+840712355+837326906
614+840075346+846659014+853665158+859611817+863653086+863574915+859284200
604+856024645+858656707+864259207+864653211
##END=
