##TITLE=<SNM>
##JCAMP-DX=4.24
##DATA TYPE=INFRARED SPECTRUM
##DATE=2/5/2025
##SAMPLING PROCEDURE=Instrument type and / or accessory
##ORIGIN=Admin
##XUNITS=1/CM
##YUNITS=ABSORBANCE
##RESOLUTION=4
##FIRSTX=4497.3318
##LASTX=599.83466
##DELTAX=-1.4281778
##MAXY=1.7483761
##MINY=0.30009109
##XFACTOR=1
##YFACTOR=1.6283022e-09
##NPOINTS=2730
##FIRSTY=0.32489109
##XYDATA=(X++(Y..Y))
4497+199527519+198688706+198665553+198884856+198298786+197096646+196381871
4487+196410368+196346327+195840569+195720485+196641769+197891002+198175645
4477+197233990+196135773+196060768+196997006+197652554+196836473+194986620
4467+193823575+194343811+195768749+196776404+197061926+197064909+196999276
4457+197010623+197496780+198349283+198572301+197523721+195995684+195414537
4447+196295043+197823611+198771929+198578323+197469179+195887588+194334751
4437+193424741+193399867+193883846+194565603+195550837+196714193+197493558
4427+197598030+197274786+196816798+196250201+195421510+194264414+193115004
4417+192534754+192630074+192913400+192936040+192665655+192326963+192206293
4407+192389101+192534369+192242277+191752807+191809546+192612595+193383816
4397+193377099+192952128+193022868+193637381+193894296+193321898+192589643
4387+192581718+193276361+193769765+193190558+191518112+189557637+188125176
4377+187455590+187458464+188082494+189135723+190137759+190697199+190798743
4367+190582533+190113307+189416944+188518611+187497485+186699597+186670185
4357+187561654+188812497+189734953+190201196+190405601+190282717+189675268
4347+188803639+188063441+187611053+187422188+187410255+187372423+187170928
4337+186889360+186560826+186165012+186060504+186627979+187330272+187151930
4327+186120866+185268198+185066301+185106128+185227749+185766544+186639107
4317+187222743+187270202+187156323+187139594+187002544+186528961+185939010
4307+185667417+185918365+186557971+187305691+187963508+188510558+188944460
4297+189062311+188741867+188354875+188344022+188517678+188483232+188549469
4287+189201851+189845465+189207927+187144206+185052830+184296929+184991242
4277+186374999+187656188+188367339+188406763+187921339+187059630+186007353
4267+185213308+185131770+185669558+186242140+186418907+186277043+186222830
4257+186645989+187575162+188571085+189127231+189172090+189000777+188779736
4247+188354729+187548367+186556983+185981692+186297011+187220089+187858634
4237+187723286+187269983+187060764+186931621+186572650+186290221+186466769
4227+186898731+187248989+187464156+187477535+187296631+187324653+187821699
4217+188341569+188416336+188319038+188523260+188944002+189169766+188990857
4207+188533674+188255894+188656137+189627846+190400055+190437466+190043152
4197+189758179+189559705+189103840+188486728+188194232+188314463+188312303
4187+187795197+187077585+186649045+186468800+186266281+186229438+186756647
4177+187686058+188396642+188619605+188642776+188756674+188913528+188926633
4167+188728470+188398582+188056504+187810553+187818313+188247347+189031910
4157+189749962+189939157+189512008+188724626+187835646+186994015+186421616
4147+186451559+187194630+188206074+188794945+188865557+189063391+189748076
4137+190329992+190133293+189416816+188917134+188871249+189036797+189247040
4127+189518103+189809665+189887946+189488965+188713773+188073087+187943430
4117+188214384+188565942+188776130+188749939+188506495+188123145+187693233
4107+187448178+187681903+188373873+189186403+189932256+190667439+191299852
4097+191454236+190778848+189362018+187890554+187202153+187535646+188390620
4087+189156991+189652793+190017785+190319523+190423281+190231542+189913881
4077+189760760+189897134+190258374+190634055+190571387+189648253+188184001
4067+187246793+187482898+188247951+188420417+187890224+187615885+188212846
4057+189075105+189146101+188230398+187152681+186731902+186978347+187331114
4047+187405807+187311585+187322456+187475979+187586143+187508778+187238520
4037+186842779+186490690+186474145+186967952+187728795+188215171+188134858
4027+187787290+187748287+188220643+188799978+188996202+188874123+188950957
4017+189518744+190289122+190730693+190566372+189906395+189093426+188500894
4007+188378266+188768791+189490905+190237124+190836684+191390981+191975734
3997+192341660+192167858+191502079+190708327+190095077+189803790+189950211
3987+190656805+191797905+192776075+192908202+192198551+191446530+191433352
3977+192196721+193139383+193663554+193637784+193298123+192816176+192190956
3967+191597527+191468548+192017208+192955862+193849107+194477091+194728131
3957+194482380+193830530+193204175+193143263+193958722+195453137+196892333
3947+197604162+197662291+197542244+197276726+196537700+195436225+194577262
3937+194353365+194702672+195397918+196133027+196424168+196057181+195654650
3927+196023541+196932233+197284816+196748511+196357839+197111325+198771764
3917+200138646+200114230+198654956+196851225+195952252+196293945+197375598
3907+198935555+201319316+204511655+207418416+208733154+208072426+205935568
3897+203350092+201571601+201434642+202692897+203894726+203798966+203276753
3887+204039738+205934635+207119954+207069402+206996392+206954955+205824635
3878+204068858+203446822+204654160+207017990+209707900+211892053+212515040
3868+211673683+210630539+209844384+208683169+206969579+205508804+205073694
3858+206139021+209398878+215097368+220115821+219536156+214527623+209322061
3848+206193343+205667928+207294800+210090866+213207852+216443092+219582956
3838+221407827+220768276+218373898+215783554+213795076+212486982+211805664
3828+211605433+211797135+212992942+216030897+219932611+221781421+221064340
3818+220376525+220599250+220092357+218233846+216430646+216072554+217630919
3808+220402185+222932899+225031596+227719915+230444509+231125608+230013298
3798+229197199+229010365+228674675+228553914+229636976+231879953+234446504
3788+236999236+239842304+243092003+246734130+251314600+257321710+263942528
3778+269900367+275491622+282155067+290884904+301927032+314688972+327616387
3768+339372722+349517725+357667001+363956174+369816954+376476830+383241763
3758+388504631+392541620+397808514+406784670+420036592+435091732+448595170
3748+460763389+474049537+488857371+502130195+511809613+519826231+527986636
3738+535997909+543007074+548569630+552139754+553632229+554085734+554653264
3728+555612691+556217595+555495041+553656865+551701697+549690670+547144033
3718+544679611+543627792+544463017+546161214+546487478+543897610+539887269
3708+537150247+536918938+538994098+542186344+544591612+544981166+544021995
3698+543411930+544774492+549089390+555911428+563213179+568429741+570141556
3688+569377418+568345914+568135543+568742827+569956808+571674919+574144831
3678+577739701+581369821+582112252+579221670+575010586+570540994+564964601
3668+558457443+552961106+550330203+550601852+551778532+552119621+551774030
3658+550942209+548615130+545251204+543778935+546159018+550914242+553513042
3648+551317084+546783762+542929690+540625673+539435119+538766778+538682110
3638+539672286+541486669+542989723+543795847+545165950+548378769+552497499
3628+555122069+556258154+557334975+559136253+562796427+569226384+576604641
3618+581302028+582667226+583202324+585190802+589393285+594588103+597683858
3608+596812393+594216888+593230445+594394021+596241459+597849424+599702865
3598+602476346+605760692+608288770+609267159+609393778+610494612+613905942
3588+618588504+621385229+620804887+618863996+618215275+619578607+621952686
3578+624357368+626841922+629458696+631314955+631826992+631859058+632596437
3568+633754192+633781939+632183308+630300839+629526123+629794660+630028861
3558+629917654+630350330+631487147+631497689+628771320+625017143+623851042
3548+626511595+630308746+631530341+629420040+625848305+622472117+620162829
3538+619366954+619631831+619898025+619986098+620584669+621578945+621967621
3528+621360045+620247607+618876588+616995291+614736518+613038760+612763487
3518+613755420+615034925+615639500+615172781+613788585+611808782+609332097
3508+606498291+604208147+603892719+606077292+609401208+611598045+611230600
3498+608226102+603511620+598736922+595836164+595735719+597505773+599309760
3488+600258718+600724815+600930171+600363263+598922255+597495596+596557437
3478+595355023+593487379+591937213+591355590+590557593+587977937+584058378
3468+581313303+581987354+585674616+589391272+590569050+589408366+587623121
3458+586431359+586337466+587029345+587304801+586485975+585417573+585088234
3448+585243295+584985812+583893727+582259735+580750934+579850551+579459788
3438+579189458+578900348+578677604+578524996+578215901+577314236+575440955
3428+572641667+569669712+567782777+567943658+569963690+572518783+574276281
3418+574942792+575132591+575220261+574597677+572603195+569983018+568463784
3408+568780274+569901168+570268576+569177809+566963146+564591848+563303082
3398+563866183+565543954+566366734+565317733+563608517+562875824+563110025
3388+563291917+563022245+562527377+561947657+561421455+561132565+560965169
3378+560813952+561018869+561716311+562207629+561690797+560249570+558631501
3368+557428978+556812396+556795704+557409430+558431490+559383889+560168891
3358+560987681+561379176+560567780+558957692+557922016+558228073+559609524
3348+561153467+561610924+560559142+559291131+559283883+560312641+561098925
3338+561044859+560393649+559512996+558702479+558087801+557612480+557348775
3328+557319527+557183209+556821218+556820376+557698979+559178020+560577115
3318+561262038+560511811+557918026+554548682+552786388+553988034+556730583
3308+558245973+557501200+555968605+555576232+556929131+559236552+561094642
3298+561537604+560894813+560233207+559715277+558416518+556240730+554884646
3288+555966958+558900002+561471604+562400979+562403175+562474885+562380114
3278+561543058+560380361+559878464+560469239+561837036+563213655+563609359
3268+562557869+560851216+559787939+559688226+559845556+559679184+559160852
3258+558475672+557992920+558196483+558962963+559227840+558054015+555916223
3248+554489564+555092162+557318319+559420567+560253926+560184302+559857050
3238+559155251+557697917+555503094+552998187+550929470+550039629+550476771
3228+551791454+553232498+553633364+551966574+548737685+545778615+544275671
3218+543988831+544298732+544948697+545645261+545776236+544974943+543705358
3208+542823168+542593726+542502725+541886034+540564066+539166802+538596893
3198+538713993+538334761+537143951+536292583+536432855+536585097+535571493
3188+533607870+531885549+531096740+530856828+530383996+529397408+528249462
3178+527346224+526658226+525871869+524931403+524220123+524094164+524420721
3168+524821074+525131634+525227797+524657668+522912469+520117757+517305181
3158+515723096+515775771+516736187+517426272+517137528+516003493+514544549
3148+512918866+510922152+508831837+507491567+507282587+507679792+507899937
3138+507500279+506468593+505187368+504157987+503563882+503195631+502767238
3128+502256630+501966678+502129280+502435703+502332806+501728121+500893481
3118+499877865+498638552+497512827+496944967+496958438+497294000+497626779
3108+497332984+495785821+493321472+491144220+489963293+489414103+488876296
3098+488141370+487307682+486631617+486436876+486839975+487594705+488174388
3088+488005381+486971717+485695836+484901389+484643944+484520510+484266762
3078+483763218+482971553+482235675+482029916+482167296+481944369+481118991
3068+480010872+478846418+477793317+477207887+477056634+476648996+475661565
3058+474791894+474783951+475382193+475734813+475449840+474829451+474221838
3048+473501298+472357013+470907989+469657951+468898682+468591270+468717302
3038+469214367+469622590+469329198+468256953+466925322+465792238+464886181
3028+464070211+463308416+462584141+461760740+460652145+459243167+457815666
3018+456807078+456526278+456941932+457631761+457968896+457533146+456427919
3008+455163569+454159519+453349332+452358131+451088619+449979147+449546507
2998+449793777+450188200+450130107+449390093+448177136+446860953+445642615
2988+444486397+443348079+442399963+441925996+441930279+442010079+441812922
2978+441448552+441197000+441034362+440713479+440116189+439345169+438604789
2968+438016137+437531701+437154373+437067142+437258845+437257271+436642007
2958+435619216+434675273+433912819+433157613+432479242+432136725+432053191
2948+431743656+430852571+429527383+428226976+427365065+427113513+427304447
2938+427476199+427159709+426242890+425135138+424524743+424791669+425570266
2928+426034569+425673457+424627750+423305673+421958814+420767711+419994130
2918+419711646+419606625+419303496+418647637+417540177+415996491+414539560
2908+413873268+414023753+414358180+414494864+414637589+414909347+414960924
2898+414481247+413683762+412939098+412202451+411230834+410143215+409266772
2888+408617173+408019956+407522122+407188354+406774384+406101760+405468157
2878+405227037+405189480+404832175+403986736+402979795+402107269+401359018
2868+400748953+400460685+400436892+400245702+399653866+398987684+398666582
2858+398712338+398901661+399071584+399090911+398761719+397957938+396824378
2848+395695688+394756174+393884489+392937068+392058942+391556789+391523917
2838+391702991+391703759+391279210+390415213+389307168+388312306+387748144
2828+387535320+387203895+386483171+385639929+384992087+384414856+383616493
2818+382637408+381823011+381438948+381432505+381474491+381192557+380462462
2808+379521447+378739666+378250215+377894411+377547318+377304551+377221896
2798+377064017+376525698+375613968+374609442+373677542+372743043+371784201
2788+370960287+370329869+369777274+369334788+369156153+369075841+368701075
2778+368043313+367507959+367157133+366552375+365517431+364557564+364215926
2768+364357845+364402357+364012107+363268615+362388548+361540145+360788453
2758+360084714+359399608+358813994+358356390+357872650+357185128+356322192
2748+355531662+355067322+354947257+354934518+354768476+354356995+353719512
2738+352887947+351983720+351255676+350841046+350569068+350181710+349627651
2728+348986397+348300046+347603446+346931188+346284187+345716987+345305871
2718+344962074+344540782+344095331+343717124+343303227+342766518+342216669
2708+341761005+341384152+341023589+340569426+339946695+339283808+338754128
2698+338278660+337649084+336847829+336059495+335479775+335168190+334987835
2688+334742543+334418951+334147229+333928768+333588448+332994928+332232437
2678+331589830+331340693+331425179+331445531+331110555+330529628+329926334
2668+329307410+328631638+328070624+327806882+327694540+327394009+326812423
2658+326207702+325867198+325801418+325728281+325310650+324467884+323482357
2648+322752189+322412930+322208416+321775411+321109851+320637825+320629955
2638+320714696+320305887+319384602+318495128+318067540+318047847+318086758
2628+317875069+317388327+316884124+316578506+316384205+316083198+315637747
2618+315190063+314867680+314689302+314558913+314311644+313874246+313377474
2608+313020352+312853248+312737209+312460802+311898799+311125437+310360640
2598+309784947+309451655+309333237+309333054+309275730+309022237+308613867
2588+308242249+308042164+307920451+307664726+307238200+306836840+306604103
2578+306428617+306081579+305484216+304828906+304435398+304438656+304637277
2568+304681881+304352798+303670400+302863032+302227690+301927379+301900822
2558+301950715+301892513+301665761+301349838+301070008+300898457+300815674
2548+300723282+300551145+300368740+300271187+300181998+299933740+299521728
2538+299131295+298924840+298878516+298833272+298697191+298543320+298434657
2528+298262026+297900603+297423287+297011019+296757526+296690447+296832000
2518+297079544+297184601+297030181+296793564+296696706+296749272+296804107
2508+296691508+296316431+295802290+295436163+295313956+295222589+294974276
2498+294634834+294363661+294237867+294258714+294370799+294450636+294367121
2488+294116630+293894307+293915026+294110755+294156310+293879445+293471771
2478+293196077+293063255+292897560+292600215+292257881+292025565+291941354
2468+291893548+291777179+291601455+291398313+291148536+290881665+290713811
2458+290693733+290732150+290724262+290612780+290350447+289965047+289629101
2448+289515295+289603661+289712543+289691038+289552889+289435642+289409926
2438+289352474+289107676+288758167+288562457+288600526+288683419+288665830
2428+288629518+288674067+288752878+288802917+288823380+288775335+288604937
2418+288383694+288263464+288310502+288482364+288697146+288860754+288908323
2408+288854952+288764756+288693229+288681058+288725698+288745612+288672749
2398+288579661+288595218+288727346+288885792+289008731+289059155+288978752
2388+288688068+287996080+286526025+283912107+280056424+275051094+268932209
2378+261687818+253487459+244772282+236079873+227847814+220368636+213759129
2368+207952214+202937842+198957170+196238341+194832712+195009718+197402155
2358+202442443+210015184+219991985+232655823+247480825+261547620+270715112
2348+272552776+268020881+261036462+255546604+252379341+250106494+247772771
2338+245405665+243169661+240942314+238576819+236408480+235168179+235162524
2328+235868129+236539582+236973594+237645504+239261212+242136090+245893121
2318+249718952+252938305+255429888+257536254+259625507+261854172+264265900
2308+266822768+269311222+271454248+273139707+274425069+275407868+276193530
2298+276898605+277613581+278381160+279174527+279885276+280416969+280807549
2288+281187458+281611312+281980678+282137002+282005442+281644330+281193571
2278+280819189+280656698+280700057+280767045+280671322+280410032+280130148
2268+279982902+280055784+280332484+280653458+280823710+280837529+280893352
2258+281103485+281308329+281307469+281163353+281094956+281153982+281202137
2248+281163097+281125412+281204351+281403301+281605912+281681521+281627070
2238+281572510+281612446+281712141+281819139+281951724+282119413+282260801
2228+282311500+282270209+282209151+282263345+282530565+282922316+283205751
2218+283244461+283107246+282930442+282785704+282702043+282712091+282807905
2208+282890652+282849251+282704843+282605734+282659105+282837940+283048165
2198+283213072+283310754+283381787+283465997+283538732+283571933+283610772
2188+283701150+283798063+283831081+283818288+283849695+283975984+284154618
2178+284308214+284412741+284503248+284606695+284714992+284830482+284976006
2168+285115802+285140365+285009574+284838846+284776818+284876202+285108756
2158+285388805+285582631+285620884+285584791+285594436+285671948+285777646
2148+285908053+286105356+286378817+286644041+286800108+286872990+286985716
2138+287182250+287391084+287542887+287632131+287698972+287795793+287913132
2128+287944631+287828152+287693939+287751739+288044856+288418085+288705144
2118+288852902+288902978+288956331+289133354+289488390+289967536+290459367
2108+290850660+291060665+291077742+290968053+290857578+290899473+291173501
2098+291606763+292073115+292523215+292929608+293203362+293266104+293138003
2088+292926534+292773944+292770155+292886286+293028260+293119023+293111739
2078+293027400+292987445+293094955+293314569+293543170+293725080+293860960
2068+293996637+294200072+294461508+294649019+294652917+294544657+294511053
2058+294631814+294800821+294876613+294827653+294726988+294704641+294884684
2048+295266881+295705707+296064202+296311801+296463384+296541243+296590331
2038+296636545+296659003+296645752+296628419+296653018+296751358+296929334
2028+297177720+297491666+297834420+298112603+298285344+298443992+298673123
2018+298925517+299153935+299439457+299857308+300330524+300726118+301018650
2008+301316161+301776675+302486948+303353635+304135179+304636252+304865054
1998+305019968+305373503+306090950+307029714+307765684+307960644+307662640
1988+307161548+306714157+306462861+306400486+306362087+306214951+306045120
1978+306032601+306204336+306414798+306514585+306492438+306488302+306625902
1968+306801022+306766485+306492640+306242131+306202798+306275277+306301651
1958+306295318+306331796+306377333+306351819+306284410+306309613+306513578
1948+306867900+307354312+307993845+308587036+308656696+308001276+307059438
1938+306386246+306117654+306121443+306300809+306576411+306794378+306804463
1928+306646529+306642868+307088813+307791381+308295583+308591648+308949173
1918+309144463+308725917+307949663+307532398+307709495+308128041+308380691
1908+308364987+308243238+308173212+308108530+307937656+307737424+307722636
1898+308000873+308462284+308891702+309258379+309801969+310581224+311135979
1888+311025724+310480889+310039355+309907941+309968523+310062636+310125304
1878+310208179+310395672+310726255+311369851+312732999+314948285+317158921
1868+317903731+316835988+315193065+314189345+314000388+314174373+314335840
1858+314409893+314494048+314678466+314955167+315329164+315919645+316854730
1848+318234205+320087865+321894671+322462933+321390175+319884229+319150694
1838+319263548+319652774+320066378+320928764+322688532+324888041+326316603
1828+326544435+326314297+326032948+325393085+324488127+323968550+324089640
1818+324477841+324801579+325239306+326153086+327478202+328619229+329046633
1808+328886302+328752033+329216409+330483029+332228850+333702034+334312466
1798+334303351+334646380+336202036+338807316+340863038+340731332+339045653
1788+337804401+337954007+339010292+340160434+341171365+342124972+342972643
1778+343840923+345304297+347921510+351386796+354076451+354454548+353026718
1768+351221413+349895346+349665281+350857702+352742148+354030584+354605911
1758+355234902+356002663+356796927+358316966+361119439+364266149+365980123
1748+365848710+365026955+364603357+365017950+366249356+367767308+368838748
1738+369766146+371964959+375833563+378950659+378716494+376542244+374721089
1728+373731791+373443817+373830699+374761355+376393626+379524851+384676548
1718+390548273+393928013+393317948+390788478+388743627+388258533+389611285
1708+392639283+396522494+400112678+403476128+407960435+413702760+418227736
1698+419868866+419657799+418124985+415841101+414735984+415978444+419060838
1688+423328369+429229817+436547968+441665402+441626418+439349525+438438124
1678+440033168+443616360+447545656+450488511+453023398+456000441+458392531
1668+458853136+458616482+459791442+462534724+465137953+466318807+466942123
1658+468779165+473132718+480496443+488721895+491949685+490266093+489875367
1648+492351612+494536991+493334724+490394798+488770873+489452795+492417649
1638+497378961+502724227+504908837+502663792+499418211+498149138+499182765
1628+501412363+503847354+506290069+508329611+509154843+509339261+510673528
1618+513647094+516281035+516515676+515495227+515350636+516524498+518199963
1608+519474161+520096233+520418067+520879552+521585999+522321328+522944242
1598+523637658+524666050+525991422+527236408+528025254+528335082+528488898
1588+528788513+529242677+529738716+530284722+530995636+532181431+534426952
1578+537887809+541021012+541495710+540214631+540264891+542470146+544830206
1568+545374638+544938338+545300805+547272078+551535765+558957582+567931249
1558+572130766+569879644+566612869+565088107+565429380+567246654+569873494
1548+572951788+577115872+583186877+590969440+599391317+606632596+609844829
1538+609303765+609358380+612421703+617472552+622013085+625531083+629943205
1528+636390074+643936056+651168111+658038871+664746443+670174438+673705687
1518+676466320+679108790+681379569+683680511+687052747+692167326+699164813
1508+707090394+712101819+710881761+707144716+705508894+707024504+710811698
1498+714875922+716998596+717088279+717462166+719827900+723710122+727191368
1488+728844834+729010583+728880707+729423785+731004259+733347371+736109907
1478+739414935+743558373+748376228+752726121+754699371+753907743+752660085
1468+753103230+755296478+757656209+758758397+759271019+760897543+764108129
1458+767255827+767414182+764285665+760666563+758359545+757730298+758364450
1448+758916166+757957178+755595618+753138517+751469311+750926087+751973660
1438+754525056+756642459+756181524+754133086+752747059+752469371+752406775
1428+752170451+752456412+753825088+755792408+757506566+758683576+759065663
1418+757918230+755400365+752902705+751391781+750710115+750084163+749112875
1408+748327031+748428721+749159437+749655221+749865263+750568599+752174111
1398+754356891+756576423+758279159+758913458+758653706+758619077+759564448
1388+760771108+761049968+761185921+763537012+768780808+775059146+780416565
1378+784829712+789332981+794130630+798345815+801428135+803897828+806259828
1368+808331254+810144978+812327465+814818755+816232456+815552913+813677399
1358+812148904+811446154+811083028+810530506+809558047+808102910+806389558
1348+804931125+804044250+803700598+803979751+805127916+806981979+808693281
1338+809388272+809132985+808890731+809504384+810972114+812697839+814288123
1328+815995765+818315888+821224773+824082336+826503051+828938115+831999205
1318+835589316+839008992+841643555+843492494+845200355+847304946+849537509
1308+851438207+853394107+856142074+859422649+862175375+864047961+865615111
1298+867026761+867633898+867116371+865922377+864471778+862807843+860876250
1288+858422077+855019020+850784947+846584844+843234279+840934143+839472562
1278+838530339+837742152+836842099+835998710+835798918+836528390+837565714
1268+837922836+837360504+836584836+836484098+837468856+839282727+841240823
1258+842804166+843889955+844597537+845052542+845697017+847241545+849914398
1248+852963993+855327897+856680612+857420481+857967365+858648006+859860596
1238+861610041+863120526+863638420+863547565+864038736+865703696+868077702
1228+870648499+873531833+876701128+879388843+881003507+881998075+883165129
1218+884751387+886863225+890049652+894527297+899148655+902164647+903050351
1208+902823324+902754360+903533103+905304731+907782843+910557971+913601636
1198+917153385+921101570+924790515+927525377+929367361+931225451+933500622
1188+935090834+935139226+935045736+936867367+940595993+944616144+947851841
1178+950167718+951747241+953132755+954939231+956962338+958306635+958723277
1168+959173231+960714611+963260882+965838854+967906107+969748969+971668849
1158+973541727+975262254+977055772+979217760+982042305+985488630+988497520
1148+989502924+988306806+986683430+986327406+987424250+989850090+993716279
1138+997612264+998769727+996745814+994758141+995992036+1000345516+1005046673
1128+1007470756+1007276162+1005804478+1004366399+1003949463+1005006993
1120+1006909668+1008821641+1010813927+1013216778+1015562452+1017159106
1111+1018252582+1019578649+1021718015+1025339167+1030344809+1034585105
1103+1035344520+1032872558+1030541819+1030692414+1032348295+1033834914
1094+1035363042+1037540697+1039844641+1042061171+1044921517+1048253999
1085+1050475507+1050942372+1051104607+1052210749+1053329117+1053013578
1077+1052313830+1053816774+1057629519+1060655174+1060173813+1057008545
1068+1054231952+1053747077+1055218029+1057234839+1058668966+1059469965
1060+1060323969+1061399289+1061930287+1061099710+1059324788+1058518225
1051+1060255736+1063503440+1065066564+1063014246+1059249893+1057465893
1043+1058698689+1060387516+1060247903+1059513233+1061063764+1065485403
1034+1070262261+1072721484+1072984091+1073102546+1073741823+1073114407
1025+1069634112+1064680157+1061528506+1061728811+1063328759+1063075157
1017+1060023658+1056143779+1053802571+1053942916+1056096924+1059368714
1008+1062883198+1065197392+1064826579+1061893901+1058225674+1055407571
1000+1053352837+1051161931+1048839172+1047234758+1046428268+1045351703
991+1043420476+1041553161+1041128026+1042033790+1042019514+1039116999
983+1034291163+1029807588+1026194050+1022606794+1018868212+1015562525
974+1013218315+1012102071+1011718666+1010587779+1007716305+1003820246
965+1000106043+996759285+993431342+990365860+988015940+985999129+983229711
955+979214612+974884560+971457562+968762380+965573611+961570445+958217318
945+957243760+958330941+959100533+957928647+955540951+952978280+950043040
935+947048938+945879249+947709739+950957882+952697590+951776818+949602604
925+948101050+947864872+948267971+948693106+949119193+949870995+951157235
915+952363090+952189214+950346206+948346380+947631476+947999214+948301575
905+947393615+944570753+940630987+937937489+937964797+939519428+940240408
895+939169773+937005662+934514885+932086117+930445390+930142809+930354974
885+929948581+929558514+930520870+932044313+931808135+929229212+925947831
875+923735255+923570457+925685956+929264646+932696475+934658597+934854363
865+933973564+933141523+932921891+932837479+932275293+931369822+930591372
855+929797621+928404053+926522170+924983865+924113462+923431942+922827660
845+923056298+924576007+926589963+927618648+926691580+924054527+921005883
835+918969671+918678951+919779383+920944972+921031873+920547803+921468502
825+924898940+929235874+931706519+931759597+931441276+932346674+933724574
815+933882856+932548370+931291633+931713767+933381069+934599590+935189010
805+936386445+938219790+939650841+940966293+943076813+945061778+945079861
795+943176527+941328174+941237832+942930172+944984394+946054370+946087095
785+945609541+944742432+943792522+943431593+943544411+943218403+942206337
776+941303062+940946599+940368673+938694635+936221062+934325122+934494312
766+937132317+940651194+942223029+940691240+938338977+938366065+941344500
756+944971655+946635151+945738831+943911636+943087429+943372292+943337956
746+942308247+941211695+941202910+942590694+944997865+947552482+949182593
736+949656999+949962874+951285134+954256321+958576050+962063300+961427172
726+956461137+951374085+949778383+950709917+950609106+948125869+945260252
716+944169411+944741114+945228552+944822891+944878824+946510253+947939108
706+946166748+941091923+935800320+932760168+931770505+931260738+929964834
696+927450043+924628646+923622071+925076330+925978580+922703275+915614860
686+908384269+903344878+900199523+898496493+897983578+897781297+897738322
676+898859253+900982732+900831112+894116511+880804373+869594117+870875233
666+880003447+885460506+883715015+878170908+873639087+872115351+872224142
656+871047352+867041623+862038837+859208801+859574708+861048515+860686707
646+858397771+857592160+861457763+868884412+874888649+876009140+873751978
636+871644752+871523588+872130286+869445426+861428479+851567278+844975232
626+843267590+845109574+849880574+856803094+862369530+862393324+856603961
616+849111568+844081621+843443882+845984955+847734986+846421877+843189474
606+839753692+836972487+835407826+834632011+833750553
##END=
