##TITLE=<SNM>
##JCAMP-DX=4.24
##DATA TYPE=INFRARED SPECTRUM
##DATE=3/5/2025
##SAMPLING PROCEDURE=Instrument type and / or accessory
##ORIGIN=Admin
##XUNITS=1/CM
##YUNITS=ABSORBANCE
##RESOLUTION=4
##FIRSTX=4497.3318
##LASTX=599.83466
##DELTAX=-1.4281778
##MAXY=2.2455139
##MINY=0.5254451
##XFACTOR=1
##YFACTOR=2.0912978e-09
##NPOINTS=2730
##FIRSTY=0.54946166
##XYDATA=(X++(Y..Y))
4497+262737168+262876112+262699319+262257406+261687808+260857310+259720537
4487+258874020+259133952+260643237+262656937+264047685+264057832+262859923
4477+261364832+260291560+259637912+259222277+259187791+259591340+260036730
4467+260129416+259857058+259231797+258227298+257362826+257560283+259063867
4457+261008053+262343452+262808706+262649726+261937679+260715944+259423553
4447+258653107+258688762+259366522+260073354+260121407+259493866+258935298
4437+259071192+259774803+260538466+261033875+261099314+260627590+259795638
4427+259105337+258861394+258729662+258094169+256850829+255617522+255082781
4417+255327864+255936851+256642057+257457536+258100895+257900446+256684610
4407+255226969+254357624+254208220+254619721+255588707+256838488+257492792
4397+256834014+255239082+253901119+253716317+254670796+256005909+256707924
4387+256161469+254708275+253435265+253146690+253666753+254223468+254284461
4377+253863640+253208481+252507663+251938407+251795502+252336627+253432187
4367+254541913+255196986+255379052+255282461+254874922+254000075+252916599
4357+252349795+252806442+254067709+255483196+256502772+256791461+256210406
4347+255016117+253863896+253370197+253659114+254271322+254569046+254403938
4337+254245044+254413486+254575459+254355429+253973483+253771980+253638223
4327+253408788+253228546+253068169+252568257+251740893+251253123+251686171
4317+252846686+253977388+254412859+254012473+253152590+252418084+252278484
4307+252825823+253657889+254222043+254451820+254828493+255723604+257008441
4297+258333750+259392886+259891373+259697821+259093765+258547282+258289516
4287+258312289+258534114+258814795+259095988+259480784+259819693+259542831
4277+258463916+257304199+256836721+257048885+257483016+257791115+257774897
4267+257443884+257162405+257325603+257867213+258369747+258612008+258718774
4257+258781277+258694947+258401526+257967338+257526366+257411791+257934476
4247+258736103+259035822+258785040+258712817+259126200+259581764+259724470
4237+259678212+259657378+259714893+259889749+260284919+260785743+260893592
4227+260246756+259223047+258535739+258385594+258569199+259136802+260275941
4217+261678688+262616209+262670390+262082323+261375235+260852892+260505661
4207+260319890+260561780+261475502+262652519+263183242+262731582+261981058
4197+261745923+262142062+262844475+263588957+264132305+264151601+263521808
4187+262632996+262194504+262541934+263236254+263585765+263391187+262934568
4177+262633652+262935224+264041215+265473604+266378035+266417252+265928883
4167+265322832+264789459+264470188+264496637+264842586+265412924+266226664
4157+267137251+267512129+266814275+265454622+264435644+264224308+264531181
4147+264997746+265520460+266014387+266340014+266484202+266575377+266698531
4137+266796120+266822483+266953789+267468066+268363205+269226109+269554131
4127+269171644+268346361+267536896+267006915+266699671+266474853+266334285
4117+266374016+266664216+267200239+267861925+268418640+268662212+268540540
4107+268117410+267482943+266877747+266766079+267405648+268381987+269037830
4097+269303120+269560885+269894350+270075476+270037341+269839713+269471591
4087+269001747+268617835+268425195+268452642+268719328+269111107+269435622
4077+269663775+269897913+270210515+270673461+271342471+272023253+272270672
4067+271886646+271192469+270678876+270617228+270984381+271524908+271920563
4057+272103826+272314878+272681575+272903628+272555485+271636604+270700537
4047+270398709+270870975+271595363+271969357+271969328+271911870+271776688
4037+271311861+270732858+270682040+271435214+272631954+273697218+274128699
4027+273737633+273066086+273046249+273855542+274658794+274698638+274058414
4017+273309373+272924862+273021082+273346253+273534989+273446578+273269157
4007+273314588+273644319+273997707+274234381+274571238+275087567+275406040
3997+275238795+274797167+274371615+274012214+273829606+274108434+274905843
3987+275865937+276622360+277130053+277387078+277139744+276349717+275696154
3977+275929352+276893122+277726072+277841217+277282279+276412562+275719012
3967+275645992+276231779+277118881+278038417+278902861+279406108+279098950
3957+278058682+277051703+276810982+277464145+278676390+279848647+280242763
3947+279650791+278869543+278829898+279524901+280220133+280403510+280072724
3937+279477675+279103681+279436148+280314016+280945832+280977041+281006882
3927+281665176+282742011+283448671+283402043+283116831+283283421+283799265
3917+283855698+283037683+281880275+281078876+280714630+280612909+281140667
3907+283100072+286644718+290458302+292538467+292173623+290215072+287625048
3897+285087637+283432482+283309271+284373680+285133638+284641478+284228950
3887+285619214+288242186+289888761+289949269+289608166+289144593+288255410
3878+287802554+288670845+290359089+292058734+293707048+294857530+294506936
3868+293258780+292698644+292793639+292206399+290653764+289368271+289528562
3858+291793159+296480250+302480822+305598462+302773815+297264206+292642440
3848+290013198+289580862+291053238+293605184+296430259+299018174+300675381
3838+300789443+299938395+299232162+298751032+297851817+296502196+295488548
3828+295387796+296296474+298515725+302209262+305829066+306830686+305597037
3818+304331581+302819332+299872215+296668073+295288526+296391925+299372246
3808+302604318+304440569+305456725+307239280+309075589+308755035+306663042
3798+304818781+303517641+302266635+301407607+301400567+302038938+303059170
3788+304589175+306631063+308724966+310689302+313071495+316006414+318330379
3778+319134998+319469119+321153601+325061752+330638396+336116825+339988067
3768+342799176+345976383+349779194+354034377+359313781+365853312+372414789
3758+377755899+382695454+389219680+398426873+409360844+419006101+425773129
3748+431940633+439545057+447380769+452591856+455763221+460325847+468495309
3738+480627017+495049230+508496129+517994463+522523885+524002588+525873810
3728+529880006+534776923+538487162+541053929+543372507+544528747+543816329
3718+543368859+546097172+552854367+562219258+571032478+576122804+577984336
3708+580125409+585088962+592694013+600360798+605149126+606852133+607984603
3698+610599082+614972830+620319668+625640627+630291693+634363270+638310525
3688+641524955+642283545+640436207+638323864+638019812+639177192+640877064
3678+643616721+646931247+647878744+645986373+644530357+645082256+646293503
3668+647049642+647480923+647575205+646924065+646356833+647968808+652234137
3658+656990714+660212326+663093406+668377313+676463637+684946527+690245825
3648+690241151+685877094+679587490+674209529+672134009+673985338+678164707
3638+682105806+684225103+684789143+685208340+686246356+687153780+686576914
3628+685269960+686171968+690805134+698567341+707661128+714975295+716348258
3618+710938432+703790826+700662185+702523147+706131237+708514057+709063675
3608+708293571+707728505+709243005+712936656+716963202+719916845+722094798
3598+723228180+721889304+718610461+716143790+715799210+716149091+715678820
3588+715205756+717003559+721273905+725161991+726183477+724169976+719735520
3578+713699920+708926242+709309413+715654081+724404370+731241369+734665968
3568+734770853+731584011+727311386+725126878+725127961+725379285+724757045
3558+723079175+721171243+720945912+723267797+725679460+724205831+719080276
3548+714846925+714602726+717703323+722327996+727307738+731389120+733415731
3538+733599621+732624023+730481126+727546863+724841466+722879267+721862285
3528+722818617+725792553+727210947+723940940+719129412+718375041+722530412
3518+727820248+730951226+731597464+730427031+727414219+722991562+719478268
3508+719364719+721939637+723444904+721573795+718271125+716590063+717452454
3498+720445088+724549214+727309106+725768897+720094123+714594119+713654831
3488+717645921+722890896+725324277+723709737+719236121+714218757+711265342
3478+710640480+711095132+713484850+718977728+725598346+729702928+729812372
3468+727249880+723795412+720670704+719424400+721227505+724453336+725120949
3458+721531955+716988853+715875992+719034389+724095645+728019358+728483073
3448+725289107+721299328+719995680+722206694+725787423+727951011+727650380
3438+725731390+723546767+721835836+720733122+721078785+724403971+730116652
3428+734780942+735891237+734269287+731263942+727547034+725711781+728697859
3418+735048512+739392277+738007514+732057190+724862386+718821940+715491852
3408+715757655+719360158+724397758+727352485+726165122+723193237+722487546
3398+724843860+727417126+728253239+728976430+731591593+734596881+734690764
3388+731442303+728058005+727825891+730783753+733597569+732984735+728858663
3378+723240264+717787800+713931236+713162101+715532210+719344711+723123865
3368+726736629+729728750+730689414+729671747+728880267+729644785+730962798
3358+731197078+730110724+729482385+730832889+733327491+734702963+733313355
3348+729235222+724808518+723609185+727386686+733921287+737838444+735030442
3338+726849380+718738546+714854735+715353792+718128049+721233148+723574755
3328+724977645+725660421+725794149+725012359+722432595+717947464+712782635
3318+709177909+708875054+712246640+719009878+727579412+734800836+737951537
3308+736462403+731673448+726509816+724206002+724990242+725825501+725169629
3298+725225150+728099275+732733639+736621782+738025128+735942312+731136998
3288+727222006+727735086+732166805+736090461+735557032+731264854+727284424
3278+726278671+727134963+727128123+725842487+725346508+726420721+727103840
3268+725987844+724700670+725200981+726822190+727191738+725347249+722825571
3258+721676913+722510518+724371822+725786055+725771234+724437888+722748618
3248+721770568+722251384+723978048+725354090+725130925+724310772+724408304
3238+725048271+725281354+725994684+728783933+733352401+737474996+738936883
3228+737134919+733299560+729538874+727302893+726510329+725930898+724238436
3218+721456655+719157913+718116192+716967420+714982420+714200915+716049166
3208+718229798+718109979+716961036+717515385+719459229+720288502+718932639
3198+716574615+715106800+716005160+719921520+725877658+730814192+731804782
3188+729126404+725317950+721837489+718506374+715546289+713894071+713562715
3178+713472537+712827325+711962996+712063206+713889739+716665762+718528377
3168+718235498+715820700+712176128+709303656+709674629+713751279+718534249
3158+720268380+718854090+717144584+716426295+715427097+713272230+710839875
3148+708858409+706929614+705149938+704827532+706766416+710038419+712820770
3138+713541624+711670516+708513202+706264851+705535389+704981837+703780053
3128+702611957+702120253+701942234+701660641+701354937+700566364+698717543
3118+696500942+695192962+695290208+695998066+696074962+694762821+692075436
3108+689425103+688992739+691142703+693290559+692771665+689874910+686737832
3098+684932391+684617395+684505556+683189310+681184074+680505402+682175349
3088+685116566+687163926+686823108+684955819+683924358+684339336+684176594
3078+682072801+680059015+681006341+684520376+687424656+687914593+687000614
3068+685907875+684310892+681637872+678521771+676061541+674950562+675407722
3058+676669644+677256086+676845782+676896457+678538872+680857849+681958454
3048+681158822+679262804+677172977+675225827+673513470+672316930+671999882
3038+672478133+673164672+673717084+674430299+675260541+674894129+671990762
3028+667407073+664061822+664093173+666764712+669565930+670789490+670340196
3018+668537776+665696085+662798988+660948343+660124999+659516382+658667501
3008+657457622+655746405+653868115+652873534+653427485+654718137+655415620
2998+655449308+655551571+655511612+654365177+651982585+649373464+647643038
2988+647238206+647869623+648714287+648829432+647714519+645826880+644143880
2978+643048804+642402509+642379480+642996248+643318426+642730730+642318659
2968+643214625+644452036+644026398+641758609+639601120+639002650+639296669
2958+639032348+638071570+637440780+637291776+636378538+633987338+631404040
2948+630206930+629818628+628470575+626279626+625313091+626518181+628508425
2938+629750624+630357872+630897002+630889592+629570838+627363073+625530099
2928+624745915+624820646+625242236+625405036+624907346+624253869+624577644
2918+625861455+626263152+624272110+620733905+617631485+615816752+614980582
2908+614731766+614615652+613905970+612283906+610202287+608175048+606368011
2898+604984217+604341913+604532130+605398512+606429403+606555150+604929837
2888+602121607+599922620+599689764+600975228+601937602+601304532+599695692
2878+598611048+598646447+599195381+599436673+599108965+598507474+598044671
2868+597686410+596974391+595722615+594203840+592765095+591866735+592043557
2858+593015565+593533661+592760136+590997846+588870739+586766319+585025689
2848+583740624+582469467+581014649+580126606+580524256+581574756+581765315
2838+580494101+578756436+577844110+577831285+577721156+576836419+575444075
2828+574118082+573240585+573162606+574067122+575480329+576349105+575825650
2818+573914583+571347246+569078772+567839252+567710369+567896141+567277093
2808+565594720+563806037+562977562+563118188+563209620+562220398+560080750
2798+557702604+556085100+555552810+555784868+556161313+556066118+555323888
2788+554353762+553611019+553098965+552589305+551941186+551147597+550403030
2778+549971521+549732680+549184486+548083596+546666912+545230562+543945440
2768+543039442+542710195+542827278+543004385+542918026+542390126+541369837
2758+540032671+538659309+537298716+535863221+534552162+533725397+533384522
2748+533238767+533148475+532911686+531865575+529545971+526618719+524366264
2738+523437180+523634294+524483233+525368312+525500672+524508941+522928033
2728+521615435+520840828+520259573+519560038+518791016+518123232+517586439
2718+517090346+516523911+515806021+514942205+513992885+512923517+511629844
2708+510207859+508966628+508094376+507575253+507415190+507601475+507786505
2698+507329800+505902685+503999541+502554071+501939811+501653202+501055873
2688+499986847+498566173+497015932+495835409+495497213+495793398+495959789
2678+495519273+494709951+494102532+493973250+494041539+493814270+493152413
2668+492338303+491645779+491064581+490431796+489656049+488756206+487838978
2658+487097033+486637764+486217883+485425377+484350366+483679731+483767800
2648+484040842+483740610+482845841+481820764+480893903+480023303+479283296
2638+478908219+478947551+479050384+478756593+478004587+477169015+476592890
2628+476295736+476108226+475879674+475510697+474865371+473836589+472648742
2618+471857318+471737955+471903263+471803508+471316906+470649691+470037997
2608+469683299+469604607+469524831+469172641+468609171+468112565+467842715
2598+467611598+466975307+465794243+464619421+464111728+464228241+464393890
2588+464258338+463895574+463470392+463054559+462683985+462413137+462250538
2578+462074058+461780780+461505372+461383586+461178747+460599545+459856545
2568+459421416+459424751+459661197+459931475+460119042+460127564+459885388
2558+459383424+458763721+458285241+458035228+457823464+457504364+457155936
2548+456833472+456463355+456060689+455779296+455717248+455847784+456095090
2538+456279863+456064964+455276505+454294037+453808547+454100913+454800078
2528+455394928+455689346+455725286+455611936+455516115+455565850+455689574
2518+455664350+455359757+454901970+454545020+454387778+454332315+454296261
2508+454260463+454122317+453755791+453231909+452780677+452541124+452419737
2498+452201759+451844866+451564300+451477713+451412388+451274955+451242691
2488+451364306+451395458+451198058+450886967+450522749+450041648+449492428
2478+449060606+448868536+448906157+449091900+449298249+449392075+449360097
2468+449366937+449564423+449819452+449762677+449192310+448350553+447700468
2458+447469779+447520311+447636283+447759551+447847278+447700553+447171342
2448+446475711+446069198+446160829+446475540+446575152+446329357+445954423
2438+445711649+445738783+446032517+446414092+446619985+446512763+446109413
2428+445496693+444892295+444594143+444643963+444731263+444610047+444376165
2418+444186261+443994961+443749109+443590927+443654399+443822728+443892413
2408+443854763+443828171+443840284+443858554+443889050+443923879+443930149
2398+443914160+443892527+443878248+443945226+444103209+444096311+443640177
2388+442873179+442217536+441791271+441257186+440235330+438621873+436508218
2378+433989219+431149923+428199899+425496268+423289899+421449116+419586530
2368+417527484+415546417+414074441+413279312+413082169+413574443+415153328
2358+418033011+421809458+425928604+430499011+435898975+441578709+446179954
2348+448717336+449133170+448024328+445984007+443249966+440122123+437109595
2338+434347053+431453347+428225977+425093973+422650074+421041035+420081340
2328+419662599+419657327+419697884+419518184+419339395+419571196+420336455
2318+421469352+422676751+423636389+424231952+424705386+425362198+426188364
2308+426920277+427393455+427708765+428110889+428703032+429252907+429412229
2298+429205651+429100311+429430013+429958113+430266697+430373690+430577503
2288+430877393+431016822+430970422+430947706+431043812+431216302+431397086
2278+431385742+430907861+429991431+429045873+428456496+428288823+428387294
2268+428581303+428768698+428881791+428828979+428542455+428115449+427824195
2258+427931901+428433866+429010161+429308028+429300475+429253135+429324958
2248+429398976+429348272+429240451+429200607+429273313+429448112+429667657
2238+429849723+429987327+430118775+430191909+430160387+430180423+430462386
2228+430959791+431398625+431575589+431509951+431371948+431331020+431416694
2218+431535659+431638035+431780941+432003051+432231802+432382318+432509405
2208+432772072+433227893+433747642+434164559+434404454+434468041+434442532
2198+434535760+434915396+435480235+435939191+436147221+436244895+436440214
2188+436742128+436983392+437097596+437240388+437548401+437933311+438300264
2178+438797099+439550815+440327104+440808405+441081618+441515464+442270548
2168+443193078+444095513+444980677+446022969+447353921+448890339+450473784
2158+452115999+453952165+456030905+458265462+460482860+462500864+464281225
2148+465952169+467599086+469181790+470712878+472320806+474099684+476022266
2138+477949978+479692118+481196928+482697064+484502905+486660793+488960446
2128+491220768+493358193+495200800+496550734+497494810+498276030+498748410
2118+498402347+497079090+495210547+493239114+491248243+489210403+487199410
2108+485280704+483391298+481359101+479003129+476285646+473391086+470609875
2098+468167629+466134919+464393178+462714994+460953245+459105052+457193614
2088+455262112+453520826+452241461+451398080+450643025+449735316+448788960
2078+448038778+447567595+447304443+447124001+446916455+446643441+446340530
2068+446083192+445967790+446036364+446158093+446089291+445751950+445357892
2058+445155019+445128485+445070342+444904693+444743718+444611215+444372859
2048+444012204+443719524+443624900+443660099+443735856+443866192+444071715
2038+444291659+444462011+444628886+444912930+445365701+445909334+446401437
2028+446692720+446676446+446397105+446061673+445843012+445730631+445619875
2018+445410961+444977599+444217955+443210150+442204853+441460286+441106785
2008+441045934+440958920+440589201+440029607+439573302+439325313+439104143
1998+438711082+438221316+437924675+437915668+437894663+437572114+437053533
1988+436564480+436137787+435798309+435661560+435679060+435618551+435366885
1978+435007940+434636540+434292473+434031344+433936948+434056140+434324223
1968+434553316+434541232+434229542+433740517+433266569+432952485+432854498
1958+432931195+433027643+432933390+432550190+432001911+431533835+431318479
1948+431409826+431842475+432575100+433232624+433214099+432396055+431397884
1938+430831335+430700857+430669904+430553762+430422257+430391390+430440811
1928+430536262+430884604+431695152+432649830+433180581+433329671+433540267
1918+433663507+433133469+432083368+431307791+431250162+431649379+431962978
1908+431886880+431544238+431252100+431144108+431103722+431041874+431065872
1898+431283993+431541730+431559030+431414956+431567609+432113465+432407399
1888+431892010+430935907+430252161+430019277+429988410+429994567+430063198
1878+430242556+430503371+430783767+431211115+432185516+433870682+435497677
1868+435751681+434402630+432627229+431434308+430882894+430655340+430612617
1858+430704134+430796421+430794711+430759484+430865052+431280572+432114292
1848+433511595+435506285+437355618+437593689+435958115+434088803+433328018
1838+433525589+433854095+434045053+434688697+436303665+438323151+439460551
1828+439413068+439042722+438660207+437778036+436406184+435248776+434756017
1818+434823964+435241793+436079046+437534407+439370772+440738833+440991981
1808+440497912+440154814+440537643+441776194+443641203+445461522+446489078
1798+446766966+447269215+448926906+451518612+453337820+452876498+451085421
1788+450029364+450454460+451753520+453248525+454878428+456628320+458155988
1778+459429966+461132604+463999005+467799821+470920197+471787234+470754604
1768+469117805+467895186+468041226+469961927+472662337+474584947+475623533
1758+476672722+477848400+479025816+480923202+484148748+487832423+490199739
1748+490734594+490504303+490603089+491518151+493214717+495065476+496354930
1738+497626771+500382274+504694174+507831309+507573486+505839070+504799401
1728+504750948+505628560+507347984+509474407+512060213+516122841+522197431
1718+528554754+531843800+531316926+529566663+528764523+529697826+532516658
1708+536886359+541797527+546183132+550417451+555845461+562105994+566421143
1698+567793308+567939691+567325830+566241870+566471875+569098723+573530842
1688+579077759+586181245+594558281+600561732+601449547+600292680+600545429
1678+603245127+608050099+613712503+619054383+624241956+629573346+633731682
1668+635498704+636604781+639619474+644822666+650046550+653376354+655925735
1658+660216887+667631948+677820526+687350096+690430514+689322954+690665649
1648+695106489+698900464+698930562+697310321+697415206+700098886+704864412
1638+710978676+716687936+718727031+716430228+713336700+711928737+712170485
1628+713099341+714079101+714822984+714471051+712263342+709429518+707909032
1618+707547750+705998820+701975409+697168556+693156489+690139402+687951872
1608+686289906+684670065+682883890+681142748+679618614+678244168+677019127
1598+676091182+675468202+675010471+674661445+674375064+673997650+673458178
1588+672824139+672113317+671306845+670438183+669607200+669267978+670310384
1578+673134461+676322784+677511800+677265093+678246620+681081698+683964430
1568+685487424+686694852+688901307+692447834+698142046+707639866+720319739
1558+729156045+730436949+730106962+732084152+736296127+741573080+747070177
1548+752751107+759293802+767060911+775279481+782711358+787999769+789094103
1538+786679533+784888171+785871408+788373363+789636084+789348962+789892937
1528+792324380+795426744+798262221+801543344+805463124+808625625+810406157
1518+811544440+812163488+812450154+813839876+817734004+824492283+833437121
1508+841483429+842057844+834003955+826401013+824505279+827354893+831821783
1498+834204547+832958927+830852854+831682640+836316206+842541510+846347912
1488+845331215+841690177+839003990+838283991+838466228+838776663+839788060
1478+842136336+845401271+848751880+851417148+852258734+851128772+849936849
1468+849870555+850141944+849726795+849194562+850129974+853229544+857837743
1458+861665236+861683819+858642733+856122651+855236033+855093185+854715771
1448+853908045+853313908+853322629+853258216+852557199+852121129+853308549
1438+855997017+858403208+859330013+859897302+861257668+862450389+861565424
1428+858661373+855880618+854723865+855382074+857790260+861356795+863863026
1418+863175290+860637138+858850849+858077097+857161522+855585003+853980780
1408+853271156+853564434+853849902+853147802+851870090+851184635+851704612
1398+853292019+855239168+856231469+855074089+852174997+849070410+846515670
1388+843931460+840807949+838203560+837753069+839696855+842838836+845848342
1378+848230763+850294483+852287976+853847280+854690690+855298109+856050144
1368+856576334+856958707+858560535+862364486+867177325+870688909+871912925
1358+871176908+869072089+866756532+865749297+866573611+868428872+870182841
1348+871129824+871246280+871236191+871972834+873745785+876017792+877600524
1338+877604401+876729412+876617630+877569572+878165762+877564955+876911934
1328+877726044+879814047+881571093+882203708+882675974+883995582+885597753
1318+886175360+885426175+884015362+882540593+881424768+881020848+881383555
1308+882210149+883195039+884279170+885318269+885807921+885324141+884214928
1298+883212824+882423167+881518252+880639957+880149051+879691834+878442737
1288+876197236+873343404+869979000+866270300+863295908+862191996+862471708
1278+862146907+859992895+856893040+854434920+853099863+852255826+851262215
1268+850178426+849545014+849551740+849558295+848787963+847215719+845284644
1258+843135762+840770213+838631136+837243694+836427475+835480777+834273805
1248+833571362+833843322+834311141+834132609+834024818+835109177+836831281
1238+837750846+837562167+836862803+836112935+835918784+837070463+839565180
1228+842514206+845286411+847920669+850368472+852005243+852072164+850667793
1218+849162013+849145996+850973383+853379004+854785599+855084635+855634538
1208+857345412+859459067+860822168+861805063+863978000+867873212+871766770
1198+873506602+873267362+873272834+874863889+877004677+878143474+878506181
1188+879320462+880789646+882047521+882602440+883129030+884462832+886217257
1178+887318318+887647450+887847985+887841601+887095381+886142355+886479924
1168+888983077+893071983+897034116+899377034+900505913+902219181+905242083
1158+908444200+910398020+910890408+911120185+911955557+912852321+913293236
1148+913915646+915033010+915684150+915461498+915830818+918183769+921695467
1138+924310744+925133633+924964677+924639193+923561730+920974043+918054145
1128+916868378+918301707+922159753+927772622+933484391+937053377+937865777
1118+937677327+938408099+940299843+941999772+941381010+937492810+932698668
1108+930927884+933388000+937465619+940497585+942476827+943693090+943486570
1098+942534513+942462006+942937179+942661686+942628055+945283974+950843717
1088+956589516+959781544+960067811+959212545+958474704+957874353+957821911
1078+958809651+960061541+960635784+961869433+965225173+968680325+969229373
1068+967773757+967542554+969137827+970130356+968822831+966345615+965130891
1058+966588560+969717201+971843168+970972853+967974634+966448219+969198136
1048+974709028+978067504+976202608+971682535+969948860+974100469+981855550
1038+986342562+983406020+977790357+977316552+983404993+989835336+989938169
1028+983370108+974784271+969091541+968399416+971089252+973971529+975391234
1018+975836766+976052920+975949175+974642107+971291839+967024971+964582640
1008+965748684+969893339+974469161+976566285+975146921+971940870+968955077
998+966287928+963503354+961825997+963164189+967189025+970780299+970787595
988+966947106+961425840+956593962+953995558+953278466+951545703+946627809
978+940745888+937711471+937839670+937926257+935585847+931486281+927907661
968+926544274+926867650+926686667+924896559+922598901+921108170+920155373
958+918690236+916459556+914132028+912123259+910055377+907610823+905403058
948+904346060+904224359+903823118+902369953+900438422+899443670+900229165
938+902518159+905483602+908253698+909940916+909755544+907408122+903491079
928+899312393+895902786+893279073+891011626+889313977+889097253+890981301
918+894505483+898165388+900075999+898997169+895506277+891890833+890001427
908+889580520+889084199+887860697+886950708+887447941+888824667+889744061
898+890232174+891590544+893963560+895486782+894597029+892044398+889601668
888+888168910+887929784+888536405+888611306+886900261+884158724+882480512
878+882659443+883303800+882832674+881591899+881277074+882659842+884728521
868+885989930+886013187+885352072+884397735+882979113+881240137+880279359
858+881024781+882986694+884913266+886234243+887644543+890141882+892946179
848+893492890+890765660+887152041+885356803+885370541+886023562+887386721
838+889932169+893076201+895567896+896619935+896415923+895880897+895657618
828+895363371+894902962+895568466+897959666+900250256+900379823+899152843
818+899373500+902009412+904997143+906265107+906266532+906320400+906364406
808+905649480+904344977+903614945+904333747+906323991+908466203+909526508
798+908962411+906777161+903309469+899829349+898230713+898591824+898634861
788+897006128+895292061+895979227+900098230+906589566+912164699+913110029
778+909521149+905503667+903718063+902793824+901444744+901368931+903654562
768+906222469+907246349+907693534+908449217+908552847+907949874+908332533
758+910311775+912710499+914777696+917410871+921937557+927812239+931552062
748+929822206+923996831+918915795+917459722+918565743+920196870+921753040
738+922671009+922385027+922179362+924288741+929030611+933413765+933021758
728+927132769+920338579+917333063+918595954+921760393+924870224+927206473
718+929122328+931223328+932702544+932252452+930295042+928321671+926853969
708+925664383+925612283+928950181+937061585+947152289+952370245+948898961
698+940571688+932956889+927816970+924574723+923488026+924987193+927179910
688+927657876+928491880+934350316+944007972+948552671+942114519+930080655
678+921199659+917956044+917158749+915911533+914298817+913620772+915116063
668+920190372+927396291+932760459+934114782+932838951+932947370+933449961
658+928593288+919156460+912705653+913610569+920354083+929154478+937386956
648+944348961+948905060+948856551+943994462+938430159+937638280+941122674
638+941435276+934739644+924853009+917660770+919213292+931244875+948769394
628+963865320+969472774+964822735+956834399+950451596+945990805+943901206
618+945990862+948980874+948299066+949880089+961771731+984206905+1009827838
608+1030399257+1040858767+1039063415+1032004904+1033558565+1051616059
600+1073741823
##END=
