##TITLE=<SNM>
##JCAMP-DX=4.24
##DATA TYPE=INFRARED SPECTRUM
##DATE=2/5/2025
##SAMPLING PROCEDURE=Instrument type and / or accessory
##ORIGIN=Admin
##XUNITS=1/CM
##YUNITS=ABSORBANCE
##RESOLUTION=4
##FIRSTX=4497.3318
##LASTX=599.83466
##DELTAX=-1.4281778
##MAXY=1.7792521
##MINY=0.32373297
##XFACTOR=1
##YFACTOR=1.6570576e-09
##NPOINTS=2730
##FIRSTY=0.34160116
##XYDATA=(X++(Y..Y))
4497+206149238+206391947+207610653+208945919+209497666+208999299+207864206
4487+206668612+205706284+205081680+205065169+205924245+207291993+208136932
4477+207759101+206537357+205398559+204950622+205292501+206106884+206822294
4467+207174065+207540025+208305326+209170805+209455778+208853530+207783489
4457+207108347+207227948+207471736+206902814+205575388+204379560+203958943
4447+204294904+204940875+205242826+204792174+204030685+203891193+204630272
4437+205616898+206357020+206956049+207422421+207360120+206628469+205733585
4427+205330647+205582726+206105499+206478689+206671561+206812043+206729293
4417+206197582+205550785+205378668+205524023+205142343+203995453+202968630
4407+202978504+203861608+204644354+204687375+204314706+204314580+204965820
4397+205788080+206298119+206557680+206716902+206589226+205992175+205000279
4387+203783103+202629359+201863734+201417381+200912467+200201859+199385605
4377+198658091+198447593+199023799+199829459+200059165+199794460+199682000
4367+199813902+199735721+199289565+198854200+198807799+199064554+199204460
4357+198939072+198336104+197738244+197625369+198216755+199142555+199912892
4347+200512911+201062697+201254004+200675082+199416234+197951457+196680523
4337+195807113+195404391+195402107+195592407+195766485+195900833+196177336
4327+196738776+197416023+197783170+197586000+197083317+196742751+196581101
4317+196218126+195650319+195366155+195567570+195847454+195816177+195646830
4307+195805710+196468658+197374118+198199021+198902526+199515332+199770828
4297+199397440+198738196+198528490+198898210+199119966+198684151+198048882
4287+197895253+198188284+198412864+198339359+198067694+197622456+197016790
4277+196554897+196630039+197222755+197917861+198482466+199085237+199756530
4267+200054723+199686352+199031407+198551925+198182421+197837827+197850794
4257+198281159+198514714+198182223+197801281+197999927+198748052+199592740
4247+200079956+199951488+199431359+199155360+199427061+199836114+199888594
4237+199562759+199023404+198371462+197908400+198036904+198642857+199109894
4227+199144965+199116513+199395371+199851113+200186787+200315920+200219646
4217+199846599+199416522+199342567+199555277+199446359+198823949+198274091
4207+198248984+198529677+198815532+199059770+199106837+198812655+198495542
4197+198614837+199178471+199854998+200303402+200163874+199211690+197775653
4187+196633168+196285354+196549699+196960838+197353363+197837431+198368855
4177+198766649+199146422+199854764+200879824+201693667+201802315+201283428
4167+200693175+200470700+200495015+200336675+199914457+199618728+199796475
4157+200416852+201135518+201485670+201266863+200819287+200547748+200289320
4147+199668817+198892311+198566295+198782044+198891357+198379340+197725618
4137+198020448+199654429+201723613+203000356+203237957+203133985+203236716
4127+203346263+202939836+201850749+200440413+199289079+198814813+199085075
4117+199837984+200665298+201256072+201511514+201424341+200998094+200423129
4107+200063319+200009706+199969078+199852894+200001235+200538737+201066258
4097+201210174+200979731+200474746+199688798+198690374+197731121+197149196
4087+197191641+197810777+198653774+199394706+200050784+200802434+201519608
4077+201810678+201642806+201417848+201285640+200911082+200068967+199020095
4067+198238067+198059709+198435651+198869757+198913785+198737998+198883156
4057+199540601+200327448+200669201+200318923+199623836+199232696+199434273
4047+199936525+200380378+200800744+201331807+201699495+201419898+200446510
4037+199258001+198371391+198085787+198534066+199580582+200705621+201303211
4027+201217710+200874411+200753641+200872774+201018705+201257727+201775895
4017+202386291+202627633+202288686+201560542+200758893+200124433+199870915
4007+200178766+200971494+201849814+202433322+202651697+202653010+202635618
3997+202738223+202855126+202680113+202166261+201720609+201720537+202101317
3987+202606357+203159937+203745766+204121888+203988834+203446566+202993791
3977+202976166+203228137+203347882+203234881+203218731+203549207+203922163
3967+203909610+203780495+204303357+205699288+207267839+208072312+207760990
3957+206788734+205961294+205752739+206292346+207829747+210233921+212148380
3947+212302817+211603899+211873621+212928519+212863628+211043448+208863889
3937+207848541+208722616+211491079+214996156+216962825+216062851+213735419
3927+212567450+213421885+214816988+215117519+214910151+216018392+218613298
3917+220436213+219253513+215491034+211479065+209024694+208583160+210168258
3907+214261016+221173205+229456884+235885743+238030536+235740297+230123573
3897+223423661+218808257+218391326+221423090+224230832+223868720+222458959
3887+223791258+227535483+230153428+230830495+231313790+230500828+226632506
3878+222822132+223372188+228235265+234380319+239795466+243090028+242408322
3868+239099641+236973121+236587970+235022872+231216778+227897541+227812526
3858+232012618+241062264+253863760+262285078+257054907+243907378+232568735
3848+226681605+226275250+229940467+235931245+242928522+249727730+254144633
3838+253833653+249634837+245056553+241785660+239048869+236436374+235074130
3828+235529872+236953283+239552380+245006933+251974930+254683556+251777328
3818+248263132+245834948+241967741+236606099+232986043+233495471+238140820
3808+244235175+248395341+251418526+256369909+261636914+262129687+258328162
3798+254630860+251627602+247835501+244034425+242257804+243185619+246376874
3788+251387753+257444680+262997216+267468344+272590262+279762858+287125107
3778+292049387+295763811+301899117+312623587+327653903+344419564+359216469
3768+370355747+378662627+385097798+391034423+398374460+406807127+413178379
3758+415895494+418070862+424125325+436062710+451716388+464363429+470279730
3748+474986067+484200618+496642160+505924083+511145981+518113043+530501853
3738+547606605+564852215+575445790+575816499+569444419+562988637+560801614
3728+563677142+569456865+574263271+575143137+571517452+564755240+557811234
3718+553631536+553439599+557164742+563692177+569346976+569161370+562745262
3708+554400722+548378884+546968566+549416767+551960902+551916227+551072043
3698+552417543+556679720+562927415+570188030+577915178+584973065+588293831
3688+585236691+577871439+570588342+566370840+566795827+572401347+582596696
3678+595103021+603915785+602734704+595861704+591959552+591731465+588656519
3668+578927739+567001936+558144462+553613587+551910076+552230462+555424721
3658+560465905+563143992+562469515+563944652+572366492+585494417+592303211
3648+583972807+567214053+552766885+544578492+541355097+540395305+540292142
3638+541189706+543242020+546035787+549941536+556739647+566806762+574427906
3628+571502272+561188150+553117055+552355782+559056234+569274352+576243177
3618+576700717+574896921+575654777+578946983+582247282+584539013+586153391
3608+586758121+586056199+585079321+585304566+587209367+590177697+593501125
3598+596551863+598177931+597659349+596544130+597979088+603928950+613180190
3588+620486595+620388252+614362817+608594209+606629374+607640136+609183760
3578+610059130+610235312+609526628+608456155+609473392+614902226+623536146
3568+630299905+631222108+628228383+625276239+623395430+621659942+619548277
3558+617505459+615970612+614302315+611319309+607683444+606451178+609650221
3548+615275236+618915346+618341837+615111212+611569733+608723558+606747141
3538+605418187+604047004+602137347+600312904+599839141+601046876+602657404
3528+603127103+602666864+602773947+603839672+604855110+605058917+604299370
3518+602323313+599368040+596904119+596222233+596804050+597040950+596155004
3508+594866157+594356676+594669292+594339266+592353389+589963675+589173338
3498+589985904+590398122+589037443+586858586+585745417+586209972+586865096
3488+585995194+583609184+581330366+580197917+579834187+579671782+579124675
3478+576840246+572206712+567235383+564707219+565114725+566908810+568727066
3468+570151916+571087105+571512236+571554825+571130844+569724015+567105602
3458+564103064+561891295+560533241+559221840+558121801+558555421+560810391
3448+563111547+563622683+562436854+560579498+558351326+555868521+554093501
3438+553944657+555018078+556123694+556480913+555835752+554249360+552244203
3428+550546878+549627876+549565864+550184803+551041828+551153695+549670501
3418+547053779+544723847+543586686+543306479+542962496+542076083+541073558
3408+540836407+541505380+542110506+541773646+540562458+538862400+536962563
3398+535395991+534543785+533943587+532951062+531795269+531264960+531688006
3388+532692904+533764671+534643639+535297936+535835402+536433694+537111156
3378+537572366+537422766+536485131+534968953+533306375+531643546+529908597
3368+528525616+528275911+529177935+530398583+531508514+532715494+533808735
3358+534124589+533507233+532400035+531304636+530703754+531003205+532060836
3348+533082281+533372525+533243176+533703630+534767592+535050065+533843986
3338+532391510+532291010+533659710+535248765+535658609+534547994+532904661
3328+531846598+531532938+531456789+531058671+529958560+528419432+527381980
3318+527281264+527355327+526745776+525668433+525052804+525507755+526773689
3308+527833118+527621074+526085292+524500806+524290740+525463619+526559415
3298+526311400+524990396+523995425+524501849+526488697+528816327+530282903
3288+530602498+530234919+529561125+528630361+527589996+526892211+526795019
3278+527020300+527197561+527323313+527548918+527829773+528110269+528549752
3268+529149087+529456164+529114268+528569823+528723416+529727991+530541708
3258+530005249+528183360+526274171+525266143+525016762+524798135+524540265
3248+524901370+525841018+525962022+524223835+521656285+520163631+520250714
3238+520932457+521318525+521348884+521252304+521074791+520634336+519548217
3228+517614353+515404201+513921979+513467424+513496056+513641303+514098664
3218+514917777+515635058+515691567+514823607+513219589+511551185+510560890
3208+510393017+510445354+509912528+508448290+506422630+504636135+503796519
3198+504067447+504851489+505121265+504348338+503015859+502033370+501887511
3188+502386309+502784930+502227896+500649489+498955582+497827809+497002725
3178+496121168+495421944+495107673+494734015+493659910+491775288+489645638
3168+488032376+487164236+486498105+485386051+483777968+482067371+480638384
3158+479804164+479704598+479887039+479388636+477752245+475772735+474706615
3148+474824705+475232463+475071209+474353244+473539275+472829620+472058635
3138+471044096+469916971+468995631+468315291+467641570+467130542+467387081
3128+468449532+469333967+469146526+468051414+466619370+464998482+463314251
3118+462071337+461470923+460932558+459907983+458725284+458121453+458260262
3108+458606619+458614280+458233248+457705854+457090907+456207948+455050679
3098+453965459+453215553+452623017+451936238+451348198+451233813+451527401
3088+451733690+451431217+450598723+449651988+449148658+449180240+449207577
3078+448749785+447903371+446941564+445900983+444830942+443995787+443571915
3068+443323181+442708199+441437768+439948172+439046328+439057262+439606095
3058+440120757+440210610+439736056+438854535+437893160+437061961+436431512
3048+436100227+436110154+436252129+436186447+435737396+434992669+434222368
3038+433714793+433506885+433247720+432516483+431285260+429918573+428782959
3028+427973414+427316707+426635144+426112066+426136741+426555866+426546405
3018+425578844+424055435+422730690+421908124+421332349+420640139+419890845
3008+419529057+419647866+419679628+419145507+418211182+417216355+416261491
2998+415479319+415089906+414998146+414834842+414506686+414232233+413919617
2988+413064893+411569793+410149727+409540320+409687690+409946567+409740530
2978+408959798+407959719+407122262+406427893+405747446+405299473+405230842
2968+405056063+404210260+402925118+401949139+401589905+401495556+401255311
2958+400830431+400338143+399774095+399184472+398799447+398683767+398495535
2948+397867065+396846051+395749285+394713200+393642116+392601823+391968065
2938+391942130+392137736+391983927+391410671+390847810+390638535+390673894
2928+390575875+390149665+389574717+389110414+388751396+388284036+387594739
2918+386847135+386310029+385959751+385446277+384625330+383769563+383051023
2908+382307016+381572182+381273845+381503479+381618008+381052377+380104922
2898+379413432+379032472+378557450+377858118+377160009+376601572+376147844
2888+375795300+375558149+375347040+375015719+374495986+373880968+373354077
2878+372968980+372590178+372135551+371711391+371426723+371267735+371188924
2868+371119538+370826345+370042843+368913128+368013586+367658812+367496514
2858+367090915+366499349+365950229+365445819+364989825+364723682+364624980
2848+364489840+364284666+364154130+364077406+363809860+363207539+362440367
2838+361786717+361295113+360791351+360150794+359406823+358692419+358173802
2828+357889565+357650292+357284223+356864271+356472017+355973110+355276548
2818+354573223+354091187+353783714+353411926+352813527+352002939+351128468
2808+350402878+349932388+349530961+348899864+348092046+347548357+347547314
2798+347839032+347932518+347595082+346972870+346290804+345592443+344873471
2788+344291582+343966519+343721562+343324416+342782058+342137436+341298180
2778+340332309+339584741+339272412+339224212+339130690+338831598+338338375
2768+337766233+337250421+336821117+336371921+335794204+335100088+334385972
2758+333733653+333194424+332817421+332608219+332444590+332098449+331428901
2748+330569393+329831645+329361011+328989655+328507475+327931952+327403443
2738+326974498+326597279+326160565+325506772+324614999+323763082+323263816
2728+323076375+322925013+322716314+322554556+322430747+322180034+321721415
2718+321155352+320616735+320095491+319444107+318598377+317727359+317083996
2708+316781595+316737712+316699152+316394772+315862018+315420844+315120457
2698+314592235+313713591+312939405+312663730+312694988+312639810+312417766
2688+312122091+311703219+311108812+310546382+310279807+310212974+309951831
2678+309321058+308588741+308086094+307797613+307485141+307077814+306716458
2668+306466178+306233774+305971696+305743429+305583829+305475775+305407863
2658+305288011+304914496+304199409+303324615+302573126+302082169+301789156
2648+301544883+301262247+300957418+300633471+300192872+299573142+298919528
2638+298466717+298255680+298132231+298014195+297947722+297900439+297750102
2628+297473239+297117278+296659288+296119790+295692374+295541533+295591748
2618+295643401+295552594+295236524+294663034+293920933+293241313+292863482
2608+292817440+292879938+292818429+292595288+292278157+291915470+291578951
2598+291343023+291162165+290923827+290608620+290270482+289921949+289523688
2588+289038450+288503304+288095960+288010566+288186119+288315108+288201856
2578+287931612+287626819+287266434+286844396+286487248+286268783+286059508
2568+285712540+285287948+284939235+284672499+284387705+284097120+283924967
2558+283913294+283973814+284007806+283956476+283786877+283532262+283268475
2548+282980102+282579718+282115955+281777979+281632552+281557734+281484444
2538+281488041+281580431+281605952+281433421+281136703+280901062+280789339
2528+280671501+280417210+280102668+279942925+280026789+280194914+280199356
2518+279960496+279627970+279367096+279176526+279006567+278931444+279039084
2508+279258233+279454882+279567288+279530023+279259995+278849917+278561239
2498+278487788+278426962+278226518+278040463+278047782+278133751+278097925
2488+277993449+277984619+278020823+277917516+277636859+277276060+276914686
2478+276641511+276577070+276701581+276783611+276627662+276296287+275968023
2468+275699884+275462193+275287216+275226066+275232883+275219052+275166338
2458+275110692+275073679+275052025+275026450+274963430+274846114+274704229
2448+274573693+274428878+274226347+274030975+274000689+274185989+274426378
2438+274505332+274355283+274105254+273957632+273978405+274014411+273877922
2428+273559443+273200226+272956960+272931331+273123250+273433853+273743430
2418+273944269+273955222+273827061+273741685+273791360+273888174+273950924
2408+274015113+274130631+274277785+274377656+274356577+274275159+274337711
2398+274639141+274992998+275167273+275170367+275138533+275078930+274924115
2388+274723419+274546986+274238811+273434860+271809386+269229479+265780623
2378+261759014+257548454+253394043+249348244+245455409+241848104+238646363
2368+235962773+234006463+232877755+232294283+231959652+232188459+233740104
2358+237113926+242310501+249174526+257628740+267143731+276067139+282245645
2348+284413657+283013590+280102668+277823958+276513115+275216049+273421947
2338+271277603+268937204+266379832+263639409+260999037+258920446+257723917
2328+257328173+257312400+257246682+257045195+256985809+257345331+258144084
2318+259230527+260381573+261366688+262139795+262899593+263805591+264773513
2308+265663325+266475243+267256965+267985901+268611116+269077200+269297751
2298+269248040+269093296+269103782+269405194+269862626+270225907+270372126
2288+270398456+270480216+270661254+270808786+270747636+270403546+269863759
2278+269340735+269020043+268902007+268839742+268724062+268544931+268297816
2268+267964300+267611523+267405846+267456474+267662816+267793802+267755350
2258+267681593+267695316+267730153+267700711+267677798+267754558+267886191
2248+267977520+268015054+268038561+268059531+268052086+268001008+267940992
2238+267929463+267988203+268109746+268296827+268527827+268709189+268746130
2228+268668489+268615199+268662985+268719278+268642230+268436175+268244220
2218+268161633+268165068+268212261+268281449+268317006+268282618+268242961
2208+268242800+268187747+268027482+267932017+268073740+268368299+268604228
2198+268686779+268652662+268597501+268626116+268754637+268893536+268982292
2188+269030582+269013406+268882601+268675629+268473548+268291575+268125735
2178+268035198+268080160+268228286+268379037+268446984+268421967+268378965
2168+268398245+268457002+268469897+268438603+268449484+268512090+268542161
2158+268534086+268621727+268907151+269310376+269640798+269772647+269716138
2148+269571196+269467674+269511431+269728422+270055732+270373978+270543578
2138+270485845+270275132+270081271+270014043+270090677+270288783+270529909
2128+270687332+270711882+270700300+270794955+271048833+271391017+271700720
2118+271910768+272038084+272134898+272244175+272379747+272518951+272628642
2108+272694144+272726140+272774753+272912213+273161792+273492412+273877023
2098+274246419+274436557+274359545+274188525+274205503+274496969+274908666
2088+275245077+275429909+275513522+275599455+275751663+275940002+276094638
2078+276218124+276376554+276561549+276659748+276599533+276468044+276485796
2068+276862206+277549973+278149434+278260276+277925556+277530244+277357857
2058+277435678+277668261+277926563+278093159+278148895+278189487+278311857
2048+278507265+278714004+278971730+279391322+279904653+280240902+280280541
2038+280215237+280224985+280227629+280085996+279893520+279905318+280226747
2028+280675853+280997426+281122477+281142134+281198500+281524389+282308395
2018+283294931+283829430+283609724+283100458+282938629+283239393+283668319
2008+283932700+284017104+284076887+284265298+284659082+285239532+285850018
1998+286307469+286773984+287781562+289463474+290993861+291379892+290650669
1988+289643055+288978596+288775328+288903958+289123771+289235279+289261609
1978+289326823+289424032+289456208+289409500+289445974+289870548+290805880
1968+291771428+291944930+291140889+290117160+289641166+289746829+290096153
1958+290555654+291080279+291419801+291339983+290975120+290723635+290867425
1948+291473649+292647553+294465468+296300018+296783098+295335244+293113151
1938+291564977+290998788+290971883+291139090+291375450+291643536+291969390
1928+292454357+293386273+294971676+296686104+297708862+298252677+299054740
1918+299555876+298476321+296244498+294765908+295057249+296429475+297471782
1908+297376839+296470337+295579104+295107355+294936209+294952755+295321809
1898+296239840+297470182+298359346+298805323+299686340+301352191+302468849
1888+301740021+299921891+298543028+298002666+297925438+298110685+298498065
1878+298919276+299232073+299574221+300682930+303723344+308943371+314135054
1868+315654614+312631393+308073792+304940611+303816327+303800248+303960855
1858+303919274+303799565+303910137+304365124+305156396+306471681+308648272
1848+312052705+316772603+321330995+322417581+318893800+314087681+311350279
1838+310997952+311479484+311937960+313474318+317476431+322830951+326089632
1828+325954061+324686580+323588842+321604152+318599600+316310170+315798207
1818+316362219+316928749+317558515+319145267+321782852+324020376+324358640
1808+323134719+322045650+322549160+325156530+329116270+332415275+333292803
1798+332332363+332100751+334721826+339784915+343482685+341884242+336623137
1788+332578507+331955180+333589485+335665395+337635913+339283563+339985952
1778+340175155+341894278+346938303+354599266+360679699+361026056+356727909
1768+351388496+347240272+345842148+347878671+351383425+353115820+352961436
1758+353050210+353616129+354209673+356523382+362374686+370006045+374575192
1748+373893845+370623329+368045311+367522701+368866294+370747103+371545928
1738+372049798+375608615+383291016+389374795+387223635+380044565+373462383
1728+369006650+366866281+366998363+368591770+371578589+377868189+388976533
1718+401763929+407773609+403218275+394043795+386506714+383142388+384521340
1708+389996611+397095792+402650666+406955612+413659552+423494193+430833834
1698+431483203+427530190+420344321+411886726+406733100+407041329+411335987
1688+418159061+428594151+442002140+449589220+444645732+434912743+428735802
1678+428411243+432773921+438202108+441695603+444638754+448732195+450733216
1668+447098358+441805887+440741746+444224341+447641975+447476764+446071626
1658+448147500+456835987+472946163+490638523+494963792+487482752+484007602
1648+487480378+489964622+484426762+475459363+470164014+470504220+476362502
1638+487093411+498631131+501955422+494620457+486071175+483109211+485490796
1628+489849949+493928679+497985898+501383317+501797729+500356692+501720933
1618+507544395+512892332+511780998+506841538+504011981+504861776+507381163
1608+509143305+509647895+510001985+511017675+512350334+513297788+513920828
1598+514955474+516745709+518758132+520288375+521212521+521759195+522075301
1588+522356624+522934557+523944059+525153449+526441325+528632987+533445364
1578+541478618+549062281+550125524+546408186+545292823+548888797+552777353
1568+552599012+550329259+549831647+552884867+561579217+578938494+601353521
1558+609907983+598962620+585708368+578146251+575769414+576489968+578318907
1548+581113790+587175843+598422636+614004122+631222683+644890125+645937577
1538+635776435+627832063+628143277+633280825+636727127+637613216+640831323
1528+648881160+659630917+670325280+681121439+691997596+699723989+702856631
1518+704036812+704072710+701997663+699778447+701484728+709577657+723955654
1508+740781708+748682125+739821880+726208609+719212627+719940951+725353670
1498+730863150+732322747+730059504+728959464+732778921+740641425+747234397
1488+747577121+742836109+737764962+735488050+736334572+739138735+743269909
1478+749131248+756787139+765167829+771730011+772386179+766259812+759139588
1468+756741889+759755110+764476051+766788357+767770919+772088490+781827342
1458+792570481+794100652+784566327+773688299+766991877+764353105+763933549
1448+763145514+760191140+756111548+753425223+753325370+755585376+759892156
1438+765266460+768337521+766427864+762524022+760731772+761017375+760852632
1428+759601661+759223687+760682421+762937895+765692562+770005314+774459500
1418+774045627+767442151+759526843+754309946+752129578+751509812+751525782
1408+752585895+754797269+756594483+756798434+757106986+759756765+764139442
1398+767840989+769738271+769728415+767472510+764235267+763011777+765055890
1388+768002207+768319752+766228590+765554796+768520681+773989226+780158326
1378+786885252+794669053+802346094+807317819+808840724+809220641+810349601
1368+811638340+812421483+814039709+817615863+821376329+822486512+820930443
1358+818915178+817626079+816541075+815012486+813268940+811713302+810171189
1348+808383975+806678629+805746282+806181522+808278367+811553307+814405597
1338+815249961+814239631+812987869+812810824+813791443+815140036+816279499
1328+817614424+819914357+823152680+826636175+830078232+833655466+837120329
1318+839867370+841982704+844344578+847446429+850694823+853113026+854405506
1308+855065343+855828270+857330601+859770961+862581166+864910882+866567525
1298+867915974+868977238+869384636+869073638+868254022+866872839+864765347
1288+862192689+859603268+856991762+854179038+851540410+849613776+848150581
1278+846356245+843906173+841274955+839409111+839165017+840519294+842413843
1268+843784378+844367383+844454431+844642914+845537492+846920905+847855842
1258+848069217+848291441+849107028+850470514+852214347+854188031+856045818
1248+857386282+858070435+858396756+858996595+860337059+862292110+864328094
1238+865990779+867190744+868265820+869724842+871785286+874257012+876838087
1228+879455996+882304906+885378557+888021357+889510379+890144245+890966595
1218+892371374+893861834+895195968+896762037+898798740+901230683+904129663
1208+907380575+910214593+911955621+912964153+914230375+916252905+918624491
1198+920616447+922262586+924566763+927994504+931288940+932868319+933015581
1188+933480603+935412633+938744190+943059459+947863851+951841217+953286426
1178+952398251+951797909+953531959+956664817+958874464+959721706+960987424
1168+963998199+967820102+970462039+971359279+971778259+972956139+974845436
1158+976678116+978158432+979560694+980642604+980612030+979779536+979964567
1148+982397517+986302439+989976576+992076658+992258308+991754222+992467079
1138+994758163+997204854+998627762+999426731+1000864818+1003316977+1005560868
1128+1006707022+1008314960+1012190243+1016722700+1018699117+1018187261
1120+1018181722+1020141305+1022828061+1024891382+1026381770+1027577418
1111+1028287541+1028624798+1029011693+1029674335+1031013721+1033537100
1103+1036555429+1038346959+1038853491+1040071945+1042760787+1045035541
1094+1045060072+1043381704+1041478450+1039899360+1039274054+1041175510
1085+1045760268+1049889283+1050257186+1047723591+1045935658+1046567078
1077+1048847084+1052469640+1056815771+1058850676+1055955797+1050036114
1068+1045705449+1045123739+1047160155+1050324810+1053730322+1056885338
1060+1060459909+1064834314+1068018393+1067842787+1065434368+1063994554
1051+1064837335+1066686634+1068144289+1068766501+1068191122+1066340457
1043+1064491086+1064435980+1066356500+1069015199+1071509730+1073266225
1034+1073741823+1073258312+1072967026+1073329101+1073017959+1070240774
1025+1065544797+1061574697+1059610510+1058493276+1057435897+1057279283
1017+1057844518+1057525607+1056377007+1055791701+1055453869+1054666770
1008+1054441884+1055056398+1054745256+1052846967+1051211547+1051189389
1000+1052093248+1053021062+1053751616+1053682338+1051987711+1049237216
991+1047062316+1045780627+1044144416+1041550678+1038820614+1036861175
983+1035705526+1035122881+1035466468+1036976064+1038155382+1036365794
974+1031042137+1024726279+1020010805+1017325776+1015986894+1015195478
965+1013581497+1009767580+1004043502+998295901+994263357+992502977+992497509
955+992797357+991179706+986069568+978647483+972478958+970225931+971065331
945+971565963+969122438+964237257+959341285+956139724+954472651+953291822
935+952355015+952588533+954499269+956563309+956366408+953727133+951292168
925+951671438+955076086+959446102+962169116+962244797+960892822+959496532
915+957829171+955424062+953165063+951959487+951393460+950983472+951168575
905+952087253+952875071+952900035+952546880+952267247+951577412+949582002
895+946496841+943995187+943252691+943341681+942895579+942493433+943592825
885+945871176+947179483+946239007+944150794+942427967+941235340+940342848
875+939800418+938929436+936666697+933674842+932069349+932446245+933120613
865+932873067+932478690+932671706+932708683+932126686+932128700+933675273
855+935480688+935566873+934002890+932561277+932381786+932787745+932346895
845+931218870+931248366+933043565+934717329+934524313+933151476+932249488
835+932177619+931912088+930509395+928437801+927386896+928694484+932029998
825+935386806+936297787+934003969+930660326+929240511+930636226+933757285
815+937322073+940366948+942027979+942115458+941545691+941634249+942916874
805+944737612+945675714+944987460+943672175+943419377+945175872+948372110
795+950754558+950193711+947769537+947160347+950237882+954762426+957149767
785+956728772+955398235+954152804+952727666+951485112+951105051+951365188
776+952223724+954708903+958637852+961169577+959939109+956274324+953182688
766+951493169+949680561+946780142+944252374+944081300+946202533+949329851
756+952397028+954307044+954184170+952994924+953404768+956342956+959539481
746+960829587+961035696+962181130+964532860+966734522+967707731+967200839
736+965479091+963729502+962793414+961198281+957597163+953813677+952697379
726+954644876+957434291+958803531+958530086+957861472+957704858+958232325
716+959630485+961211158+960531754+956293605+951407273+949962711+951963803
706+953635193+952802340+951333174+951293535+951526118+949769695+946130377
696+941835610+937286103+933852894+933580600+934890706+932873714+926349660
686+919530723+915158765+912279065+910689255+911804259+914816688+916799005
676+917200000+918012494+918653699+915001863+905498400+896377444+896191478
666+902451727+907403092+908623345+907134539+904184841+899503755+892509859
656+885478194+882034554+882503173+883314876+881794561+879551245+878780620
646+878735874+877974169+876858878+877098296+879515419+881906284+880970125
636+876835569+872895253+871361125+871472561+871097176+868084027+861677955
626+854376730+850356272+851091574+853883507+854752259+853016122+851274159
616+850710506+849698881+847132985+844128613+842662469+844709099+851469261
606+861483069+869570171+869642830+860963804+850987333
##END=
