##TITLE=<SNM>
##JCAMP-DX=4.24
##DATA TYPE=INFRARED SPECTRUM
##DATE=2/5/2025
##SAMPLING PROCEDURE=Instrument type and / or accessory
##ORIGIN=Admin
##XUNITS=1/CM
##YUNITS=ABSORBANCE
##RESOLUTION=4
##FIRSTX=4497.3318
##LASTX=599.83466
##DELTAX=-1.4281778
##MAXY=1.6980212
##MINY=0.26461288
##XFACTOR=1
##YFACTOR=1.5814055e-09
##NPOINTS=2730
##FIRSTY=0.28385273
##XYDATA=(X++(Y..Y))
4497+179493959+179192375+179453687+180273238+181061996+181222560+180648734
4487+179847858+179603470+180377510+181919333+183453806+184220025+183876793
4477+182691432+181425186+180782330+180901490+181463254+182117795+182677204
4467+183085604+183366062+183600443+183898635+184208417+184143532+183284876
4457+181765780+180245008+179209110+178628406+178348796+178393987+178697984
4447+178979968+179143509+179288921+179168932+178371524+177220028+176651875
4437+177048628+177780699+177898917+176982726+175436229+174066578+173397753
4427+173485007+174130257+174903788+175245174+175011980+174699466+174807281
4417+175222050+175472281+175426279+175434929+175733422+175961075+175627040
4407+174908443+174510521+174761599+175252128+175421567+175129990+174499930
4397+173598514+172629762+172001398+171804519+171676672+171442310+171372883
4387+171671753+172107347+172166560+171535708+170566900+169961037+169791126
4377+169438509+168669237+167989161+167800744+167960685+168216927+168526633
4367+168952842+169501849+169941947+169809652+168934657+167963041+167884719
4357+168934468+170418190+171689581+172646007+173078473+172471668+170912337
4347+169341417+168465141+168160541+168124961+168334768+168704365+168983353
4337+169187186+169672890+170672284+171924339+172711872+172351132+170923588
4327+169372192+168512254+168193219+167820701+167364057+167327666+167874184
4317+168487661+168642043+168486511+168567283+169020743+169472242+169715311
4307+169976359+170354361+170501393+170176931+169780743+169937122+170585670
4297+170883730+170258343+169195742+168620748+168822149+169387419+169914395
4287+170323944+170585821+170582956+170322927+169964542+169583921+169206597
4277+169071098+169477915+170320759+171111421+171470917+171340073+170845983
4267+170308679+170213378+170731346+171364478+171449056+170962466+170496305
4257+170505860+170925115+171436109+171810003+172032342+172319340+172868063
4247+173457663+173571772+173039105+172252307+171716134+171663612+172037412
4237+172529241+172732206+172495093+172032173+171611938+171402037+171651683
4227+172551949+173764787+174581173+174740097+174634939+174604541+174520358
4217+174145107+173448202+172560015+171805952+171594524+171910959+172168652
4207+171845678+171049985+170330220+170188313+170792443+171894035+173032132
4197+173910463+174448350+174606501+174478107+174372459+174476656+174574728
4187+174350617+173871339+173588337+173790945+174193276+174307725+174023573
4177+173553718+173137007+172983284+173194768+173698658+174488001+175609551
4167+176687568+177068548+176722640+176347822+176498963+177187821+178027594
4157+178270625+177362688+175834943+174891388+174991759+175519733+175786943
4147+175742996+175780159+176226382+176925605+177284234+176964427+176371209
4137+176162929+176501695+177021547+177347178+177494531+177770165+178251723
4127+178552440+178357069+177930672+177748907+177881070+178023448+177926639
4117+177631330+177439389+177623377+178092573+178454576+178409686+177951609
4107+177301365+176782587+176657717+177034023+177883577+178949212+179714828
4097+179824226+179478110+179120254+178893072+178672486+178471009+178539738
4087+179085710+180017618+181017163+181782477+182094483+181793728+180932359
4077+179879500+179120254+178977858+179472966+180314058+181061582+181362092
4067+181082538+180463766+180113429+180443149+181139263+181518773+181245966
4057+180465462+179546519+178923526+178911823+179531669+180580702+181793936
4047+182902350+183659863+183876963+183503935+182760538+182043996+181581208
4037+181318276+181226517+181468625+182090337+182714555+182829475+182433268
4027+182101682+182254538+182670042+182956380+183137542+183432907+183780210
4017+183908265+183678463+183132661+182398536+181741658+181516888+181859744
4007+182548056+183330953+184250122+185401768+186531101+187131744+186938484
3997+186238394+185652695+185569172+185856528+186155587+186239129+186089948
3987+185908994+186010307+186436365+186751556+186496426+185844052+185566666
3977+186250869+187706041+189219294+190139575+190127664+189303062+188357811
3967+188071021+188602953+189564863+190533897+191181427+191293690+190968794
3957+190491947+190042803+189815715+190240417+191685129+193766705+195303138
3947+195655021+195738732+196546656+197237701+196160795+193442035+190888248
3937+189929881+191010009+193947772+197663966+200080294+199809579+197949475
3927+196778437+197012818+197411720+197171327+197433034+199420854+202265765
3917+203465204+201462722+197403899+193772905+192007198+192054557+193811312
3907+197972014+204775001+212453379+218050105+220118339+218902976+214615726
3897+208365948+203272603+202310052+205400916+208596428+208065306+205771719
3887+206216076+209754784+212874405+214120713+214907624+214296597+210379153
3878+205820585+205045829+208806838+214655886+220106278+222978930+221587625
3868+218120060+216763488+217966827+218146896+215006261+210659008+208433076
3858+210407628+217983373+230776618+240780771+237183662+224662942+213383779
3848+207556271+207484131+211573936+217410490+223342779+229030303+233539929
3838+234359367+230829404+225963693+222413151+220262676+218759034+217875464
3828+217610949+217813783+219896622+226060597+234592486+238860946+236953521
3818+233967947+231415743+226337097+219045334+213576229+212784946+216997322
3808+223624877+228606205+231673398+235600002+239285572+238394219+233798470
3798+229806661+226844700+223243068+219557102+217715824+218314922+220659825
3788+223910536+227095175+229194560+230670141+233546619+238370662+242482649
3778+243327133+242266585+242766047+247148070+255436909+265009972+272292708
3768+276437806+279066937+281421772+284889620+291491526+301369735+311471828
3758+319123540+326084565+336372229+352426192+372892179+391082652+401529221
3748+408263837+417229982+427782237+433386840+433225222+434310721+441765120
3738+456381399+474782866+490142260+497177988+496921728+494507020+494073726
3728+496847401+501932285+507740495+513076325+516875835+518136483+517788144
3718+518907903+524275130+535262677+551548439+568619905+578175310+578025338
3708+574617626+573959467+578139881+585911261+593496033+597688546+598881050
3698+599164561+599841038+602099516+607458036+616143572+625012173+628296410
3688+624019243+616383135+609348839+604888080+604660464+609268972+617786934
3678+628368701+636245616+635327917+628846810+625005916+624506474+622698741
3668+618169686+613497216+610216447+608733836+609577585+613046923+618898628
3658+625663284+630172551+631464936+633867921+641678387+653093990+660272605
3648+659114287+654136973+649820834+647395196+646392618+645457882+644157319
3638+644257954+647375069+652483698+657842067+664113009+672115095+677989152
3628+676843272+672384661+671452036+675667390+682797007+689640399+693789793
3618+695675094+698434522+703861413+710242789+714514680+715120222+711851966
3608+705176299+697224568+691427326+690666572+695657982+703965591+711465257
3598+715927185+717490153+716248010+712778032+709911863+710428455+713659397
3588+715975806+715381722+714161742+714980012+717628780+720196663+721522102
3578+722384999+724251529+726656964+727267180+725760372+725014996+727326053
3568+730637428+729756591+723530878+717214933+716160115+721068153+728032532
3558+732206728+731815420+728202217+723504268+720053588+720768510+727121919
3548+736512464+743125489+743086064+738194309+732298166+726973493+722376857
3538+718681563+715795945+713955346+714334819+717387482+721440388+724364602
3528+725747105+726300936+726674679+727626827+729495468+731006045+730306049
3518+727899709+727032366+729556904+733007132+733479777+730405252+726842403
3508+725490957+726447101+728190683+729151576+728570156+726878511+725727732
3498+726919971+730168628+732621780+732185470+729910521+728005621+727296353
3488+726998444+726139543+724719273+723685260+723855020+724908482+726209045
3478+728034266+731098162+734818031+736409266+733284161+726902407+721906625
3468+721156726+723593219+726440241+727950215+728167390+728220610+729122856
3458+730967224+732901145+733589231+732488957+730847517+730220416+730062264
3448+728324637+724580948+720677222+718215251+717095529+716532652+716488855
3438+717569304+719814100+722556115+725479726+728331195+730147144+730622879
3428+730931794+731543292+731248172+729857075+729541074+731668275+734644577
3418+736151008+735302058+732814833+730530084+729631909+729130620+727380027
3408+724495917+721744177+719906518+719649768+721326336+723539773+724337540
3398+724391362+726399233+730719142+734133940+734159796+732653214+733185636
3388+736178598+738759748+738767513+736859673+734675936+733012484+732031389
3378+731635936+731676868+732053853+732364426+732012845+730865232+729601304
3368+729285454+730303788+731822205+732825311+733361879+733991921+734287418
3358+733046934+730217099+727585895+726994599+728614254+731018634+732471243
3348+732687664+733316122+735728568+738621196+739257646+737072853+734291413
3338+733068945+733702530+735724648+738616824+741049096+741366679+739368005
3328+736597570+734722447+734257039+734794587+735540340+735333115+733265994
3318+729954996+727388545+727051739+728654508+730586696+731269882+730685823
3308+730660043+732573687+735228711+736109096+734318777+731200003+728762907
3298+728541435+730968731+734990429+738887521+741675067+743391436+744274912
3288+744219807+743378847+742756118+743036161+743264267+742246989+740789480
3278+740379705+740363724+738993357+736582946+735298967+735880990+736736876
3268+736929929+737479689+738852317+739915352+740010258+739953345+740431266
3258+740895090+740617911+739747402+738895662+738243307+737648620+737813404
3248+739895678+743396939+746142723+746853197+746096816+744882640+744330242
3238+745632087+748099787+748903961+746693388+743594138+742246536+742618094
3228+742764938+741513674+739452282+737709679+736549401+735549310+734882181
3218+735247481+736506208+737885922+739147814+740204593+740414908+739731270
3208+739512210+740465489+741183954+740515920+739430798+738825255+737908687
3198+735972127+733768791+732251881+731381070+730752385+730561669+731525502
3188+734003379+737335860+739819693+739617443+736608275+733011957+731202867
3178+731199551+730925990+728782582+725407962+722701979+721653493+721669323
3168+722067490+723038408+724175619+723946685+721858079+719546118+718746919
3158+719468700+720687248+721678444+721923888+720782380+718728601+717888018
3148+719638686+722351830+723067657+721044860+717832839+714616294+711737687
3138+710004960+710168312+711345249+711891542+711849629+712569828+714198604
3128+715205781+714187296+711219135+707607364+704831050+703293109+702310733
3118+701657398+702124917+703975541+705921976+706136513+703789424+699956180
3108+697032419+696488012+697481545+698362532+698733110+699143413+699748051
3098+700063373+699615605+698481862+697170896+695809801+694009758+691868083
3088+690160910+689428500+689728369+690972924+692657030+693743584+693370293
3078+691638998+689593963+688173543+687273559+686152404+684666025+683608719
3068+683874063+685639732+688117836+689880264+689825612+687923878+684801185
3058+681212405+678300780+677304232+678189517+679323411+679181693+677836126
3048+676242780+674707628+673013873+671504804+670881471+671133020+671333159
3038+670497777+668597250+666703884+665885463+665963935+665919083+665350025
3028+664598770+663851886+663104701+662602884+662641857+663209708+663960964
3018+664148740+662927177+660456009+658242496+657561797+657905916+657600770
3008+655829598+653541833+652061108+651473732+651052724+650751121+651242536
2998+652408618+652913526+651789431+649583155+647534653+646340453+645774863
2988+645011471+643458303+641454352+639859950+639161838+639212344+639326925
2978+638703894+637437931+636657427+636970940+637525901+637151103+635713872
2968+633991170+632838582+632465743+632121549+630925390+629052188+627380935
2958+626213119+625224033+624358047+623852121+623467711+622387527+620200096
2948+617611257+615654457+614600392+614176294+614184473+614395956+614385893
2938+613826861+612722328+611313592+609761781+608103908+606700486+606318224
2928+607153531+607940555+606931795+603968949+600858693+599451841+599782240
2918+600275313+599602379+597940736+596355607+595455208+594916755+594032225
2908+592605623+591364121+591148265+591671491+591673338+590509668+588863441
2898+587593257+586701150+585730533+584488956+582958742+580962140+578424372
2888+575940992+574572359+574701186+575498161+575867193+575484856+574675745
2878+573868707+573385773+573238251+572995069+572113139+570523750+568814994
2868+567693236+567247579+566981028+566525647+565835940+564832306+563568642
2858+562575448+562355183+562597761+562306260+560848450+558740509+557003447
2848+555842943+554663933+553268087+551999712+550806719+549256152+547446082
2838+546033012+545369387+545081542+544447128+543150032+541641490+540528063
2828+539771116+538885982+537732903+536597615+535620138+534633088+533526821
2818+532406496+531395625+530580973+530036339+529558607+528672606+527357080
2808+526313154+525971599+525747677+524834501+523334213+522062446+521419966
2798+520895949+519762357+517968155+516035704+514303202+512768503+511506535
2788+510665085+510095839+509389511+508339102+507198688+506383094+505945238
2778+505493249+504616030+503194667+501390289+499576978+498151507+497251071
2768+496736590+496336388+495698657+494635207+493441460+492589607+492089637
2758+491540970+490751647+489926479+489235265+488452123+487203046+485550223
2748+484012923+482840584+481648231+480043804+478241122+476811731+476128055
2738+476085879+476128432+475652660+474555364+473218881+471938256+470645269
2728+469232311+467836729+466652781+465643983+464602395+463447469+462355977
2718+461572044+461111687+460673718+459916507+458810768+457589017+456432244
2708+455450207+454801207+454435002+453893949+452837962+451540376+450374520
2698+449173348+447666728+446146088+445105479+444584251+444309371+444098490
2688+443782904+443130172+442118548+441004555+439977175+438937697+437664120
2678+436153996+434820980+434184041+434211292+434207372+433576539+432468915
2668+431450544+430776216+430235238+429587142+428888164+428326908+427893048
2658+427342572+426474927+425333118+424114532+423004459+422104437+421394415
2648+420786800+420302358+420047040+419901327+419520384+418828115+418157179
2638+417653741+416897812+415447201+413526848+411865582+410969028+410755810
2628+410789129+410671345+410248943+409611401+408951093+408353014+407721125
2618+406969681+406204857+405584200+405073714+404494781+403782423+403070102
2608+402551098+402339312+402382129+402413601+402100277+401333228+400282782
2598+399172332+398195421+397557426+397258198+396899606+396074137+394899122
2588+393862810+393236199+392908589+392700535+392549508+392408845+392220466
2578+392013693+391807072+391421003+390640801+389563858+388550424+387849599
2568+387430740+387082626+386590797+385948431+385394864+385113539+384995906
2558+384842428+384638332+384472529+384310684+384030679+383649171+383325142
2548+383101710+382818312+382317890+381583934+380711200+379883960+379245136
2538+378695452+378052030+377412905+377057328+377003770+376954432+376666134
2528+376215916+375929616+376076196+376568439+376987977+376956618+376466297
2518+375839497+375382758+375101621+374808763+374448211+374139485+373934409
2508+373716216+373356117+372860443+372359644+371994683+371795448+371653504
2498+371429997+371099900+370762905+370481693+370177527+369780453+369380816
2488+369091765+368883937+368669890+368392560+367983840+367445462+366973610
2478+366801551+366941987+367200358+367341473+367184264+366705703+366107095
2468+365647002+365417238+365355613+365373177+365365036+365198668+364810603
2458+364313610+363950872+363867877+363941148+363972432+363983211+364058819
2448+364035979+363746512+363427496+363399944+363487312+363247673+362642733
2438+362041751+361717157+361685572+361851224+361998181+361825632+361264790
2428+360639234+360323459+360353914+360515080+360683521+360905407+361175237
2418+361335310+361271123+361093900+361007964+361020516+360896173+360464499
2408+359928270+359742265+360109488+360675455+360875594+360561742+360090454
2398+359800159+359655011+359477185+359282813+359214969+359285715+359320692
2388+359061416+358268022+356849449+354906443+352535307+349667781+346238622
2378+342369384+338233294+333904152+329503170+325331764+321650792+318409523
2368+315391327+312657189+310612569+309514011+309238170+309764863+311542028
2358+315097734+320487424+327370429+335517135+344576942+353180463+359236151
2348+361408468+360096937+357210528+354576082+352430978+350104958+347267735
2338+343967630+340388160+336775258+333386241+330595906+328819909+328092964
2328+327985469+328018223+327965418+327936396+328340179+329536451+331411047
2318+333439799+335153267+336454659+337548714+338673562+339960218+341464199
2308+343128706+344729477+346071727+347221262+348332391+349328713+349991056
2298+350321794+350630256+351231088+352120104+352978288+353516025+353775942
2288+354036424+354464781+354945491+355240385+355277812+355244946+355345392
2278+355514888+355505277+355221577+354818548+354485511+354281113+354157336
2268+354039552+353913061+353873373+354041022+354426299+354922801+355389867
2258+355710278+355870766+356034834+356422523+357045705+357635493+357899443
2248+357814148+357594448+357411232+357262315+357125874+357060367+357095533
2238+357209623+357467844+357977915+358653450+359236604+359597155+359821567
2228+359995058+360085140+360082803+360116725+360323384+360653255+360903937
2218+360951993+360893045+360948601+361268070+361803507+362367966+362839405
2208+363250462+363632196+363901610+364019432+364130319+364408855+364843017
2198+365256185+365499744+365599888+365742247+366083878+366551697+366900376
2188+367019216+367081067+367317389+367747442+368212586+368582334+368837012
2178+369020680+369228394+369595429+370141457+370608485+370664080+370378119
2168+370261390+370679834+371474510+372278495+372918487+373373869+373634050
2158+373746519+373826349+373951596+374117587+374257571+374306418+374326206
2148+374503692+374934764+375509550+376045176+376392913+376461284+376358199
2138+376424724+376857793+377390215+377631135+377622391+377743869+378151835
2128+378606463+378830121+378812030+378740907+378772680+378913117+379073567
2118+379192784+379287916+379406416+379563399+379735910+379924176+380184206
2108+380527608+380821974+380917332+380861437+380839199+380910736+380972323
2098+380979258+381029312+381185692+381379272+381542172+381700324+381878262
2088+382006939+381976146+381772652+381573984+381627580+381952250+382279709
2078+382393196+382351510+382279784+382177830+382047834+381995067+382112172
2068+382376989+382644595+382709046+382492700+382162264+381925414+381810080
2058+381737864+381653210+381504482+381286176+381144533+381246638+381506781
2048+381627392+381490347+381358467+381537499+381922323+382087523+381828397
2038+381378292+381041072+380853408+380706715+380608342+380655154+380827515
2028+380988832+381087431+381186822+381298651+381417679+381728215+382462057
2018+383453480+384133009+384139869+383715469+383356576+383304940+383456796
2008+383596215+383628403+383612158+383594632+383528673+383398074+383245011
1998+383081960+383053918+383513257+384461147+385143805+384800968+383593765
1988+382257697+381267820+380699780+380419812+380180399+379816870+379395297
1978+379058755+378841316+378674006+378475224+378300187+378409265+378959967
1968+379591101+379632901+378896118+377903301+377166858+376686600+376327821
1958+376195073+376319114+376393629+376147507+375708483+375394744+375341901
1948+375540306+376166239+377441964+378844595+379041228+377437630+375131887
1938+373499644+372782988+372464538+372180537+371924012+371751991+371577255
1928+371410473+371728547+372922633+374340943+374977354+375091483+375508005
1918+375613917+374086605+371418614+369567500+369523552+370548670+371237811
1908+370842546+369717208+368684552+368163739+367989720+367876986+367868920
1898+368274135+369089993+369779737+370148053+370865915+372130898+372644361
1888+371334677+369155877+367620537+366964903+366666429+366462521+366304633
1878+366131029+365972199+366039515+366978811+369858737+374914787+379903672
1868+381101528+377658913+372682467+369151844+367634219+367281432+367234770
1858+367088831+366866153+366815986+367072511+367674133+368802638+370724574
1848+373779197+378134799+382380117+383176414+379404870+374489558+371757644
1838+371368900+371690328+371932794+373257027+377057969+382282385+385540916
1828+385387401+383833027+382190833+379756489+376697945+374624190+374241891
1818+374674056+374988812+375479963+377101352+379832738+382079381+382273000
1808+380804448+379548737+380147570+383092438+387361841+390692174+391374493
1798+390220698+389940767+392748026+398291231+402592784+401351772+396120271
1788+391987347+391257575+392799964+394910279+397046224+398817133+399568652
1778+399929166+402031679+407546202+415597738+421839734+422087099+417669835
1768+412463059+408689217+407699415+410088003+414023991+416410053+417011186
1758+417681067+418524175+419240718+421796992+428145653+436487673+441857500
1748+441934955+439286074+437203424+437194265+439228633+441998879+443784788
1738+445306560+449955548+458894631+466479893+465966166+460278679+454915109
1728+451486403+450406746+451846502+455055734+459921106+468329500+481827339
1718+497272480+506062382+504174292+497480986+492307868+491260738+495041365
1708+503275665+513693175+522794743+530268101+539852528+553092184+564768797
1698+569962042+570314754+567292205+562599797+560818787+564580380+572592869
1688+583174975+597493119+615448702+628145005+627710542+621665520+618962778
1678+622255458+630602680+640340283+647882163+654370205+662281607+669009287
1668+670050838+668162900+669648752+675789509+682166739+684686906+685369111
1658+689205445+699730864+718036370+738310849+745211531+740028802+738827818
1648+744413463+748025310+742059213+731860197+725357456+724522527+728753484
1638+736683053+743383596+740123783+726831096+714004495+707390189+705675553
1628+705080263+703338037+700701255+696744159+690199280+683264902+680121931
1618+680774059+679328612+671388339+661319282+654370431+650875502+648500068
1608+645245004+640970551+636729643+633264640+630467709+627930958+625652994
1598+623957694+622781360+621502318+619676758+617496639+615308529+613158224
1588+610958355+608787018+606848008+605206154+604011954+604339187+607973686
1578+615039831+620981995+619558860+613488736+610655245+612857036+615333066
1568+613677040+609877945+607737401+609246961+616982421+634065195+655980286
1558+662727566+649626273+634633198+625293611+620912455+619743847+620317277
1548+622789388+629219611+640987210+657031109+674720669+688061525+686687163
1538+673398924+663672101+663448744+668404574+671433116+671706903+674171437
1528+680993571+689960772+698991293+708677033+718252942+723698527+724212330
1518+723211485+721298746+717499651+714257552+715632593+723596310+737815515
1508+754342461+761120647+750248321+734976333+727102999+727583256+733500657
1498+740187104+742501930+740034230+738364672+742030944+750013582+756310380
1488+755662397+749786833+743946548+741145886+741349492+743388647+747051753
1478+753034812+761266210+770447947+778059857+779897742+774466629+767365733
1468+764777120+767619092+772026971+773941670+774835850+779528597+790040221
1458+801926056+804679228+795790349+784911917+778086466+775567581+775595850
1448+775477802+773215064+769366443+765726705+763322552+762911871+765454501
1438+770295675+773410680+771318758+766932589+764880092+765558227+766249705
1428+765570966+765158703+766434616+768743111+771347780+774522487+777040015
1418+775558686+769795818+763520354+759354073+757238104+756033201+755254958
1408+755574050+757305194+758949951+758973998+758637418+760319640+764118132
1398+768201492+771268629+772464864+770696858+766986336+764743349+765853724
1388+768456283+769115422+767571149+767213386+770439881+776452263+783240098
1378+790168370+797826338+805559839+810771816+812331090+812702346+814413816
1368+817365091+820846753+825274231+830121059+832468375+830159428+824831212
1358+819595716+815858810+813161044+810706762+808477268+806814645+805575594
1348+804341743+803117768+802421466+802935268+805009627+808042691+810507904
1338+811205187+810481370+809783560+810214970+811742961+813643865+815506928
1328+817486983+819665368+821805610+823954295+826700532+830448593+834773251
1318+838818694+841995135+843960868+844584426+844496983+844980860+846775476
1308+849540558+852564953+855315562+857311674+858308750+858816824+859741684
1298+861238391+862456335+862642378+861894590+860590107+858722370+856047294
1288+852494094+848374099+844236313+840329422+836494445+832852295+829918960
1278+827753993+825920028+824457921+823869415+824116743+824629867+825186336
1268+825925003+826721789+827347006+827990692+828991386+830240087+831312168
1258+832010882+832444177+832831640+833559452+835054350+837256405+839563768
1248+841548196+843410203+845530544+847880121+850116777+852046778+853665981
1238+854814800+855298827+855555729+856624342+858973392+861760108+863813661
1228+865072237+866380941+868200283+870367888+872808602+875497624+878024952
1218+880176350+882466074+885249022+888048252+890304883+892028263+893579170
1208+895549576+898562966+902538606+906683176+910438550+913657355+916073495
1198+917615958+918810686+920086147+921316002+922473943+924065254+926534236
1188+929616223+932503801+934537151+935797310+937163305+939747998+944021924
1178+949088942+952909973+953995999+953173960+952895424+954422661+956678840
1168+958429885+960115122+962380121+964482295+965592067+966249774+967377637
1158+969117300+971331265+974164342+977463806+980074732+980519560+978945587
1148+977654296+978579985+980978410+982787499+983387689+983620167+984041476
1138+984816779+986778893+990984071+996903808+1001961404+1004134361+1004587482
1128+1005812211+1008036353+1009607838+1009930774+1009957761+1010277079
1120+1010689267+1011445120+1013266271+1016069270+1018696630+1019919550
1111+1019304207+1017538689+1016087211+1016170809+1018090861+1021255241
1103+1024598803+1027215459+1029123675+1030762854+1031112776+1028681334
1094+1025096324+1024399720+1028424584+1034709547+1039502702+1041743428
1085+1043006828+1044583968+1045929458+1046223598+1046433763+1047856822
1077+1049393255+1049037302+1047903483+1049268046+1053454981+1057304582
1068+1059226141+1060755865+1062383359+1062117864+1059185736+1055878131
1060+1054739488+1056327482+1059751025+1063661157+1066686382+1068058860
1051+1068524418+1069467294+1070706648+1070764239+1069210996+1067149679
1043+1065971536+1066349877+1067732004+1068927183+1069671278+1070929326
1034+1072861589+1073741823+1072134456+1069093325+1066947128+1066777142
1025+1067958074+1069108854+1068691992+1065659832+1060624776+1055987962
1017+1053745125+1053630394+1053666728+1052987613+1053363241+1056251648
1008+1059493822+1059335897+1055963840+1053913679+1055786768+1058621729
1000+1058058928+1054087510+1050191850+1048340397+1047232434+1044950323
991+1041622742+1038843563+1037549634+1037102016+1036091673+1033934847
983+1031328670+1028913058+1026426889+1023808048+1021647076+1019790571
974+1017140522+1013196090+1008222169+1002178805+995254981+988825812+984355366
964+981717077+979314506+975754748+971012475+965867889+960869167+956475309
954+953541145+952487005+952085145+950240023+946723082+943943300+943804447
944+944925375+944457555+941954651+939391216+938078893+937719472+937825911
934+938322075+939120595+940167649+941248323+941469268+939993366+937343241
924+935045904+933937790+933610181+933350264+932859076+932104051+931145269
914+930338985+930252597+930941889+931722996+932259413+933090724+934128129
904+933706594+930625436+926275450+923191050+922433312+923383199+925066702
894+926721560+927728812+927645892+926265801+923866095+921375930+919774066
884+919249936+919168900+918777065+918082648+918180870+919996518+922416954
874+922795597+920200426+917074867+916280644+917507861+918133380+917016522
864+915392043+914218347+912986834+911236693+909515499+908817614+910021160
854+913196998+916744996+918284294+917199398+915339049+914662572+914976538
844+914579275+912900295+911439772+911959982+914475324+917286464+918851693
834+918695804+917298752+916041382+915948889+916406532+916289087+915984996
824+916595740+917937688+919042636+919759819+920614498+921682282+922255788
814+921611800+920479715+920951229+923758148+926815410+927700393+926463678
804+924929281+924566015+925906003+928443055+930654232+931293018+930471054
794+929264869+928817251+929644492+931430439+933490927+935634711+937687661
784+938310541+936389887+933403333+932016156+932502972+932639488+931134866
774+929115236+927725043+926444758+924806257+923892780+924838672+927179882
764+929286126+929627606+927934831+925673526+924815379+926007015+928570828
754+931663067+934389629+935883848+936370438+936920801+937612505+937488728
744+936687268+936743729+938564880+941109847+941976135+939971505+936498588
734+933398056+930892891+928918564+928438683+929780857+931525872+932355374
724+932362912+931718850+930163043+928614700+929149987+932744721+938484297
714+944330160+947914568+947793354+944987264+942166474+940994211+940964360
704+939723876+935222071+927569304+918622608+911060525+907415360+908015550
694+909844164+909521982+907208437+905065029+903373385+901459288+900250389
684+900147795+898433611+892618880+885524467+882834993+885676588+889125157
674+888560547+883913255+876182468+866039989+858665532+860494899+866316414
664+867434177+863843663+860473868+859986675+860706345+860257220+858386167
654+855970555+853383299+851083851+850529945+852574602+855497006+856358847
644+854202398+850802224+848199288+846498296+843940364+838968402+832460158
634+827497092+826990526+831201055+836755718+839426799+837896547+833597444
624+828353430+823675759+820740314+818995751+816448297+812534772+808569460
614+806060751+806161235+809211261+813598636+816488098+816906015+815887380
604+813989114+811063469+808309618+808695121
##END=
