##TITLE=<SNM>
##JCAMP-DX=4.24
##DATA TYPE=INFRARED SPECTRUM
##DATE=3/5/2025
##SAMPLING PROCEDURE=Instrument type and / or accessory
##ORIGIN=Admin
##XUNITS=1/CM
##YUNITS=ABSORBANCE
##RESOLUTION=4
##FIRSTX=4497.3318
##LASTX=599.83466
##DELTAX=-1.4281778
##MAXY=1.7061858
##MINY=0.17516918
##XFACTOR=1
##YFACTOR=1.5890094e-09
##NPOINTS=2730
##FIRSTY=0.19495824
##XYDATA=(X++(Y..Y))
4497+122691687+123435587+124430667+124859000+124672198+124111321+123286051
4487+122377554+121787119+121924614+122959156+124675930+126435382+127411154
4477+127091658+125707171+124229357+123735596+124483482+125614370+125945860
4467+125082685+123643433+122538118+122300301+122938994+124024906+124982298
4457+125535813+125719765+125434506+124499480+123235318+122279680+121762222
4447+121387088+121245251+121651397+122246811+122200673+121403199+120689166
4437+120791898+121644635+122656830+123188064+122840594+121688926+120227280
4427+118965706+118191075+118036175+118416954+118899800+118974924+118514454
4417+117784338+117204660+117199858+117846137+118544997+118488871+117574739
4407+116456080+115715190+115434508+115468239+115716531+116112277+116515056
4397+116717904+116633599+116400752+116164876+115881296+115534239+115343863
4387+115426734+115440725+114916337+113853325+112782201+112293420+112568109
4377+113300803+113975112+114212657+113997759+113664168+113554112+113659301
4367+113793514+113976969+114200757+114000704+112906098+111297036+110237981
4357+110383278+111396289+112478553+113160036+113450030+113498165+113386581
4347+113189810+113067309+113232853+113727758+114180717+114091770+113536173
4337+113163562+113276290+113432212+113228830+112898418+112797036+112911669
4327+113192248+113745069+114382355+114592302+114281939+114022657+114285324
4317+114846070+115140472+114857107+114068279+113108730+112508280+112771342
4307+113900025+115237230+116050291+116210648+116131885+116177479+116297119
4297+116155151+115592512+114959324+114798610+115242369+115979339+116702674
4287+117252420+117452679+117164645+116521395+115919707+115686607+115830047
4277+116218675+116815478+117486833+117837716+117704141+117567274+117947200
4267+118646444+119078237+119063355+118831952+118517951+118201822+118225247
4257+118876749+119857960+120477072+120342428+119700050+119218002+119399065
4247+120042437+120522544+120685293+120932460+121393437+121718194+121660427
4237+121246798+120599450+120001260+119738902+119737842+119812807+120094905
4227+120726208+121458958+121892599+121831410+121405909+121097994+121360418
4217+121976867+122254482+121972769+121677279+121952663+122725840+123353204
4207+123384948+123188242+123447740+124114659+124527435+124509139+124472820
4197+124512075+124311421+123940367+123928185+124496761+125214404+125478675
4187+125187021+124850945+124951051+125296299+125351955+125062289+124854396
4177+124943409+125156994+125345513+125549017+125841027+126228652+126654613
4167+127104289+127729656+128603802+129283250+129065089+127889620+126601638
4157+126115079+126599622+127545198+128309448+128563432+128425637+128169280
4147+127788463+127077779+126162896+125586237+125721547+126380457+127124751
4137+127718497+128155354+128465642+128664466+128834042+129122330+129528691
4127+129736725+129420698+128728563+128184612+128126293+128468511+128941313
4117+129353292+129698933+130088143+130479828+130568859+130153420+129516266
4107+129167661+129294775+129774535+130595736+131745500+132732778+132941093
4097+132563681+132449423+132878010+133264115+133194543+132951615+132855363
4087+132797625+132603901+132366441+132284780+132462908+132863156+133322060
4077+133718059+134063972+134240900+133922417+133098469+132311581+132009725
4067+132057072+132151561+132301669+132640559+133093705+133434132+133520753
4057+133405990+133229634+133090545+133135642+133604908+134535208+135588139
4047+136401359+136891594+137061010+136822255+136203566+135499305+135060694
4037+134968877+134990202+134910370+134835443+135012070+135414943+135762310
4027+135962663+136248372+136761329+137317658+137749639+138125682+138439017
4017+138500366+138321065+138160567+138081129+137876734+137467156+137049410
4007+136911062+137250138+138035713+139000916+139843929+140313495+140186813
3997+139538152+138874402+138541881+138287315+137864271+137603957+137929511
3987+138806696+139971540+141118688+141712883+141336990+140421601+139979811
3977+140470712+141397269+141975532+141819779+141074819+140187788+139592308
3967+139537992+140105546+141124830+142108582+142662979+142908486+143110133
3957+143171135+142964714+142836165+143334653+144598740+146109788+147023123
3947+147030147+146768511+146877535+147025627+146442863+145052590+143565418
3937+142928910+143900068+146427634+149239126+150633394+150167372+149171447
3927+149181313+150285436+151190585+150974374+150289703+150217186+150732637
3917+150811766+149672138+147639056+145774509+144917017+145225832+146642335
3907+149519105+154199392+159776679+163987315+165209222+163526911+159707416
3897+155070959+151818043+151750937+154413615+156703016+156128654+154620486
3887+155416629+158144294+159889211+160242917+160932080+161158793+159088285
3878+156434150+156200365+158647386+162285630+166077048+168606010+168194932
3868+166287688+165947261+167069465+166772681+163949899+160792390+159856952
3858+162576355+169662083+179772888+185782437+180953646+170819359+162692469
3848+158814852+159008688+162155543+166703268+171486635+175988840+179244870
3838+179673241+177468801+174862379+172917588+170959180+168826066+167596957
3828+167818026+169020371+171553516+176463143+182117355+184107797+182156084
3818+180129557+178330663+174277758+168987662+166182584+167769000+172859052
3808+178219969+180962892+182530946+185743989+189058648+188623507+185343789
3798+182551014+180285845+177403008+174811196+174100652+175331693+177485794
3788+179872835+182354084+184830888+187509311+191052260+195241234+198319107
3778+199297383+199828945+202297515+207780548+215746292+224132605+230626866
3768+235019447+238629989+242337271+247221598+254919048+265573962+276547848
3758+285142719+292490439+302296396+317037824+335524308+352309837+363496014
3748+372414039+383182535+394287877+400674651+403360483+408439451+418796870
3738+433424903+449273231+462986157+472386681+477425475+480037861+482570312
3728+486333823+491027595+495018457+497060495+497624504+498131272+499789426
3718+503120552+508417607+516339089+526780306+536949309+543263950+546107964
3708+548540412+552788559+559977347+569121448+576693481+580651709+583137459
3698+586790239+592106949+598399797+604982452+611470242+617007777+619020369
3688+616231008+612175778+610560723+611622160+613297457+614286648+616346541
3678+621551357+627006632+626734830+622125794+619321092+619098654+617912682
3668+614893269+613448362+616352880+622683464+629037267+633764536+638142244
3658+642134044+643236555+642439005+645538353+655992249+670203277+678614122
3648+676121095+668244701+661178685+657189511+656762265+658786111+660477987
3638+660044665+658830523+659775489+664867174+674289904+685989675+694338327
3628+694182959+689027581+685512541+685808499+688555023+691296595+692759283
3618+694671721+699368870+706147405+711605267+712672443+709744518+705646038
3608+702318176+700300932+700277976+703068162+707835305+711869717+713621235
3598+714501533+716394392+719286606+722083845+724440334+726883022+729340414
3588+729905248+726841460+722043258+718768736+717656472+717626914+718323485
3578+719355101+719263275+717981164+718039680+721239557+726312111+730707749
3568+732399851+730050564+724657520+719385184+716106761+714303478+713625812
3558+715727229+721587130+728316526+731100410+728711137+724933973+723187030
3548+722514916+720445458+717631265+717232228+720938797+727004781+731463437
3538+731179332+726400486+720091133+715274701+713786657+715848688+719570486
3528+722006498+721967112+720890708+720109888+719280905+718052584+717020068
3518+716779925+717531037+719579414+723201585+727385138+729348441+727827163
3508+725567226+725297075+726119682+726461478+727183706+728640917+728437235
3498+725441115+722327363+721689083+722734353+723056119+721750151+719898629
3488+718586734+717516708+716308342+716082979+718113051+721689458+724986712
3478+727524452+729665106+730245469+727570215+722853261+719791949+720591974
3468+724146026+727401868+727729785+724957829+721802890+721075485+722179572
3458+722080544+720005084+718794693+720876379+725441341+730126936+733306932
3448+733996451+731807709+728087711+725043353+723807005+724452187+726362075
3438+727852895+727329172+725336536+723709478+723048766+722818076+722838707
3428+723212763+723984655+725510735+727912162+729982895+729810647+726936812
3418+723542030+722700893+725151759+728354936+729201850+727352804+725532641
3408+726605444+730579013+734888152+737156266+736736523+733923455+729322784
3398+724296593+720472166+718893796+720370812+725229481+731743491+736306052
3388+736329083+732635267+728540464+726341294+725497756+724300194+722526469
3378+721625540+722551301+724330428+725294599+725456570+726162819+727529779
3368+728188840+727915988+728432433+730806327+733700267+734558509+732277642
3358+728458616+725507584+724285865+724546939+726392534+729525191+732036299
3348+731914014+729364421+726331691+724280088+723191007+722366674+721693435
3338+721909420+723692898+726674163+729434566+730881498+731109112+730194080
3328+727480340+723002328+718198725+714593134+713207269+715133286+720795507
3318+728419605+734541479+736608012+734716579+731197937+728850076+728967634
3308+730597243+731560590+730610897+728724716+727915538+728819092+730134288
3298+730296333+729089168+727647637+727021211+727108535+727270506+727389039
3288+727738563+728197767+728282691+727944421+727927316+729072664+731066275
3278+732443663+732507056+732279442+732680430+732833023+731229146+728197992
3268+726343995+727886504+731996312+735623959+736555347+734995732+732600233
3258+731058848+731326749+733191399+735287940+735774152+733714972+730155519
3248+727212740+726069042+726379255+727160300+727678996+727969628+728520133
3238+729314082+729936532+730541803+731815887+733685038+734766993+733942661
3228+731940497+730439999+730068119+730218011+730472483+730935964+731204239
3218+730641356+729440567+727800980+725045379+721160409+718045382+717692332
3208+719756614+721797714+722056387+721615263+722554977+724594052+725525889
3198+724738618+723855544+723552758+722736453+720990787+719719478+720530082
3188+723166175+725360318+724908315+721791262+717997743+715709149+715820705
3178+717589628+719376407+719871321+718696415+716179381+713415452+712097856
3168+713070280+715085573+715617248+713246280+709049447+705287437+703284598
3158+703163364+704513819+705927143+705157801+701870299+698832244+698240477
3148+698743118+698041671+696637500+696591887+698142574+699731372+700248943
3138+699778335+698829468+697906558+697594620+698292917+699456795+699360392
3128+696573057+691922722+687971284+686369282+686525401+686842966+686606274
3118+686410544+686916261+687555291+687277488+686557435+686988507+688527040
3108+689208907+688240984+687216946+687591451+688938231+690013059+689983876
3098+688489980+685599415+682003127+678777368+676700183+675940294+676188014
3088+676747896+676731467+675705853+674171520+672840871+671616376+670235386
3078+669600483+670810499+672985511+673865809+672671173+670606966+668705931
3068+666884492+664912187+663016928+661519656+660679794+660711603+661372839
3058+661743519+661003435+659498061+658386998+658221877+658655349+659415238
3048+660498168+661408024+661256182+659668284+657044045+654354312+652730480
3038+652500390+652665136+652065192+650802886+649640734+648648805+647624241
3028+647088290+647494229+647989369+647238557+645141191+642678397+640676158
3018+639591653+639712962+640854183+642131793+642342228+640901672+638600849
3008+636841003+636002491+635397746+634639507+633905426+632993469+631218244
2998+628494864+625954948+624917556+625327846+625881090+625791665+625412620
2988+624943476+623959461+622518530+621380384+620822602+620247640+619116847
2978+617568935+615981563+614436203+612885516+611550740+610814857+610867860
2968+611468592+611787356+610979941+609427567+608544905+608805229+609113416
2958+608682082+608075536+607676686+606718591+604781770+602922109+602138513
2948+601797654+600842673+599527365+598608356+597887703+596841871+595724131
2938+594984422+594465501+593896428+593443226+593227915+592780151+591527111
2928+589702447+588154385+587193102+586291686+585034069+583684551+582648847
2918+581832129+580752575+579293939+578154030+578170760+579129868+579685624
2908+578765378+576632152+574331291+572619534+571682820+571402053+571448904
2898+571286896+570404009+568677660+566564202+564872813+564185920+564493019
2888+565356475+566139208+566103948+564830614+562725633+560768295+559687540
2878+559458200+559305007+558284607+556282518+554208709+552973598+552678353
2868+552785483+552593916+551670106+550168671+548574096+547103682+545702700
2858+544497973+543753538+543407353+543026996+542332788+541493676+540661692
2848+539557944+537967458+536228205+534753853+533632024+532970638+532868196
2838+532888827+532394100+531440056+530600232+530017581+529278397+528104542
2828+526650482+525204337+523977104+523078876+522413251+521703813+520803935
2818+519860431+519166373+518944686+519048628+518814074+517657736+515858654
2808+514270194+513338956+512806081+512229956+511426668+510469173+509476418
2798+508482988+507522305+506626028+505590398+504110344+502359988+500958593
2788+500174547+499652063+499007894+498236151+497462533+496640939+495590531
2778+494230735+492703380+491242606+490015635+489145465+488728723+488690837
2768+488704716+488350654+487389333+485974472+484546519+483344193+482215425
2758+481113965+480353738+479975144+479308769+477711043+475425487+473253287
2748+471646972+470482869+469509508+468650928+467840925+466882380+465656460
2738+464291375+462984057+461783531+460622091+459493173+458563399+458016645
2728+457723725+457246290+456310326+455070902+453773036+452429483+450990240
2718+449587007+448474481+447823635+447555697+447319868+446715798+445636694
2708+444351807+443173825+442139921+441150355+440226732+439340658+438241786
2698+436866423+435620735+434829937+434232731+433414738+432419208+431580359
2688+431005059+430499904+429897597+429238199+428568560+427733800+426590103
2678+425317257+424226749+423368320+422606856+421943781+421482476+421169413
2668+420765762+420075530+419135552+418145649+417249709+416469076+415800113
2658+415238092+414707805+414070350+413218823+412174041+411094337+410114673
2648+409177734+408186480+407293841+406750125+406442426+405919266+404943316
2638+403734651+402676103+402050276+401925516+402012841+401843480+401328573
2628+400820117+400479634+400045449+399329447+398450425+397506208+396451149
2618+395318142+394286114+393531739+393077861+392730738+392261893+391709775
2608+391276228+390892758+390244500+389320690+388576142+388367434+388516351
2598+388587058+388349316+387802937+387006100+386120438+385448624+385194640
2588+385205968+385066054+384497918+383654531+382934666+382533340+382329057
2578+382187718+382105869+382017607+381715797+381075117+380245983+379527618
2568+379032516+378605721+378180764+377972130+378087475+378247457+378172474
2558+377961402+377849508+377851721+377789078+377490006+376959044+376448601
2548+376242367+376300659+376304823+376101328+375888043+375901959+376099452
2538+376192741+375910549+375245299+374501464+374036821+373931454+373984419
2528+373999273+373961687+373970015+374097626+374301046+374408401+374213833
2518+373622329+372759924+371964100+371578191+371678494+372008850+372168120
2508+371895005+371301138+370796321+370650667+370698005+370554227+369994382
2498+369103994+368247290+367833623+367930101+368184422+368233486+368061538
2488+367885575+367817606+367750762+367564035+367300636+367024520+366651440
2478+366142985+365703736+365528524+365505830+365395061+365159457+364933344
2468+364782889+364680748+364627595+364600512+364438242+364018536+363527223
2458+363307148+363446387+363697445+363761776+363529286+363116632+362751579
2448+362569990+362512712+362432964+362247362+361963069+361616397+361231876
2438+360876763+360711417+360847430+361127596+361191439+360826462+360166163
2428+359503314+359012713+358760342+358848904+359291192+359807600+360060758
2418+360048792+359986487+359921407+359744732+359452637+359177497+359042647
2408+359083233+359245954+359427092+359514042+359409237+359093773+358694586
2398+358423835+358414532+358601822+358743762+358626542+358295924+357985599
2388+357795870+357544362+356916885+355675848+353733588+351097908+347837977
2378+344164117+340413773+336782600+333209531+329738190+326726842+324360487
2368+322273587+320118455+318232573+317295522+317619501+319135003+321738986
2358+325348441+329816812+335109553+341458030+348790821+356003878+361415152
2348+363884098+363470244+361515306+359689704+358373608+356624153+353579120
2338+349233445+344314384+339736032+336002342+333059601+330682706+328888726
2328+327862362+327492507+327267481+326915257+326903404+327861574+329682599
2318+331599389+333027904+334026811+334982880+336106622+337335618+338558388
2308+339713788+340731787+341572587+342290352+342934258+343445002+343747712
2298+343905894+344110702+344510640+345085789+345709290+346270185+346677175
2288+346836557+346758085+346624210+346608643+346639514+346475818+346039946
2278+345542105+345201472+344987699+344756596+344520392+344434231+344556665
2268+344723700+344699243+344434681+344114678+343949519+344016063+344272635
2258+344598902+344843546+344921680+344841633+344663158+344510452+344520017
2248+344657531+344724675+344649879+344617882+344821827+345213925+345586855
2238+345825910+345974265+346071830+346081695+346032293+346081207+346351433
2228+346814126+347333460+347729759+347884078+347879051+347929503+348133748
2218+348426630+348733579+349007819+349206888+349365145+349580981+349877877
2208+350205457+350564095+351014372+351610040+352362764+353177832+353848333
2198+354251122+354509682+354844614+355317059+355808860+356216375+356584729
2188+357025441+357556815+358107471+358644772+359204092+359814764+360456007
2178+361062441+361577611+362024062+362471938+362967940+363575611+364371623
2168+365302598+366221832+367151719+368320661+369917298+371981730+374497338
2158+377429577+380703874+384192958+387703272+391058929+394268296+397478676
2148+400680653+403634760+406227978+408734772+411529647+414675621+417978952
2138+421285508+424541050+427735826+430953482+434333484+437919007+441651834
2128+445483051+449388726+453287125+456960910+460108196+462537381+464218117
2118+465064468+464858272+463509430+461265247+458631518+456141679+454100691
2108+452506042+451291000+450576536+450564345+451219730+452084461+452382257
2098+451420299+448977123+445249923+440479741+434822360+428570886+422238464
2088+416253991+410682396+405352257+400170884+395236782+390745341+386875001
2078+383731990+381352882+379674097+378441199+377286962+376038498+374857777
2068+373990758+373451244+372996465+372386994+371644097+370968794+370434231
2058+369951545+369517173+369220577+369025259+368810436+368595275+368500299
2048+368559865+368765273+369232242+370149263+371575453+373458596+375907848
2038+379289201+383918493+389708512+396179422+402770104+409057175+414668494
2028+419154120+422125707+423416409+422979561+420914079+417726318+414132168
2018+410433813+406464520+402171023+397843091+393772632+390040593+386625555
2008+383512553+380693334+378125436+375694000+373277795+370901838+368730951
1998+366900548+365514532+364744628+364598412+364571742+363944828+362533793
1988+360788538+359224498+358110434+357505914+357249904+357007698+356542905
1978+355912652+355338440+354944167+354674466+354478923+354483162+354787298
1968+355116528+354992068+354357952+353676910+353279710+353017024+352670164
1958+352334144+352180726+352105855+351849545+351358231+350865568+350631877
1948+350786795+351478340+352795749+354208847+354578964+353426339+351659966
1938+350399949+349850494+349650675+349605550+349732523+349961338+350104928
1928+350166521+350532849+351492932+352631640+353336389+353771886+354369017
1918+354671502+353908875+352432422+351347728+351170941+351561239+351877153
1908+351743090+351283060+350855777+350612634+350444249+350263711+350221999
1898+350606970+351388990+352045050+352330318+352806552+353765210+354284731
1888+353468464+351897934+350672726+350055527+349776598+349712118+349832827
1878+350045699+350273651+350553930+351274845+353183683+356460006+359576534
1868+360113011+357709221+354561034+352564346+351875240+351755918+351617505
1858+351308680+351000868+350921196+351094045+351477140+352235491+353712582
1848+356291171+359940875+363191916+363460229+360378510+356743286+354801702
1838+354522923+354832423+355255129+356515409+359435720+363177361+365422144
1828+365320190+364306767+363196867+361446774+359226261+357751195+357612631
1818+358248060+358920625+359651293+360984944+362924240+364491582+364799769
1808+364248176+364034928+365019993+367353188+370414050+372876994+373679345
1798+373351841+373764344+376432358+380917235+384214751+383461126+380127225
1788+377922278+378332756+380363279+382740436+385129934+387243692+388498721
1778+389314801+391418693+396229499+403080767+408639683+409814814+407531696
1768+404503467+402408915+402452802+405148312+409003273+411580361+412667530
1758+413701659+414951436+416366972+419292684+424834721+431411561+435520356
1748+435838709+434343012+433351608+433967644+436184669+438929542+440849783
1738+442577520+446684402+453894833+459958229+460085803+456447578+452966522
1728+450867018+450602081+452358851+455487795+459768726+466475503+476516407
1718+487288429+492764935+490812435+485952828+482575601+482311715+485368826
1708+491205283+498146914+504085887+509307846+516398056+525768196+533337303
1698+536370145+536654100+535008774+532152870+530992668+533312997+538500858
1688+546060401+557202502+571290497+580875197+580354475+576182587+575335674
1678+579479241+587289729+595617151+601926616+607371200+613876995+619684982
1668+621825822+622286227+625283959+631394468+637305083+640328960+642238098
1658+646758272+656414693+671783673+688405581+695531464+694310795+696067265
1648+702818417+708262025+706820644+702067830+699689660+701384388+707120504
1638+716218092+725206599+727316044+721293422+714431914+711725526+712900732
1628+715374779+717274840+718381627+717949580+714876114+711087621+710048054
1618+711884571+712254800+707694340+700968020+695808592+692606014+689884473
1608+686554809+682996332+680338558+679115113+678825232+678601669+678147116
1598+677797517+677692938+677430064+676714587+675701351+674445873+672731865
1588+670652804+668820638+667752937+667303035+667071970+667526523+670048284
1578+675003055+679448507+679313544+676626062+676912643+681488782+686843491
1568+689469080+690705429+693549105+699282971+709180509+725417559+745952344
1558+758141479+757277385+754769804+756667613+762482877+770397307+778965996
1548+787872205+798144324+810561523+824454837+838457007+848738354+847830223
1538+837889848+830378956+829377349+831348304+831577719+830463955+831855897
1528+836947357+843724166+850577947+857950500+864864147+867996280+867513444
1518+867172398+867881723+868325173+868922191+871489114+877352016+886944368
1508+897736159+901218490+893160320+883751769+880555418+883071627+888274868
1498+892472301+892288199+887988138+884101893+884422758+888694236+892770210
1488+892562476+888964012+885721899+884879412+886102706+888207799+890617853
1478+893437973+896680537+900043884+902508329+901872975+897695047+893708199
1468+893573236+897249722+901320294+902698357+903009995+906106567+913036270
1458+920121266+920573643+913658120+906049626+902103515+902475694+905466937
1448+907547948+906330655+903184119+900721025+899663452+899707189+901391714
1438+905279684+909448459+910413831+908264475+905960801+904847713+904365552
1428+904159844+904718301+906073183+907580208+909229172+911549951+913530659
1418+912698975+909123242+905707230+904078446+903488255+902473144+900788394
1408+899576578+899464496+899432912+898604529+898119367+899371695+901717531
1398+903638672+904827607+905119964+903307304+899475974+895950206+894199062
1388+892900297+889844461+885520542+882957220+884027547+887934647+892878690
1378+897934815+902796485+906541765+908127712+908177226+908662838+910683532
1368+913760974+916966402+919977375+922829529+924939198+925096218+923083626
1358+920571543+919548855+920306118+921611336+922736653+924019364+925402829
1348+926174797+926436545+927403643+929838304+933050259+935613881+936713016
1338+936930202+937623397+939304846+941105878+942150097+942764070+943551867
1328+944046032+943541740+942620630+942533380+943593954+945207884+946883856
1318+948365899+949328870+949610124+949383185+948890522+948442870+948606867
1308+949733459+951241234+952114555+952246517+952417940+952945189+953343701
1298+953306866+953088854+952844511+952245317+950811963+948309258+944968417
1288+941654883+939362387+937994602+936206773+933202477+930114381+928553192
1278+928304046+927588720+925353615+922219007+919291532+916946672+914863935
1268+912742937+910619314+908648659+906844625+904992879+902720563+899705914
1258+895964385+891879934+887837495+884015843+880719415+878512818+877719844
1248+878026756+878727378+879255002+879458009+879482841+879531455+879776624
1238+880383395+881328361+882204158+882669064+883061800+883987185+885356096
1228+886498518+887281513+888415983+890519051+893439023+896551800+899261639
1218+901079776+901671918+901315643+901087953+901963150+903751504+905462136
1208+906666300+907962140+910060481+912892154+915801624+918344615+920640112
1198+923023309+925593008+928106291+930164045+931631234+932876960+934439125
1188+936748276+940228581+944927905+949844340+953585344+955995848+957945123
1178+959467452+959631148+958421132+957538883+958846727+962434388+966516063
1168+969182914+969994418+969705436+969204820+969272939+970281073+971602196
1158+972475892+973319204+975024435+977381449+979307541+980572773+982083249
1148+984320079+986670641+988550746+990317493+992893344+996827153+1001571789
1138+1005481741+1006928674+1005745365+1003355717+1001639158+1001792877
1130+1003843804+1007024251+1010633292+1014407606+1018124528+1021238580
1121+1023233693+1023796276+1022713796+1020752143+1020146948+1022609742
1113+1026878369+1029811621+1029990171+1028788933+1028400773+1030224387
1104+1034029384+1037258519+1036918823+1033412185+1030458903+1031038516
1095+1035062425+1040384950+1044692664+1046932945+1047742273+1048389405
1087+1048837131+1047518335+1044482154+1042714656+1044221006+1047016968
1078+1048071991+1047689308+1048438919+1051370895+1055576055+1059612192
1070+1061760422+1060935715+1058541565+1057744916+1060531576+1065770077
1061+1069925798+1070239986+1067258871+1064001004+1062511909+1062476874
1053+1063443221+1065755748+1068822387+1071046088+1071962697+1072698954
1044+1073741823+1073610161+1070675034+1065309447+1059730350+1056643981
1035+1057887606+1062839001+1067790771+1068934769+1066540244+1064003854
1027+1063227986+1063480282+1064150071+1065964907+1069104391+1071645357
1018+1070837980+1066446318+1061850823+1060324968+1061335728+1061899812
1010+1060338022+1057082854+1053516575+1051525814+1052350596+1055265092
1001+1058359264+1060217012+1060239519+1058307199+1055224281+1052272499
993+1050055700+1048635399+1048236512+1048944036+1049842940+1049419520
984+1047276466+1044228508+1040200848+1034039437+1026327714+1020125942
975+1017823018+1018734900+1019835835+1018288974+1013917793+1008906756
967+1005004832+1002072555+999022196+995062505+990447955+986451429+983715558
957+980963708+976849399+972268458+969084711+967627801+966723946+965156004
947+962472723+959309682+957157326+957113063+958689557+960129138+960022683
937+958392774+956260223+954568121+953617753+953438378+954234727+955864712
927+957219818+957263406+956475459+955950011+955684211+955278946+955129204
917+955415485+955209402+953460734+950175109+946533508+944171542+943685030
907+943947229+943702960+943081710+942642236+942073426+941082322+940462197
897+941081646+942540357+943648645+944066888+944722647+946157577+947140729
887+945873772+942419798+938782699+936445040+935027666+933771962+933121904
877+933852385+935489196+936483226+935824165+934298160+933718247+934560359
867+935295641+934891352+934535677+935549063+937079194+937044459+934660962
857+931471589+929829601+930457378+932215874+934252772+936896817+940070362
847+942288737+942036816+939330353+935355883+931132643+927202061+924598152
837+924945725+928470143+932633141+934310164+933292352+932066807+932330506
827+933398057+933989148+934054567+934382859+935684926+938235870+941345121
817+943522084+944095095+944107324+944703142+945613148+946085856+946049771
807+945627402+944839230+944287300+944681536+945413367+944482430+940681184
797+935855674+933424389+934755489+938369107+942401418+946365760+950201216
787+953021711+953506947+951303126+947444864+943487874+941016753+941456077
777+944996474+949525050+951806143+950548264+947454542+944832703+943454640
767+942834890+942186333+940817272+938921263+937880194+938764319+940888242
757+942640136+943324103+943352461+943228301+943146303+943293495+944125404
747+945657561+946092833+943075858+937692191+934548881+936621565+942223618
737+947414256+949975852+950271811+949462633+948257118+947383497+947940454
727+949805929+950735291+948592163+944130205+940348465+939417603+941226287
717+944266369+947074035+949140792+950840621+952256645+952304058+949710728
707+944478228+937714548+931093632+926907003+926805049+929731324+932523460
697+933118678+931672045+928844499+925381673+922814150+922296279+922799370
687+921668802+917200168+910420883+903936581+899503582+897310564+896982272
677+898502350+901556610+903935981+901944020+893793498+881937533+873226303
667+873725644+879723284+884926000+887568919+887369288+884432586+880278065
657+877011270+875520900+874789219+872972057+869529637+865746396+862910447
647+860810155+858563272+856935013+857765798+860654111+862099093+858759377
637+852226012+848515616+851047655+856678216+859575007+857763547+853774973
627+850940224+850679151+850839171+847726469+841605419+836839402+835784604
617+836098943+834910158+833297729+833813274+835388868+834834162+833438693
607+836318530+843994843+850804811+852098326+849561336+847903294
##END=
