##TITLE=<SNM>
##JCAMP-DX=4.24
##DATA TYPE=INFRARED SPECTRUM
##DATE=2/5/2025
##SAMPLING PROCEDURE=Instrument type and / or accessory
##ORIGIN=Admin
##XUNITS=1/CM
##YUNITS=ABSORBANCE
##RESOLUTION=4
##FIRSTX=4497.3318
##LASTX=599.83466
##DELTAX=-1.4281778
##MAXY=1.7478578
##MINY=0.18928583
##XFACTOR=1
##YFACTOR=1.6278194e-09
##NPOINTS=2730
##FIRSTY=0.20651054
##XYDATA=(X++(Y..Y))
4497+126863299+126663640+126667347+126785691+126993268+127247541+127521595
4487+127888554+128432214+129101751+129710771+130060090+130035932+129648743
4477+129160886+129153169+130064127+131526305+132576231+132700753+132220128
4467+131523339+130561083+129343006+128374497+128170435+128569754+128881559
4457+128709499+128384732+128404495+128640231+128513337+127837502+126991483
4447+126308114+125796027+125425699+125271618+125372294+125699342+126270738
4437+127107612+128004948+128525567+128376090+127699285+126913372+126388752
4427+126301835+126590480+126948560+126975537+126469802+125645085+124958348
4417+124704048+124934245+125630109+126603900+127341352+127308498+126372641
4407+124849982+123420255+122831026+123197692+123784870+123853846+123424731
4397+122957434+122667507+122386688+121936061+121521318+121562145+122007645
4387+122182607+121573230+120371869+119055753+117906808+117115879+116857945
4377+117081075+117504204+117870174+118063132+118100389+118164843+118497053
4367+119134927+119849154+120330493+120410170+120179744+119869833+119498627
4357+118814507+117860992+117291710+117656069+118618198+119312982+119253005
4347+118556866+117626557+116938583+116819114+117168423+117606445+117895750
4337+117972397+117739326+117191290+116597796+116281834+116332722+116646477
4327+117103420+117621247+118096554+118359230+118262233+117854264+117396652
4317+117185715+117370060+117851106+118375560+118817482+119239036+119592822
4307+119658502+119435171+119271286+119435299+119805691+120082702+120140601
4297+120133992+120309823+120656588+120843047+120686211+120433174+120330768
4287+120261105+120048118+119719047+119330247+118940046+118723863+118798368
4277+119143376+119856377+121002355+122088979+122321511+121604931+120772598
4267+120605554+121050066+121563445+121798887+121620163+120913195+119939953
4257+119459365+119908564+120802184+121436221+121829993+122486641+123494650
4247+124315613+124406303+123806519+123056262+122613562+122485249+122430572
4237+122290607+122060565+121813973+121609599+121433713+121299249+121383503
4227+121880807+122661154+123245494+123273634+122934293+122748008+122960007
4217+123334371+123571178+123692881+123873582+124082835+124099797+123813001
4207+123436952+123412629+123899992+124385615+124197050+123453694+122990041
4197+123245595+123802730+124149284+124357914+124766836+125368294+125846557
4187+126043214+126082082+126060634+125880995+125455596+124953093+124810674
4177+125471433+126960872+128743791+130183102+131068767+131492225+131402460
4167+130675637+129507267+128408514+127864049+128068724+128791611+129466568
4157+129713023+129747360+129948337+130196650+130068997+129544652+129105669
4147+129153838+129573469+129892744+129756413+129139008+128237058+127434641
4137+127234606+127809875+128714626+129359685+129588280+129573680+129454045
4127+129261938+129013735+128750922+128522299+128336783+128182930+128070216
4117+127990018+127968176+128198254+128870300+129796609+130469267+130550290
4107+130136224+129618443+129502562+130160235+131374174+132288454+132257303
4097+131593643+131053928+130878454+130821351+130761007+130766719+130853994
4087+131027217+131336395+131752154+132180693+132601011+133058650+133592753
4077+134196143+134711159+134810197+134303245+133458691+132769271+132388133
4067+132088786+131795517+131748557+132032443+132314928+132236734+131878114
4057+131700406+132008862+132544036+132756538+132450435+131915033+131500299
4047+131371940+131560130+131907078+132044389+131683792+130944144+130295267
4037+130167257+130620163+131326976+131814988+131832500+131575518+131443186
4027+131576222+131859605+132309417+133015580+133707938+133924368+133680924
4017+133518403+133754011+134038400+133825348+133085434+132374548+132218517
4007+132542699+132822511+132829963+132997327+133754111+134705493+134949137
3997+134180864+133046493+132346528+132243572+132389076+132579398+133012046
3987+133883129+134953458+135652087+135557022+134787321+133993600+133902013
3977+134740379+136068881+137123877+137318319+136631618+135686699+135276496
3967+135694315+136637614+137681671+138567922+139121404+139244196+139020974
3957+138648422+138266616+137954206+137880607+138360161+139470045+140559443
3947+140706347+139928188+139229989+139253607+139620886+139801322+139880047
3937+140201711+140943904+142078395+143251387+143772244+143227751+142101152
3927+141363298+141507639+142137914+142594226+142820185+143137263+143456997
3917+143326185+142650029+141909548+141634185+141890654+142331770+142896438
3907+144299280+147264583+151198148+154253445+155205083+154251266+151971474
3897+149126913+147098821+147115024+148881264+150312071+149861591+149093656
3887+150246830+152671366+153914140+153748360+153809326+153892262+152710344
3878+151039160+150706968+152211970+155012719+158325684+160585145+160320776
3868+158725534+158107543+158578886+158540494+157336039+155888324+155302995
3858+156497453+160327733+166279778+170109764+167747888+162288679+157966406
3848+155951944+156036235+157688177+160204940+163089019+166203506+168860949
3838+169530330+167910940+165764111+164407570+163603331+162850501+162315830
3828+162309661+163048064+165241743+169428757+173899455+175281480+173676901
3818+172324718+171783310+170119651+167323963+165493389+166010264+168697567
3808+171876773+173642647+174500016+176269258+178499023+179040248+178139086
3798+177631200+177613587+177431476+177574738+178846255+181131878+183914018
3788+187127570+190906092+194949240+198958848+203412720+208867132+214807276
3778+220440961+226353772+233943643+243937500+255930384+268366855+279415186
3768+288781477+297222347+304691366+311178740+317790903+325233266+332705251
3758+339475120+346765086+356844661+371079668+388686629+406350711+421264583
3748+434597366+448639258+463033253+474399303+481883519+488771768+497224519
3738+506897398+516402098+524737897+531669720+537554866+542745074+547141038
3728+550605631+552799274+552979169+551190575+548567533+545762070+542750969
3718+540136678+539202744+540700019+543800574+545945993+545023849+542169796
3708+539695709+538196237+537523743+537811253+539141925+541489612+544775994
3698+548584597+552357718+556079028+560678578+567531346+576308408+582894390
3688+583396911+580269188+577898761+577133994+576816568+577017042+579673295
3678+585734090+591166477+589273417+581506854+575034821+572296548+570765769
3668+567946648+564053168+560447273+557986258+556591728+556020039+556719153
3658+558859300+561096553+562444397+564552944+569452747+575776300+577973825
3648+572911921+565262347+560711716+560759683+563490120+565630523+565338618
3638+563875287+563663938+565358684+568119989+572123683+578397365+585116886
3628+587511553+585170602+582488206+582675095+586197102+591394193+595694809
3618+598506021+601972885+607293775+613094082+617719374+621435484+625063495
3608+627916560+629143790+629241775+629172644+629337564+629506364+629640673
3598+630544875+632912848+636161881+639056688+641414848+644584570+649575878
3588+654698491+656768994+655161614+651651067+648113352+646278731+647155910
3578+649432782+650593004+650256354+650055551+650705416+651676040+652597231
3568+653308978+653541857+653326188+652944134+652752850+653072657+653537390
3558+653205281+652002730+651291423+652031583+653258667+653595390+653409233
3548+653845040+654431632+653726110+652106354+651088129+650218054+647977286
3538+645318507+644808662+646405716+647410027+646435668+644486951+642802091
3528+642097082+642864998+644801924+646954887+648839013+650283084+650420395
3518+648317524+644526863+640745356+638140037+636512371+634791261+632241305
3508+629416728+627847502+628628893+631293530+634080247+635457457+635269103
3498+634435864+633998153+634267576+634677604+634746663+634695107+634478632
3488+633298710+631369985+630636415+631951891+633106474+631584630+628320144
3478+626070222+625542289+625475208+625420137+626114455+627163803+626893941
3468+625346539+625095864+627650067+630997232+632142588+630628653+627987010
3458+625148372+622095016+618929321+616186764+614724750+615263448+617470676
3448+619601595+619648684+617199057+613640287+610641709+609097601+609109282
3438+610059840+610737240+610122966+608509947+607388904+607563307+608193986
3428+608283329+607853930+607071368+605598296+603531821+601795918+601362162
3418+602467863+604268907+605514665+605676472+605143705+604464584+603420362
3408+601288600+598482807+596891830+597661431+599553869+600646131+600892705
3398+601539787+602839262+603845073+603874806+602985507+601467214+599589057
3388+597650007+596019485+594948826+594408809+594153594+593929466+593735034
3378+593899001+594736268+596106156+597492191+598353222+598448753+598209137
3368+598450511+599308906+599837461+598918796+596329991+592967520+590347371
3358+589565871+590284977+590930668+590154660+588282032+587040741+587522318
3348+589066425+590434042+591087715+590879515+589880148+589003665+589486999
3338+591487492+593947811+595662293+595976973+594828651+592632006+590233751
3328+588657092+588317696+588608173+588856138+589319407+590446711+591648420
3318+591917732+591445017+591220962+591147876+590100065+588040255+586540087
3308+586841805+588711980+591202288+593270117+593853890+592669904+590802841
3298+589572608+589303039+589688499+590481423+591318434+591681118+591546920
3288+591489652+591752007+591830403+591466254+591327442+592005282+592948663
3278+593218195+592989820+593379197+594767319+596078071+595968662+594360512
3268+592553720+592063026+593347341+595342926+596284806+595165594+592377633
3258+589299963+587543885+587952119+589673706+590647625+589816802+588423151
3248+588231428+589251374+590065023+589809149+589031420+588648524+588551198
3238+587663437+585580631+583453227+582536136+582630680+582707281+582326106
3228+581724757+581198252+581029158+581473240+582353348+583023755+583056417
3218+582771872+582780367+583056343+582765684+581214766+578729584+576378711
3208+574984071+574532556+574469100+574286166+573602211+572050634+569714993
3198+567500662+566416345+566558525+567157091+567314724+566638752+565576148
3188+564858140+564598604+564477477+564511531+564906803+565278421+564717094
3178+562812976+560232739+558079740+556920506+556507108+556221868+555604408
3168+554583620+553474294+552763243+552683859+552872176+552587449+551514629
3158+550244887+549565876+549400626+549010517+548124477+547195230+546550600
3148+545873346+544637072+542776747+540804961+539255398+538136113+537126603
3138+536176448+535561405+535376126+535358880+535279313+535214209+535302711
3128+535410179+535241562+534694149+533846006+532644737+530935930+528856163
3118+526917553+525598342+525023614+525106952+525730490+526528798+526735277
3108+525672161+523397047+520742625+518834259+518470550+519498221+520751449
3098+521043830+520202828+518968091+518130312+517910248+518036940+518236389
3088+518366486+518005377+516569764+514351661+512701183+512513013+513111761
3078+513178586+512343479+511287137+510566895+510012159+509218172+508125763
3068+507053786+506477959+506771328+507795961+508667098+508318658+506592751
3058+504465456+502934714+502109310+501613746+501249524+500824446+499977000
3048+498722783+497684053+497365675+497510785+497407784+496772162+496063052
3038+495712012+495380562+494463654+493066817+491825050+491004590+490373033
3028+489617274+488501613+487033485+485721854+485237348+485590585+485953159
3018+485527751+484404218+483291047+482638875+482317385+481900728+481043762
3008+479803752+478675715+478093480+477980995+477936323+477620106+476890710
2998+475832830+474676489+473552955+472466991+471549241+471025409+470894030
2988+470867813+470645113+470155077+469604296+469295328+469276800+469245603
2978+468937697+468444915+467931482+467269936+466294553+465185996+464248949
2968+463527572+462905462+462396496+462096756+461911514+461452969+460256936
2958+458255382+456031311+454428141+453931259+454398043+455107263+455109167
2948+453952569+452144203+450637590+449941039+449929469+450274870+450639568
2938+450589403+449824783+448548670+447242532+446082931+444950647+443896795
2928+443154071+442809036+442804788+443024523+443039682+442194981+440410159
2918+438530903+437491294+437419600+437726151+437774668+437390417+436844212
2908+436360841+435808631+435020869+434141017+433416199+432900898+432471353
2898+431915994+431094765+430157426+429342421+428564582+427636873+426783384
2888+426367168+426243038+425960031+425482189+425137630+424909255+424320722
2878+423127764+421721261+420657815+420052732+419625640+419167094+418719095
2868+418323456+417835984+417148441+416459542+416048525+415797008+415240111
2858+414164399+412895463+411944576+411590423+411773651+412140875+412223152
2848+411824474+411187095+410585820+409946610+409091437+408131652+407335468
2838+406764877+406270192+405679682+404835201+403671170+402392677+401331172
2828+400568382+399953083+399437966+399098277+398875577+398596268+398222379
2818+397866250+397560321+397156517+396486952+395593040+394743506+394174965
2808+393832054+393400458+392627782+391583450+390543036+389677208+388982415
2798+388452797+388058623+387556578+386667206+385473516+384299050+383239998
2788+382192517+381210725+380460715+379979797+379727072+379587271+379224330
2778+378362530+377252985+376455043+376212131+376309530+376314437+375820081
2768+374780619+373622959+372742741+372061862+371329757+370538809+369770014
2758+368960795+368091306+367342980+366840422+366407215+365795064+365071857
2748+364555567+364365529+364253117+363915259+363279271+362429701+361448752
2738+360441219+359595640+359033654+358589792+357963690+357173658+356595817
2728+356431813+356387178+356009884+355159874+354039161+352917348+351964996
2718+351268189+350808326+350353698+349568353+348396413+347198549+346368788
2708+345931261+345607829+345150529+344529774+343888367+343369295+342965674
2698+342525034+341896040+341056905+340126633+339318512+338853193+338783036
2688+338909545+338962932+338792264+338334231+337582646+336680348+335838284
2678+335118116+334470777+333911867+333437137+332892653+332168750+331437194
2668+330997323+330920246+330977440+330915266+330672134+330279242+329742594
2658+329149923+328675669+328335651+327952865+327446389+326915380+326411320
2648+325838166+325081601+324141772+323182975+322444572+322042892+321918653
2638+321933629+321864827+321454139+320711525+320001243+319618896+319469392
2628+319248120+318739154+317960033+317210645+316869565+316969930+317111781
2618+316897393+316302343+315571519+314928135+314440260+314056485+313709802
2608+313389520+313113433+312876673+312674258+312513073+312335594+312034828
2598+311614364+311185588+310746046+310151728+309389194+308687407+308293160
2588+308254274+308385213+308376975+308075953+307683646+307503750+307523450
2578+307440111+307039896+306370203+305610214+304934882+304485436+304331026
2568+304391845+304446843+304292890+303891905+303365071+302925474+302778039
2558+302916467+303055682+302951014+302698215+302521029+302414018+302227825
2548+301958494+301728287+301589073+301486291+301320126+301001473+300561492
2538+300155235+299824352+299422965+298945855+298665887+298717535+298826559
2528+298700691+298438189+298328322+298456516+298671728+298784963+298679069
2518+298348186+297947953+297728255+297800792+298000533+298053096+297849473
2508+297506470+297206089+297000653+296748660+296297219+295747243+295380970
2498+295290986+295276266+295142324+294891704+294592183+294266298+293945192
2488+293676740+293457043+293232878+292972555+292706849+292504306+292395208
2478+292327248+292214745+292005080+291711070+291427019+291251371+291123507
2468+290863111+290460497+290136040+290016049+289969033+289831539+289577716
2458+289250092+288915602+288662108+288507239+288385728+288284063+288259146
2448+288306820+288341862+288305575+288192431+288007519+287786504+287609610
2438+287503680+287383999+287191782+287014340+286929390+286819267+286529815
2428+286146938+285900217+285834601+285795934+285728377+285759995+285941191
2418+286102449+286081999+285945347+285867153+285915230+286041849+286190895
2408+286328646+286423226+286446440+286397539+286322879+286294831+286346441
2398+286436298+286475898+286391296+286201240+286045730+286076268+286296863
2388+286550504+286654201+286509567+286077477+285299088+284120265+282612957
2378+281001677+279546126+278439052+277763446+277428187+277179545+276839984
2368+276536948+276500533+276566259+276183857+275186101+274201380+273992210
2358+274788027+276472466+279080642+283018134+288577415+294928869+300222096
2348+303028695+303500953+303277631+303782532+304588328+304471028+303188800
2338+301209984+298699849+295560243+292060316+288889293+286591038+285158500
2328+284181615+283214068+282025888+280725334+279681917+279236206+279430767
2318+279930853+280182462+279817361+279005689+278331675+278280668+278865155
2308+279687685+280286086+280425136+280154505+279716813+279395780+279318208
2298+279379870+279431426+279457313+279492209+279513556+279518829+279559308
2288+279621958+279615770+279510261+279366450+279223024+279056512+278848568
2278+278608915+278333616+278013461+277683622+277414438+277246369+277166052
2268+277140786+277137088+277127257+277126762+277188772+277326907+277502353
2258+277685416+277835268+277875235+277820219+277822160+277945428+278056486
2248+278078895+278162325+278446192+278824237+279076596+279129049+279074344
2238+279012371+279002594+279148053+279553175+280161206+280776267+281272930
2228+281691454+282159849+282787397+283579791+284449500+285350791+286336299
2218+287440883+288600831+289728867+290830266+292018500+293386373+294875904
2208+296349470+297757511+299163630+300669712+302337216+304105671+305846151
2198+307538682+309261587+311013857+312734492+314443921+316183926+317896504
2188+319497733+320985488+322371120+323565542+324444918+325029277+325497196
2178+326004441+326573604+327123763+327512078+327620938+327463488+327119662
2168+326594109+325834102+324851102+323748550+322599788+321297788+319647603
2158+317649601+315516375+313393694+311236594+308915673+306385399+303821034
2148+301429261+299159657+297155797+296388027+297941417+301689071+306451308
2138+311322459+316140499+320961614+325789686+330613218+335352570+339970318
2128+344630249+349512367+354585329+359701095+364791925+369948226+375344949
2118+381032221+386882436+392842756+399039617+405598174+412792278+421414234
2108+432524922+446945793+465383833+488451778+515679330+544854353+573095478
2098+598333009+619654762+637164873+651502039+662943226+671472542+677300092
2088+680340852+680004422+675731525+666784124+652537986+633640486+611388241
2078+586560445+560097698+533419976+507524378+483029388+460680000+440951786
2068+423829808+409185138+396775085+386165966+377061665+369301436+362618421
2058+356856635+352045772+348053099+344706557+342122585+340379248+339258059
2048+338656088+338799147+340004481+342621774+347105397+354072738+364485887
2038+379482365+399661837+424726174+453752132+485273781+517193448+547355389
2028+574398614+597932794+618087147+634919198+648443777+659337770+668631414
2018+676324782+681397963+683289705+682300773+678771846+672802152+664517432
2008+654094982+641644798+627262447+611182641+593739611+575138885+555481304
1998+535146030+514964287+495738742+477656612+460480331+444245382+429327408
1988+415891441+403790283+392913938+383252594+374716357+367114238+360242466
1978+353972885+348321826+343353110+339017746+335230491+332020344+329379177
1968+327018564+324523204+321795952+319140834+316839759+314877128+313163231
1958+311763685+310711334+309798820+308772577+307608729+306473552+305531178
1948+304907091+304748945+305078180+305467411+305177593+303990732+302574141
1938+301653499+301282045+301109601+300955190+300886736+300937578+300979192
1928+300940324+301028679+301457968+302042290+302502263+302999695+303670816
1918+303922388+303122561+301760144+300937084+301105262+301822172+302316161
1908+302164222+301622485+301274960+301372689+301682371+301903807+302026362
1898+302258711+302686535+303135487+303555329+304262718+305341817+306163486
1888+306133680+305537604+305012143+304791804+304815733+304985980+305175140
1878+305334274+305567758+305998310+306795244+308259437+310392626+312292277
1868+312634053+311275664+309479014+308344496+308011032+308095579+308256947
1858+308365880+308455700+308599016+308823949+309203989+309879449+310940735
1848+312510181+314674238+316768211+317295998+315853098+313968972+313016034
1838+313030058+313402592+313881825+314892361+316843201+319144276+320485420
1828+320566305+320267407+319879384+318977855+317798190+317177617+317391273
1818+318006756+318620041+319293378+320287143+321527628+322490050+322765404
1808+322605610+322670531+323472573+325111737+327168691+328813823+329462077
1798+329502940+330055443+331912692+334611310+336296244+335551213+333563280
1788+332528175+333125349+334518818+335802364+336887340+337928596+338818664
1778+339712393+341354888+344417472+348473673+351583162+352021092+350431142
1768+348437753+347042967+347005508+348622006+350882693+352279750+352826247
1758+353490210+354351680+355262290+357012839+360246860+363950594+366166536
1748+366451667+366105826+366276751+367286847+368924069+370510761+371403978
1738+372311439+374944001+379518762+383121215+382953549+380644931+378575234
1728+377336287+377131858+378084979+379827290+382313680+386449522+392816612
1718+399706546+403370734+402583887+400089918+398408280+398432483+400455714
1708+404456882+409491653+414032434+418061650+423201510+429685039+434881032
1698+437192030+437822562+437166801+435657333+435339101+437431573+441308392
1688+446325624+453170812+461714299+467917385+468469997+466658921+466431900
1678+468946521+473646254+478861250+483182444+487250985+492153388+496808303
1668+499392641+501083872+504478272+509821022+514769343+517536249+519349450
1658+522538908+528552139+537627074+546850231+549750312+547518844+547252095
1648+550142765+552443327+550972269+547814960+546295642+547426058+551153776
1638+557059721+563131574+565444769+563249149+560834234+561141554+563789641
1628+567100556+570268484+573655414+577013124+579369050+581236589+584419200
1618+589295972+593658945+595285805+595408689+596347786+598614991+601288673
1608+603364668+604718261+605850179+607091946+608427451+609782655+611151993
1598+612548061+613955516+615279779+616429676+617495868+618631484+619739932
1588+620554570+621073276+621630502+622452830+623514628+625071404+627827143
1578+631900115+635567819+636642066+636353457+637633268+640860332+643835988
1568+644900495+645342307+647146756+651134559+657977330+668897981+682985863
1558+693251156+696440432+698930410+704726616+713530774+723887900+734425544
1548+743978431+752246967+759837442+767423524+775254934+781521952+781840660
1538+776886994+772717062+771397119+770714080+768607034+766412622+766522617
1528+769024166+772205240+775081959+778243772+781562669+783461442+783737382
1518+783676745+783255072+782043514+781162527+782148090+785538315+791211857
1508+797934015+801305273+797858219+792122576+789180461+789919450+793154422
1498+796637946+797925227+796742961+795532501+796396059+799057182+801290553
1488+801351702+799971343+798712623+798013765+797576640+797557819+798799110
1478+801847413+806253080+810911986+814323009+814679139+811905458+808796665
1468+807882211+809302775+811265845+812018529+812269790+814365411+819494396
1458+825626299+827384978+823030647+817578487+814738018+814680384+816011092
1448+817021041+816808081+815808384+814895394+814597778+815496121+818362367
1438+823010874+827001020+827391496+824707964+821568193+819300403+817809096
1428+816724376+816053640+815997251+816652022+817875591+819013551+818896452
1418+817042718+814630512+812845470+811611649+810372116+808981430+808011027
1408+808305421+809758647+810858013+810462924+809447189+809268575+810207123
1398+811737536+813257623+813860107+812755834+810679399+809389409+809487540
1388+809720346+808763344+807660096+808814094+812794574+818001624+823010068
1378+827892626+833097186+838132067+841831407+843649843+844297878+844948768
1368+846304302+848425042+850949952+853224993+854508173+854543105+853785734
1358+852751984+851463239+849658424+847375986+845154185+843553909+842631472
1348+842019248+841573262+841757589+843096206+845283148+847211286+848129768
1338+848473155+849161907+850434615+851809775+852851361+853670173+854780158
1328+856503465+858539842+860284240+861560170+862718854+864087936+865781657
1318+867867172+870226504+872519414+874582373+876462764+878136859+879696858
1308+881463812+883397443+884982121+886149740+887473930+889208588+890871991
1298+891806438+891648402+890372472+888371614+886419382+885064068+883922520
1288+881993722+878877972+875194743+871728210+868875364+866872529+865753243
1278+865082653+864244141+862985421+861629155+860873908+861234871+862622993
1268+864617773+866806766+868608066+869523472+869876306+870389153+871025837
1258+871241067+871089769+871096726+871379110+871650656+871757136+871695914
1248+871263842+870152026+868482765+866976226+866440677+867054218+868196645
1238+869081148+869568217+870235219+871605033+873643825+876224173+879619231
1228+883962431+888340490+891070671+891239179+889732786+888482634+888698597
1218+889886575+890772248+891215012+892415513+895021564+898225340+901097226
1208+903716166+906517163+909472754+912193854+914127997+914968560+915465150
1198+917141441+920581538+924623972+927794061+929996016+932133013+934567042
1188+936806345+938473483+939804045+941238816+943112836+945592488+948435227
1178+951209567+954081014+957581674+961160986+963021457+962445703+961384857
1168+962495062+966262142+970848327+974155580+975507599+975846665+976675584
1158+978744622+981590144+984035377+985048549+984473747+983424325+983769690
1148+986649485+991422340+996161142+999138848+1000027744+999733350+999149467
1138+998569319+998132121+998063429+998738047+1000743885+1004154030+1007762561
1128+1009968324+1010637523+1010935433+1011696831+1012958700+1014319214
1120+1015295183+1015713121+1016089170+1017404499+1020291617+1024544082
1111+1028791201+1030709087+1029209505+1026254940+1024528776+1024035848
1103+1023141826+1022189218+1023405536+1027467084+1032500134+1036240704
1094+1037489318+1035697319+1031267851+1026695506+1025989838+1031325485
1085+1039821480+1045493704+1045968031+1044415721+1043849268+1044287784
1077+1045364009+1047359009+1049528595+1050625984+1051113200+1051751348
1068+1050974571+1047139165+1042599628+1042132112+1047432461+1054990934
1060+1059613003+1059407806+1056505675+1054017747+1053747959+1055802496
1051+1058721983+1060437894+1060181800+1059310773+1059680304+1061552346
1043+1063276972+1063166098+1062028724+1062626814+1066195140+1070987768
1034+1073741823+1072560510+1068434297+1064341406+1063097039+1065151797
1025+1068130016+1068677503+1065555455+1060849314+1057665751+1057089338
1017+1058280391+1060481101+1062952186+1064276815+1063903476+1062982797
1008+1062014590+1059496564+1054812320+1050248617+1048407918+1049683042
1000+1052709741+1055785067+1057577286+1057584097+1056543829+1055641751
991+1054988590+1053693254+1051402541+1048877118+1046856853+1045291436
983+1043556924+1040628869+1036081203+1031117358+1027333581+1024780843
974+1022450145+1019903997+1017492598+1015713780+1014706467+1013904059
965+1012285840+1009457381+1006109264+1002957557+999709037+995577771+990665555
955+985952970+981681318+977104653+972319568+969117843+969429008+973089681
945+976960312+976965292+972164682+965827361+961504739+959787437+959596813
935+960524156+962391072+963883624+963585860+961863944+960483072+960724373
925+962264526+963959346+965053220+965137730+964025841+962094334+959939175
915+957967389+956775091+956694462+956839389+955852215+953759596+952114208
905+951962105+952573816+952635917+952036216+951816225+952781210+954701513
895+956471396+956779485+955080491+952022155+948682533+945814968+943977272
885+943529528+944185838+945184217+946059785+946788887+947232091+946982807
875+945732948+943930916+942728511+942630233+942916353+942909542+942938689
865+943253955+942919795+940972469+938339028+937284407+938929722+942155833
855+944790519+945386705+944232780+943030962+943184457+944303523+944725781
845+943531066+941511827+939885919+938849313+938174548+938537269+940481079
835+942362202+941811348+939286437+937753608+938941878+941619552+943196906
825+942318849+940368081+940436920+943880898+948590407+951552076+951957418
815+950689397+948537020+946314634+945235480+945718814+946465566+945886883
805+944265222+943678483+945535293+948872279+951644642+953012039+953531257
795+953861390+954036049+953591528+952384436+951259219+951517290+953495740
785+956068178+957750914+958034104+957494674+956693949+955434570+953659634
776+952317648+952326729+953567068+955569611+957887859+959533686+959702194
766+958686240+957324774+956782414+958156695+960866737+962351893+960944291
756+957840697+954916816+952797175+951857162+952123143+952288648+951566136
746+951420331+953133019+954994150+954651788+953404053+954846220+959815412
736+965000639+966628378+964930775+963624600+964856664+966496486+965522567
726+962623146+960652752+959720429+957524845+954189105+952453788+952761657
716+952511495+950619167+949019183+948875428+948805711+947750650+946784054
706+947082623+947924724+947664821+945805448+943237038+940908977+939021262
696+937803113+937750898+938597979+938506877+935215296+928791927+922064863
686+917472526+915056585+914227886+914890933+915786201+915071671+913653963
676+914038287+915082876+911378337+899113650+881483584+869598901+873009778
666+884620206+892457621+894976453+895571321+895248439+893737140+893000713
656+894509303+895863592+894124832+889653622+885151947+883269432+884447597
646+886137876+884964618+880122851+873444487+867053413+862900910+862420285
636+864827365+867306065+868278593+868629669+869296671+870418739+872255264
626+874510532+874441986+868969761+859682855+852435034+851995639+857850870
616+863838286+863740667+858744600+854973785+855051558+855885017+854021689
606+849940808+845924372+843689023+844422812+847555040
##END=
