##TITLE=<SNM>
##JCAMP-DX=4.24
##DATA TYPE=INFRARED SPECTRUM
##DATE=2/5/2025
##SAMPLING PROCEDURE=Instrument type and / or accessory
##ORIGIN=Admin
##XUNITS=1/CM
##YUNITS=ABSORBANCE
##RESOLUTION=4
##FIRSTX=4497.3318
##LASTX=599.83466
##DELTAX=-1.4281778
##MAXY=1.775973
##MINY=0.29128596
##XFACTOR=1
##YFACTOR=1.6540037e-09
##NPOINTS=2730
##FIRSTY=0.30535606
##XYDATA=(X++(Y..Y))
4497+184616306+183354845+182635087+182618780+183094481+183595696+183814744
4487+183772221+183657823+183840402+184653333+185781621+186338981+185937335
4477+185193432+184923248+185359380+186233051+187040541+187278545+186974486
4467+186781276+187092542+187476133+187408907+186966089+186360747+185546338
4457+184638414+184033901+183946260+184354248+185246784+186359828+187059046
4447+187027225+186653923+186405000+186235177+185780125+184845282+183755716
4437+183333566+184244102+186217357+188032556+188438184+187254616+185510842
4427+184381960+184153668+184300806+184355455+184262841+183932656+183133256
4417+182094466+181747415+182767971+184532070+185665439+185561744+184724812
4407+183820168+183194645+183109508+183634633+184398915+184872814+184809570
4397+184358086+183887736+183610651+183332809+182804729+182206449+181930247
4387+182052970+182301262+182311010+181823381+180917241+180063426+179667312
4377+179677438+179853314+180155031+180620047+181125604+181491862+181638495
4367+181550079+181256705+180913583+180675579+180374313+179638500+178530646
4357+177680110+177588667+178199343+179160619+180017623+180277519+179836197
4347+179190079+178848452+178815533+178839966+178834002+178915588+179167863
4337+179419794+179335361+178769064+177957178+177228121+176666329+176239602
4327+176109618+176495083+177181562+177584577+177570883+177745733+178522303
4317+179412695+179679942+179253161+178598304+178059936+177705750+177576307
4307+177777787+178302498+178880327+179172331+179198241+179426029+180142004
4297+180766788+180342367+178908706+177737805+177836815+178836758+179661059
4287+179767583+179468029+179333649+179573076+179936721+180051336+179785025
4277+179391542+179271720+179517237+179895297+180276348+180624353+180661002
4267+180265375+179980506+180315970+180887150+180931727+180350962+179778412
4257+179834738+180456675+180941061+180791419+180331664+180219014+180654210
4247+181262219+181510457+181270525+181022521+181279895+181921112+182427660
4237+182488562+182082015+181436510+181146613+181799074+183250285+184634000
4227+185281487+185347722+185351704+185422264+185296064+184850706+184294265
4217+183903538+183829898+184043594+184314193+184361023+184091181+183638435
4207+183261078+183302448+184013594+185171936+186042346+185982201+185086583
4197+184098154+183657462+183775933+184083253+184350860+184565188+184712830
4187+184846544+185166062+185627745+185694737+184959969+183842781+183221564
4177+183533911+184542521+185756594+186796717+187510512+187890860+187838373
4167+187189516+186134329+185266730+184986113+185167954+185500932+185741746
4157+185663367+185244928+184867679+184911121+185292893+185695998+186000579
4147+186258025+186491776+186701581+186909782+187133678+187363375+187514350
4137+187443376+187162471+186949026+186983441+187026198+186851403+186789564
4127+187229517+187771381+187602045+186635814+185638051+185297469+185687638
4117+186477019+187250472+187713326+187820751+187646532+187145462+186249304
4107+185164062+184386194+184356861+185106746+186204943+187021117+187148002
4097+186700482+186181987+185995967+186114311+186194456+185977624+185617727
4087+185599420+186247772+187342816+188264253+188462166+187879256+187092235
4077+186884340+187426781+188005871+187773633+186685653+185565654+185304316
4067+186086112+187359086+188405787+188886551+188941165+188866136+188683971
4057+188135278+187182615+186255304+185816180+185914073+186312224+186872863
4047+187658226+188648710+189411496+189301170+188215568+186943512+186516299
4037+187278905+188620097+189519876+189428667+188712278+188197820+188415859
4027+189379622+190838058+192439812+193685417+194083351+193641452+192997370
4017+192702825+192536066+191934940+190943123+190234031+190236049+190657227
4007+190966763+191075215+191330660+191968598+192797692+193412350+193574821
3997+193396872+193195482+193177067+193365484+193782067+194375770+194837543
3987+194933652+194913472+195103475+195334289+195220702+194816497+194676423
3977+195317622+196697156+198183774+199075283+199135662+198589203+197776308
3967+197018513+196683733+197065955+198057808+199112563+199712500+199741059
3957+199327431+198708827+198396804+199055517+200921131+203342393+205062437
3947+205432334+205287287+205791781+206617758+206346727+204674575+202834745
3937+202020301+202815862+205436623+209072768+211415975+210756127+208472489
3927+207370094+208192250+209193563+208978929+208531859+209473297+211531220
3917+212629687+211284784+208287261+205509831+203989520+203806166+205247179
3907+209204914+215945522+223717153+229428105+231204817+229041739+223767028
3897+217492104+213352509+213275337+216402664+219327897+219407250+218558462
3887+220139063+223615188+225579002+225753689+226618549+227226991+224676285
3878+220705414+219532333+222067128+226425050+231015409+234249584+234249854
3868+232382763+232051839+233420923+233397661+230501887+226958338+225669399
3858+228507082+236774992+249502753+258065244+253007239+240417065+229705569
3848+224177088+223923715+227615825+233188973+239111604+244926017+249635854
3838+250928306+248243184+244031210+240103871+236454915+233414130+232218742
3828+233019691+234725015+237759565+244085968+252299679+256137881+253820458
3818+250449344+247725375+242989753+236557259+232241067+232667830+237708718
3808+244214150+248270987+250567418+254511118+259186216+260148194+257483487
3798+254722130+252153334+248665767+245532549+244780501+246726909+250697132
3788+256220765+262506158+268131703+272909614+278720441+286582777+294266516
3778+299210735+302622300+307698017+316365789+328748176+342969005+355670604
3768+365051215+371770200+376811826+381611575+388279064+397134478+405492083
3758+411158115+416319995+425401070+440705880+459455715+473842781+480334123
3748+485221080+494106333+505328053+512066894+513147199+515147446+523013043
3738+537626058+555536781+569296738+573343899+569842224+565116531+563098734
3728+564197273+567117642+570561623+574108920+577022838+577338735+574176452
3718+569909360+568681053+573303971+582694852+590835769+591407165+585252909
3708+577498809+571584053+569066104+569782548+571659729+572981407+574605504
3698+577893950+582588148+587958284+594420977+602664454+610760649+613922643
3688+610648215+605503776+602030390+600356995+600403374+603282589+610288930
3678+620729233+628911916+627485300+619609072+614011221+612351088+610239632
3668+605740609+601792152+600093423+598817476+595808133+592517596+592638751
3658+596830131+601380434+604147864+608698491+618824123+632398672+640360595
3648+636357579+625657741+615615426+608853953+605048994+603124172+602752707
3638+604560915+608380144+612226833+614911559+618575399+625168940+630498823
3628+627975181+621314683+618827366+622847103+630918001+638441863+641489045
3618+641059705+641721985+645280598+649797063+653324973+655545763+655673188
3608+652753144+648693262+647099148+649318281+653326126+655831533+655719315
3598+654903231+655171631+655708288+655256966+655761983+660827357+670468152
3588+678799018+679596291+674234696+668252479+665072971+665410490+667820112
3578+669751673+669875279+668978400+668474609+669437650+672414560+676627453
3568+679550381+678875416+675599618+673038210+673072805+674792759+676360855
3558+677318563+678138972+678769468+678884641+678525428+678004051+677882752
3548+678477211+678755486+677064217+673447801+670115931+669210259+670715652
3538+672438345+672026591+669417758+666557967+664943167+664615883+665028862
3528+665710098+666280485+666511768+666453965+666528129+667306230+668847443
3518+670406818+671242723+671235011+670612875+669651780+668232731+665739216
3508+662323524+659733358+659576671+661380086+663590786+666019941+669166943
3498+671621179+670911186+667438052+664681686+664493287+664992465+664027117
3488+662360714+662031772+663396621+664992321+665198162+663397775+660627786
3478+659311730+661317527+665746423+669156853+669069861+666513498+664242112
3468+663621129+664060199+664592315+664781868+664409610+663198132+660905845
3458+657640642+654402394+652855632+653493624+654518504+653978388+652475446
3448+652149459+653618238+655437005+656206170+655777190+654382863+651777201
3438+647792132+643355163+640236629+639577376+640943090+642738793+643445110
3428+642968491+642694180+643678988+645372203+646608114+647040625+646799900
3418+645620567+643205251+639922606+636834776+635094136+634987468+635597351
3408+635917284+636010619+636381219+636926957+637116798+636500356+634890241
3398+632586639+630534716+629678991+629758055+629419095+628041633+626577538
3388+626096738+626656242+627922424+629580611+630844198+630694214+628729283
3378+625661200+623450932+623978940+626584385+628232699+627257188+625300762
3368+624353144+624082437+623213091+621891845+621224015+621221349+620639358
3358+618610642+615608795+613029801+612225608+613543322+616094496+618525380
3348+619598621+618314205+614837179+611109267+609375763+610409076+613303390
3338+616135073+617080169+616009738+614658582+614500021+615082444+614852387
3328+613261660+611466317+610840794+611557130+612928466+614542833+616023216
3318+616521241+615866312+615188969+615285186+615501982+615076895+614359695
3308+613903183+613505267+612969115+612787923+613382094+614319045+614871054
3298+614876243+614649933+614494327+614479048+614474363+614531733+614904424
3288+615259600+614724313+613400113+612755706+613756947+615593804+616819624
3278+616885931+616076189+614794080+613508871+612808824+612862230+613195857
3268+613634567+614856495+617013645+618694391+618591903+617131629+615374269
3258+613665414+612103949+611088726+610965985+611585382+612040813+611196980
3248+609185778+607555699+607270001+607956570+609373312+611527507+613418707
3238+613933454+613389806+612493216+611148763+609503188+608520254+608423172
3228+607839235+605492893+601873198+598528427+596529477+596054299+596729805
3218+597917859+598997227+599582245+599339574+598091880+596420755+595357171
3208+595184808+595350144+595445785+595499336+595615986+595742727+595421785
3198+594143279+592362171+591105070+590453457+589758563+588921974+588032663
3188+586676787+584860183+583510144+583263329+583699841+584040566+583829716
3178+583116516+582485804+582396578+582305405+581199190+579075230+577074587
3168+576195943+576499731+577249436+577328717+575966390+573545848+571312697
3158+570103093+569737826+569587878+569316739+568893741+568195424+567100309
3148+565904651+564982186+564089056+562844820+561703866+561308725+561219787
3138+560603849+559680052+559094349+558510592+557217275+555596170+554771436
3128+555078720+555657720+555433753+554140796+552422211+551133327+550680311
3118+550838367+550895449+550180952+548802805+547527650+546724539+545941356
3108+544717806+543321172+542375932+542090306+542117226+541999638+541604785
3098+541214077+541238978+541672426+541835528+541089138+539799425+538964385
3088+538941718+539157937+538995484+538512342+538092299+537717087+536979670
3078+535764877+534386081+533008655+531661895+530822063+531047940+531971990
3068+532550918+532319239+531704238+531184699+530727178+530034087+528969061
3058+527711781+526635981+526028404+525905627+526096621+526373130+526402356
3048+525771499+524388307+522784138+521660157+521159321+520795315+520028421
3038+518779717+517430147+516434312+515946449+515725725+515314259+514430101
3028+513303309+512449963+512095183+511986389+511667357+510858840+509788914
3018+509034488+508736537+508414622+507756234+506869266+505745429+504462382
3008+503729326+504068250+504703899+504305839+502672481+500868237+499812293
2998+499437477+499212608+498950767+498798692+498606617+497807578+496171950
2988+494316029+492993487+492191421+491450725+490690461+490159426+489940936
2978+490026955+490434637+490827724+490585991+489607886+488532410+487954203
2968+487823462+487601621+486666904+484798803+482650699+481394103+481414752
2958+481727802+481263579+480285185+479778583+479979054+480322303+480345330
2948+479841899+478586276+476686716+474950834+474249526+474537566+474895193
2938+474536485+473448649+472107908+471021693+470502081+470486658+470581470
2928+470427882+469931730+469177593+468368247+467722580+467151436+466164790
2918+464428980+462383687+460980711+460746798+461325257+461969087+462226676
2908+462075142+461721335+461424286+461276427+461048388+460345494+458972248
2898+457245087+455920310+455557025+455835912+455785101+454889519+453626149
2888+452723901+452348580+452215028+452019998+451455665+450205772+448358429
2878+446569140+445440907+444952035+444722013+444550407+444441000+444339845
2868+444113463+443641060+442850381+441877826+441127688+440834747+440682456
2858+440225116+439485573+438745490+438060290+437429578+437084600+437131267
2848+437211881+436895840+436142675+435136930+433942390+432616964+431520875
2838+431104761+431274601+431279682+430467418+428972801+427446579+426310742
2828+425525108+424916991+424425740+423943787+423177073+421963469+420634728
2818+419751038+419534891+419806715+420308092+420777901+420879488+420408021
2808+419530062+418599706+417770756+416932617+415972242+414952659+414021618
2798+413235984+412533379+411845333+411144241+410397995+409594343+408814295
2788+408176268+407671972+407143495+406476098+405712627+404954777+404312281
2778+403935987+403850688+403753390+403285599+402509046+401749828+401021672
2768+400076000+399019552+398363794+398329992+398482967+398184980+397213506
2758+395854711+394542655+393535360+392877873+392475632+392113284+391591907
2748+390968835+390451313+389990766+389300305+388339533+387412780+386692878
2738+386009696+385234693+384541205+384096982+383795824+383509910+383337872
2728+383354593+383343385+383014768+382319910+381397734+380374367+379316225
2718+378313146+377579766+377350285+377519405+377575946+377145849+376429730
2708+375873398+375588745+375291479+374723362+374008793+373473397+373102328
2698+372451904+371270841+369922208+368943707+368431915+368112306+367827077
2688+367646894+367570064+367437918+367197914+366916865+366482156+365690792
2678+364659569+363712564+362913561+362131387+361430295+360978720+360729311
2668+360508984+360265592+360036075+359825514+359609943+359362588+359059340
2658+358691586+358257958+357775212+357312142+356929289+356605357+356327478
2648+356166179+356088484+355811687+355112325+354229248+353658465+353527580
2638+353439398+352997554+352256678+351549604+351091759+350892981+350895216
2628+350988911+350946676+350547246+349812172+349006790+348384403+347982162
2618+347635094+347162906+346586249+346107503+345818490+345579026+345279562
2608+344998225+344796888+344602039+344336593+343984300+343589158+343302307
2598+343225441+343157152+342770551+342034360+341196185+340491562+340116313
2588+340217792+340629041+340887712+340745872+340369650+339920850+339357202
2578+338763067+338395314+338258230+338064642+337698798+337327874+337038969
2568+336731360+336374994+336093657+335959637+335855491+335595631+335167048
2558+334784159+334640698+334648266+334508011+334069122+333574447+333432499
2548+333717224+334064365+334122708+333887353+333542303+333230118+332980997
2538+332663911+332119975+331473587+331066229+330995273+331019670+330963489
2528+330894839+330877974+330842190+330736819+330584960+330358434+329992843
2518+329546710+329177407+328952683+328842447+328857006+329011279+329202993
2508+329303896+329316941+329286346+329133155+328747887+328196672+327695979
2498+327407435+327326785+327308478+327151683+326765839+326289400+325934836
2488+325734220+325584416+325464558+325412846+325386755+325344304+325355331
2478+325473675+325606939+325612416+325440954+325173923+324967001+324886351
2468+324804044+324599284+324388253+324333694+324329117+324138015+323769109
2458+323485897+323484564+323701648+323903093+323888967+323643269+323336057
2448+323172776+323193893+323235155+323161136+323076053+323129315+323190037
2438+322967439+322424872+321859602+321585004+321662230+321913946+322118021
2428+322172724+322088903+321910090+321723060+321661942+321799565+322057479
2418+322251320+322222599+321982559+321750520+321772718+322064470+322372980
2408+322427467+322218347+321975388+321868828+321859170+321893981+322069155
2398+322476585+323021278+323501141+323794082+323886768+323762442+323374328
2388+322763076+322062020+321287702+320230749+318629391+316371987+313536413
2378+310339607+307019304+303677560+300300968+296988053+294004097+291530186
2368+289528353+287971501+287021685+286812222+287231778+288140332+289686734
2358+292219854+295974740+301043448+307476140+314839279+321722916+326433762
2348+328193825+327630753+326377725+325613173+324864513+323102792+320293705
2338+317151026+314231775+311727016+309701724+308219791+307264533+306656308
2328+306119074+305429803+304595231+303975582+304027871+304776820+305763213
2318+306572343+307144748+307627530+308214169+309057209+310133622+311235044
2308+312137040+312706850+312917664+312912187+312991431+313359941+313871913
2298+314174512+314134404+313980600+313981068+314152494+314382696+314657871
2288+315005804+315325557+315437487+315283646+314995101+314761584+314660250
2278+314605546+314468391+314247559+314086835+314084745+314129503+314010402
2268+313695514+313409708+313381131+313572377+313754758+313794723+313714361
2258+313526935+313253345+313077451+313202606+313548953+313830075+313903842
2248+313852381+313789642+313757713+313744236+313702974+313608197+313501097
2238+313426069+313350932+313217345+313063865+313056117+313359185+313963014
2228+314653006+315160726+315328800+315164870+314798017+314395345+314094043
2218+313975266+314049862+314256712+314505256+314721620+314845730+314820540
2208+314627853+314341290+314098511+313974185+313922004+313906797+313998942
2198+314221504+314434444+314510986+314505905+314550482+314707746+314968723
2188+315270853+315513344+315620733+315580624+315438315+315298205+315265916
2178+315344476+315470820+315646931+315911079+316209210+316439844+316590729
2168+316687884+316665397+316462259+316226075+316233246+316564206+317014267
2158+317369768+317633556+317902029+318142321+318230646+318153636+318015256
2148+317866028+317686025+317527392+317509302+317675899+317978750+318345279
2138+318675302+318870512+318934297+318950585+318973504+319026442+319145975
2128+319333294+319526954+319681948+319838707+320087251+320446103+320766108
2118+320844632+320682215+320493131+320425238+320440265+320502068+320684738
2108+321035626+321485254+321933585+322303213+322492945+322441161+322294456
2098+322346565+322712444+323208776+323618548+323890336+324030951+324028032
2088+323931598+323828281+323735595+323660603+323675378+323794262+323880822
2078+323827308+323750190+323859381+324172214+324497913+324701556+324853702
2068+325098643+325460630+325789824+325882727+325704310+325469639+325433819
2058+325629426+325868312+325964530+325923916+325933538+326143848+326461402
2048+326646378+326635855+326641765+326856435+327173233+327319649+327194999
2038+326937914+326738055+326729118+326961590+327325595+327604302+327708881
2028+327749566+327845387+327993858+328138293+328285826+328551632+329024180
2018+329520872+329636189+329204399+328563849+328196528+328258871+328568677
2008+328900430+329153191+329295643+329300977+329199642+329103821+329056072
1998+328981152+329024468+329701055+331196321+332685281+333055088+332267941
1988+331228141+330555158+330242000+330165783+330287767+330500419+330654727
1978+330706872+330717467+330726584+330700133+330731197+331208501+332387114
1968+333744396+334282314+333698738+332724092+332129416+332017559+332190174
1958+332607946+333197613+333626268+333611349+333263920+332947951+332954906
1948+333468500+334732915+336858822+339136622+340020455+338739067+336473194
1938+334939729+334614968+334905603+335257572+335558261+335827527+335997511
1928+336149333+336823794+338487567+340550986+341890970+342546584+343345011
1918+343882424+342901436+340732718+339216263+339404518+340713763+341854393
1908+342064847+341565848+341011101+340727709+340650807+340768827+341338133
1898+342607738+344307187+345664938+346458716+347535309+349330327+350647068
1888+350214304+348645163+347367378+346891155+347038220+347634986+348435574
1878+349099981+349494149+349836893+350877918+353783332+358861319+363941756
1868+365333093+362132900+357405189+354177500+353064726+353149556+353437056
1858+353447579+353188440+352921661+352881588+353248405+354250149+356145241
1848+359306623+363898513+368443735+369591933+366210980+361599054+359019628
1838+358747984+359259523+359685439+361043298+364705300+369693772+372684412
1828+372251000+370467441+368806659+366675924+364120930+362522996+362486563
1818+363152483+363615878+364162589+365729964+368327229+370464703+370686472
1808+369375173+368265138+368849255+371573296+375494761+378504140+379031103
1798+377919627+377794148+380723994+386223177+390272319+388695971+383216753
1788+378956183+378150153+379546571+381339211+383066048+384547476+385211666
1778+385592861+387717758+393130525+400754353+406240058+405822286+401109097
1768+395774926+391820451+390558306+392566841+395987830+397804903+397906922
1758+398137520+398531544+398788017+400894463+406798769+414695718+419547864
1748+418884719+415279871+412262204+411545760+413031369+415164302+416136353
1738+416799642+420533789+428204861+433996625+431670067+424640050+418204348
1728+413662549+411316027+411325865+412929529+415979414+422297456+433356867
1718+446068556+452184145+448077416+439557070+432594946+429490718+430781945
1708+436009196+442912688+448402177+452746640+459537554+469450029+476899800
1698+477758877+474022027+467073705+459096142+454655065+455594287+460228051
1688+467292843+478210055+492256070+500070063+494919318+485252828+479652995
1678+480172066+485333803+491378651+495411722+499009975+503995312+507061485
1668+504370273+499780401+499339385+503343698+506922347+506582991+505037994
1658+507145774+515926521+532147849+550094644+554943907+548126470+545404050
1648+549740188+552976922+547736122+538702831+533324047+533721819+539768325
1638+550781790+562655232+566190781+558814200+550194898+547375504+550143330
1628+554978719+559404696+563650562+567351339+568466239+567937006+569997290
1618+576220159+582062158+581882948+577999898+575999543+577588072+581114035
1608+584274876+586337394+588135620+590366645+592728915+594744549+596708687
1598+599294961+602556056+605802087+608389730+610246695+611587544+612611920
1588+613623467+614989614+616815732+618932305+621402036+625044758+631113391
1578+639598854+646902965+648145218+645730911+646386705+651801202+657647201
1568+659333496+658338598+658557917+662116530+671154866+688450985+710598853
1558+720083106+711578832+700904868+695372315+694249560+695575273+697915489
1548+701610392+708867296+721154618+737379802+755010124+769147637+770769932
1538+760974179+752850380+752372534+756428092+758849174+758443185+759588860
1528+764863752+772696159+780897221+789771662+799165103+805646354+807405228
1518+806911815+805544443+803203290+801642834+803659081+810947624+823649872
1508+837902197+841701101+828990205+814111997+807725233+809494269+815478576
1498+820671808+821016967+817637456+816153181+820134215+827885684+833477048
1488+832512637+827398830+823006330+821360972+821809483+823371237+826298056
1478+831332944+838344222+846282505+852648583+852875614+845865633+838058668
1468+835593261+838748768+843051248+844292925+844261213+847747175+856126258
1458+864553557+863962269+853987919+843787476+838131534+836957318+838506530
1448+839825181+838644695+835812724+833654925+833234882+834935305+839352453
1438+845339139+848427114+845944121+842042584+841142679+842842164+844193248
1428+843896955+843407073+844098615+845892445+848770759+853109059+857052831
1418+856520570+851275950+845449122+841452809+838960015+837261755+836568555
1408+837532029+839874623+841808058+842030764+842006620+844049317+848182570
1398+852493698+855394715+855773964+852792658+848083036+845337265+846317388
1388+848899625+849244063+846722439+844744896+845950608+849796720+854611208
1378+859975830+866324684+872910081+877451195+878626997+877704460+876473739
1368+875647997+876005624+878691574+883065046+885685483+883653308+878355281
1358+873465117+871059098+870769940+871058665+870824211+870074651+869300080
1348+868681260+868129540+867745750+867867986+868696323+869910324+870698948
1338+870361358+868843208+866709122+865033276+865081710+867109849+869586787
1328+870667524+870165463+869304765+869170204+870051587+871728586+873602848
1318+874824056+875006762+874754289+874933031+875594230+876212834+876789996
1308+877870589+879498434+880991501+881852055+882236998+882386406+882170114
1298+881545240+880946744+880656073+880189976+878980083+877306761+875743854
1288+874042495+871500258+868210766+865095908+862815513+861149037+859361623
1278+857080507+854785048+853205132+852446634+852117404+851985582+852014412
1268+852063566+852046917+852206847+852938606+854330771+855951913+857230419
1258+858114396+859133439+860705859+862615294+864234490+865179945+865725972
1248+866437838+867442106+868513690+869748880+871457302+873635065+876097661
1238+878675718+881074386+883142453+885130736+887190371+889075805+890715397
1228+892459568+894485040+896495377+898118753+899270843+900149703+900973788
1218+901883711+903212885+905414864+908299016+910908858+912754724+914612554
1208+917367767+920584537+922932897+923934281+924645788+926492374+929765001
1198+933495940+936839559+939836866+942653773+945025413+946657510+947501487
1188+947605849+947382278+947789203+949436724+951853697+954469377+957736237
1178+962023870+965833225+966775438+964745209+962578113+962866189+965570086
1168+969155798+972642626+975826026+978647619+981113890+983219724+984796613
1158+985751150+986123336+985871584+985120222+984391922+984068962+984129648
1148+984727207+986287230+988819737+991661727+994338957+997154135+999826247
1138+1000612710+998395451+994721737+992520118+993431339+996897842+1001009256
1128+1004378677+1007634727+1011931945+1016339868+1018409449+1017428822
1120+1015533658+1015362700+1017611960+1020764656+1022886779+1023078133
1111+1021532091+1019425393+1018563614+1020178125+1023911082+1028266824
1103+1031243590+1031422548+1029849263+1029192893+1030264837+1031114724
1094+1030302675+1029417689+1031319484+1036694773+1042489744+1044642641
1085+1042732630+1040112266+1039225910+1039121116+1038915563+1040234502
1077+1043867999+1047158571+1046942640+1043490480+1039737413+1038400672
1068+1040803736+1046056789+1050531884+1050396891+1045606115+1039705990
1060+1036646339+1038563702+1044221662+1049768125+1052864316+1054865428
1051+1057850410+1061741857+1065039781+1066256376+1064481862+1060945016
1043+1058913057+1060147382+1062947280+1064423987+1063302169+1059954154
1034+1056263287+1055126909+1057447016+1060052317+1058864624+1054045667
1025+1049772089+1049597383+1054334032+1062577040+1070580910+1073741823
1017+1070692551+1064334905+1058718820+1056410244+1057649830+1060439855
1008+1062104673+1061482609+1059356235+1056996415+1054750183+1052015654
1000+1048598810+1045784569+1044917096+1045320634+1045250723+1044314348
991+1043317504+1042789712+1042930543+1043706483+1044335970+1043666482
983+1041493116+1038836355+1036789837+1035277165+1033221711+1030116582
974+1026814694+1024412351+1022968293+1021810222+1020600401+1019612062
965+1018890754+1017348244+1013519645+1007579230+1001188358+995211402+989375133
955+984041719+980429051+978883226+978001122+976040011+972884432+969984856
945+968394273+967354402+965080421+960893474+956394451+954136038+955098792
935+957937033+960630768+962199657+962668925+962285279+961163316+959511183
925+957749499+956073077+954178706+951853481+949408471+947181554+945418933
915+944761337+945758181+947837204+949695538+950610651+950622760+949900514
905+948659631+947162022+945460807+943647014+942311786+942122090+942682531
895+942348760+940054166+937189979+936386795+938284193+940661239+941227013
885+940271683+939766522+940842863+942890462+944328249+943898982+941792787
875+939209829+936966047+935498998+935496908+937153293+938991015+938928744
865+936807774+934435414+933252117+933438498+934746338+936773468+938547044
855+938968961+937745591+935418492+932815714+930850350+930249188+931133166
845+933076186+935181083+936064484+934908502+932530736+930499642+929705036
835+930003202+930682204+931095183+930880405+929789217+927795025+925615028
825+924612850+925523350+927731024+930057185+931589173+932103415+932334769
815+933603546+936802081+941608568+946332100+948711523+947960233+945689423
805+943811845+942467104+940647905+938336014+937007850+937633301+939158225
795+939840325+939579204+939543456+939850704+939547420+938688380+938304086
785+938741786+939827352+941739958+944242482+946036888+946377145+946281648
776+946536715+945924382+943430794+940376333+938418538+937622706+937778960
766+939252352+941835383+944542235+946545508+947458820+947470712+947468694
756+948098181+948998663+949542383+949678097+949693736+950322719+952731116
746+956326486+957504738+953680248+947771040+945121415+947107030+950190681
736+950703049+948582656+945991842+944899285+946091519+948607738+950345494
726+949996948+948350653+947230852+947412621+947807077+946658951+944047596
716+942470708+944016173+947659615+950041922+949223531+946742124+944859212
706+944114264+944276285+944531496+942153730+934676283+924511948+917596239
696+916922499+920037934+922666802+922781471+920755927+917906009+915793833
686+915005785+913727928+909387826+902560911+897097116+895837421+897694675
676+899512504+899464431+897033836+891997074+885781700+883087173+887689910
666+894719278+897358669+894316173+888462174+883895401+882589940+883111822
656+882441181+878930281+873746058+869074563+865934335+864861166+866868692
646+871717126+876056796+876285196+873503243+871847002+872043978+870172310
636+863553326+856345144+855111756+859875216+864502241+864756155+862376948
626+861244750+862117628+860763878+852870713+840988874+832400347+831292583
616+835594342+840791754+844973944+849956290+857400295+864192038+863840610
606+854828725+843786827+837760068+838357771+840903107
##END=
