##TITLE=<SNM>
##JCAMP-DX=4.24
##DATA TYPE=INFRARED SPECTRUM
##DATE=2/5/2025
##SAMPLING PROCEDURE=Instrument type and / or accessory
##ORIGIN=Admin
##XUNITS=1/CM
##YUNITS=ABSORBANCE
##RESOLUTION=4
##FIRSTX=4497.3318
##LASTX=599.83466
##DELTAX=-1.4281778
##MAXY=1.8250288
##MINY=0.35473093
##XFACTOR=1
##YFACTOR=1.6996905e-09
##NPOINTS=2730
##FIRSTY=0.37739614
##XYDATA=(X++(Y..Y))
4497+222038151+222079128+221346857+219813231+218368344+217706805+217712626
4487+218047788+218658145+219579012+220631138+221326114+220957568+219192756
4477+216895929+215815012+216878640+219127214+220729889+220788190+219887136
4467+219251127+219554131+220335936+220685002+220395622+219958640+219756298
4457+219877019+220263854+220582990+220414769+219785808+219032198+218366783
4447+218039722+218303345+218766575+218578208+217689446+217187238+217992170
4437+219734942+221182932+221484656+220751000+219694105+219074788+219322192
4427+220253947+221168186+221538205+221504908+221332093+220722507+219287703
4417+217435116+216102937+215750259+216145229+216963768+217997676+218833731
4407+218955206+218365100+217765771+217915827+218912967+220097491+220591178
4397+220027531+218804151+217648048+217006147+216774787+216547967+216216908
4387+216127783+216393545+216405241+215515094+213994302+212806674+212541560
4377+212992902+213658579+214242741+214665958+214973978+215392654+216102131
4367+216764634+216679823+215616913+214131541+212927237+212252443+212001829
4357+212023344+212148904+212178870+212040755+211877075+211856280+212008983
4347+212314285+212715199+213018344+213061565+212927623+212702329+212247288
4337+211570301+211086644+211085206+211247395+211042301+210382567+209648771
4327+209263129+209344889+209601096+209622961+209441887+209532450+210044916
4317+210484598+210528678+210596447+211115102+211796261+212140804+212191196
4307+212309060+212539947+212626565+212538720+212597792+212925011+213144361
4297+212956274+212648202+212591813+212569457+212120517+211344516+210853267
4287+210964239+211286391+211217290+210641211+209886040+209254572+208984321
4277+209338753+210219361+211016806+211299892+211232667+211049823+210675981
4267+210057207+209372821+208854692+208703251+209077602+210004044+211344130
4257+212744288+213707008+214038944+214015396+213824170+213328029+212576961
4247+211892102+211350846+210821600+210387529+210313589+210816638+211949736
4237+213332781+214201975+214181021+213652057+213079309+212483225+211808290
4227+211323265+211388176+212018452+212786580+213136803+212853682+212254827
4217+211888753+212118623+212919540+213902670+214570504+214663065+214274285
4207+213655020+213060723+212811618+213098369+213520867+213322979+212326331
4197+211133758+210352847+210243611+210932187+212168402+213142379+213217582
4187+212542963+211687112+211210890+211488663+212280602+212752371+212447455
4177+211843007+211646732+212050837+212793067+213491060+213891430+214023479
4167+214076431+214158368+214263045+214364286+214492214+214755540+215151053
4157+215291167+214687508+213489815+212514698+212349248+212768748+213154934
4147+213236484+213260523+213569437+214145375+214542397+214265377+213309636
4137+212326979+212090885+212656425+213183146+212903689+212145117+211922488
4127+212614677+213551429+213869092+213361186+212516715+212015979+212157689
4117+212654672+213032827+213163245+213260821+213496215+213770867+213810423
4107+213435126+212760261+212147046+211959257+212261034+212707414+212920206
4097+212968863+213198435+213634417+213929847+213821558+213331518+212726736
4087+212464446+212842513+213614341+214211390+214183985+213293540+211737663
4077+210546703+210943865+212806849+214466457+214572134+213537139+212627442
4067+212427765+212721406+213084517+213140223+212811145+212554763+212848089
4057+213422554+213517799+212820683+211743063+210872782+210506199+210710575
4047+211491468+212650183+213636416+213923588+213590267+213248302+213326135
4037+213628736+213735553+213661893+213833516+214439946+215126365+215410819
4027+215196484+214822940+214692084+214825728+214881696+214682493+214528843
4017+214765867+215197325+215234427+214622018+213796764+213397814+213587812
4007+214122423+214899809+215928878+216878991+217298754+217214346+216969992
3997+216679840+216281626+215854481+215580986+215618106+216058559+216804647
3987+217577772+218174804+218552082+218708100+218723705+218858366+219405934
3977+220404757+221413188+221644829+220697749+219146186+217989452+217596253
3967+217676366+218116135+219129213+220517202+221473452+221405122+220536770
3957+219532722+218906777+218949577+219963006+222200148+225218112+227553146
3947+228059825+227459550+227235483+227449906+226957990+225403674+223681172
3937+222850710+223726690+226632192+230469483+232698875+231706295+228931123
3927+227234378+227805337+229255642+229762637+229786290+231185360+234068699
3917+235935576+234438841+230248292+226013260+223624660+223437660+225391909
3907+229979725+237463416+246163316+252670926+254809282+252707572+247116620
3897+239844669+234426041+233730592+237234107+240667100+240363307+238623569
3887+239905056+244067445+247170450+248102854+248745947+247978047+243835103
3878+239483224+239374671+243574443+249202321+254188491+256881902+255640918
3868+252469373+251295509+252326647+252240345+249375382+245935672+244942829
3858+248444258+257855230+272047752+281411786+275209828+260446067+248129347
3848+242044306+242092103+246569455+253250459+260638029+267907473+272997847
3838+272797802+267585988+261525634+257169196+253995968+251287443+249744752
3828+249951372+251549892+255188208+262507343+271470919+275120054+271949281
3818+267889711+264567444+258860786+251408480+246617130+247071330+252270626
3808+258891698+263118086+265796576+270407607+275774772+276856075+273712164
3798+270475621+267780089+264385757+261193418+260032844+261343877+264690042
3788+269661624+275326359+280168733+284139230+289312172+296549266+303195377
3778+306856224+309701812+315533120+325961764+340430270+356492859+370499135
3768+381245495+390589803+399327121+407027409+414533807+422173183+427352647
3758+428157211+427796152+431496871+441771287+456171551+467398131+471819286
3748+475315841+483032576+492419422+496754696+496943467+500627950+512080999
3738+530377556+549442067+560759122+561733169+558322742+557453092+561185198
3728+567084081+571387303+572955962+573999479+575341774+574737343+571475534
3718+568263241+567769028+570685559+575980747+580138893+578396122+570354131
3708+560315478+552607264+549868142+552172492+556268462+558256218+558047424
3698+558503587+561697821+567898815+576733025+587583010+597349186+599249658
3688+590780961+579447739+572610788+571612018+574958868+581479926+591033170
3678+602472682+610106622+607750828+600454803+596438121+594283617+587164124
3668+575272410+565276118+560184709+558337435+557347538+557052055+558431733
3658+560529322+561037562+560949471+564678911+574473773+586819546+592399557
3648+585337645+571687485+559646522+552060660+547941369+545233037+543008011
3638+541919432+542763798+545436887+549785417+556652211+565858422+571851743
3628+567650989+557054229+549138238+548480890+555161192+565375220+572456910
3618+573264665+572156939+573792894+577685295+580778287+581824048+581293119
3608+579104284+575617479+573205541+574254949+578366630+582816015+586167318
3598+589634590+593596356+595779405+595025094+594058972+596222173+601458658
3588+605980458+606319916+603619544+601352753+601480821+603729728+606139316
3578+606485577+604184419+600641505+598211717+599443444+606087275+616937366
3568+626393296+628450942+623849327+617897737+613432185+610135518+607172418
3558+604421899+602467703+602193191+603476117+604658046+604932909+605871537
3548+608243463+609543081+607548206+604093663+602008734+601392380+600907320
3538+600008879+598733879+597027052+595265028+594528321+595609957+597780171
3528+598931732+597669988+595093406+593611926+593972003+594247918+592290566
3518+588524550+585343887+584325795+585054366+586280307+587200524+587527217
3508+587273711+586874743+586890384+587141715+586617625+584758884+582192297
3498+579675541+577142934+574380422+571835577+570208775+569928056+570898561
3488+572117523+572349918+571723640+571399752+571449654+570711719+568857081
3478+566780814+565038007+563544534+562312597+561386102+560447544+559023645
3468+557098310+555311107+554184620+553442021+552595621+551696409+550894335
3458+549959705+549010135+548724927+549115093+549339072+549180074+549371615
3448+550207144+550867649+550463420+549062035+547466269+546580873+546884281
3438+547749933+547419523+544721466+540914596+538500764+538113334+537858916
3428+536034611+533388665+532001763+532802960+534697821+535849102+535622317
3418+534917838+534696664+534783773+534221248+532563797+530610758+529657401
3408+530041816+530694045+530385131+529235814+528486974+528914908+529947869
3398+530424372+529763938+528241288+526595900+525588223+525598568+526296279
3388+526786775+526349933+525082403+523747296+523045306+523080339+523418148
3378+523566801+523508133+523627644+523984285+524052527+523491510+522756311
3368+522440349+522460583+522433931+522424112+522836757+523854429+525130551
3358+525832716+525089066+522850118+520309691+518872782+518882777+519812357
3348+521134103+522417450+523107166+522814699+521609975+519928432+518446637
3338+517869348+518399119+519442286+520145854+520307482+520524903+521203923
3328+521770095+521604014+521017853+520388769+519324808+517612265+516091333
3318+515620967+515828675+515685141+514915646+514151340+513904216+514016434
3308+514140784+514286983+514723158+515588144+516633168+517240685+516964490
3298+516215369+515844666+515955165+515904702+515607115+515900073+517217470
3288+518814569+519813199+520145959+519987487+519399432+519029150+519805133
3278+521532966+523049269+523745297+523644231+522483518+520226264+517958596
3268+517049635+517635480+518472938+518250922+516902280+515401512+514387172
3258+513671610+513049084+512707838+512823036+513339938+514090532+514723964
3248+514647586+513494307+511776820+510676738+510783520+511391528+511503921
3238+510897316+509688138+507920889+506095743+504943972+504557698+504642317
3228+505157150+505829402+505841115+504911499+503871068+503445308+503255345
3218+502543571+501154039+499370133+497464822+495923691+495462828+496160750
3208+496935787+496500208+494715074+492660584+491540269+491674544+492479949
3198+493263472+493828031+494183620+494099211+493382352+492239523+490994261
3188+489745947+488460602+487121182+485656605+483926703+481903879+479854509
3178+478307592+477687310+477908974+478403047+478445935+477548090+475935982
3168+474560723+474028005+473732909+472847759+471785972+471550596+471991505
3158+471906500+470761497+469285452+468286086+467668680+466805202+465432257
3148+463940818+462814997+462008714+461105294+459955452+458865189+458098744
3138+457526436+456910011+456190452+455416959+454733520+454407107+454481101
3128+454419942+453512419+451761406+450101045+449492651+449914238+450469083
3118+450428334+449858340+449220664+448749982+448346070+447797923+446997777
3108+446060762+445291968+445001290+445125851+445045721+444184557+442819467
3098+441750351+441177937+440614360+439931798+439650483+439999760+440426782
3088+440240887+439313585+438062712+437031925+436501066+436316749+436118791
3078+435751840+435321767+434877912+434315492+433710851+433463481+433781618
3068+434206396+434050764+433190337+432008197+430776926+429576551+428594017
3058+427978189+427502458+426763822+425738470+424923456+424782483+425080841
3048+425009758+424160553+423026280+422236059+421787996+421371740+420981469
3038+420773516+420643835+420388154+420042910+419651552+418939112+417730425
3028+416509956+415950061+415919482+415586792+414610536+413578592+413040860
3018+412751479+412217710+411528204+411139722+411018281+410552158+409377452
3008+407879175+406739993+406201279+405894610+405339204+404494522+403722677
2998+403258132+403023878+402977483+403138726+403201883+402676670+401559511
2988+400407249+399662581+399207890+398610893+397695129+396815906+396492299
2978+396800827+397292093+397488860+397234827+396603640+395779333+394988305
2968+394276987+393419330+392287302+391202230+390610353+390477411+390357513
2958+390077566+389934033+390070588+390087701+389577918+388720717+387954413
2948+387336586+386644064+385882494+385281008+384912479+384672229+384533710
2938+384539742+384505726+383959087+382669604+381116164+380052799+379726387
2928+379816196+379896501+379628793+378780324+377387811+375761570+374307443
2918+373463954+373478542+374017817+374330202+373960376+373097214+372250709
2908+371741662+371447898+371061414+370561451+370169111+369912133+369620332
2898+369238828+368786732+368184125+367427043+366754300+366411511+366368553
2888+366370972+366169296+365671156+364989506+364388511+364069568+363957351
2878+363806138+363504343+363063154+362347487+361184985+359818913+358868046
2868+358659637+358887930+359080803+359123271+359105666+358946388+358501656
2858+357868154+357261233+356725816+356197658+355704146+355313700+355021374
2848+354804969+354647549+354452817+354098841+353596774+353048697+352470532
2838+351810237+351079351+350339769+349674460+349251330+349183824+349220260
2828+348851801+347883259+346670365+345697720+345139789+344931415+345041844
2818+345451964+345937164+346110820+345753338+344990224+344116787+343324567
2808+342603080+341866828+341145621+340583587+340269729+340160773+340121357
2798+339978525+339654637+339259422+338875954+338333383+337467555+336514899
2788+335905173+335693924+335520092+335133188+334645743+334198802+333726367
2778+333201119+332777534+332521468+332295174+332028097+331785497+331470166
2768+330774558+329591120+328289504+327426166+327212743+327334849+327289401
2758+326842846+326157653+325554871+325175225+324836855+324287200+323580546
2748+323008412+322649702+322270513+321715773+321122949+320685617+320407563
2738+320149042+319829924+319539106+319366291+319139121+318558992+317650347
2728+316788201+316245911+316001873+315915606+315788134+315383380+314674201
2718+313921327+313339059+312858242+312304625+311638018+310963031+310413095
2708+310052877+309846713+309689468+309476185+309199289+308963527+308814453
2698+308609411+308195819+307656159+307236010+307057830+307007753+306903741
2688+306707291+306496041+306271221+305964762+305620430+305342061+305078280
2678+304692006+304199091+303720133+303252958+302683069+301993248+301349541
2668+300960883+300868654+300888572+300783930+300486063+300119427+299832642
2658+299643064+299448402+299166772+298814865+298427504+297985438+297492278
2648+297039130+296697883+296399350+295994140+295440102+294897180+294587355
2638+294531807+294490848+294221210+293713795+293131369+292626829+292272187
2628+292054257+291908585+291797928+291708803+291585732+291391368+291194303
2618+291047369+290848341+290482617+290040516+289744718+289680350+289676581
2608+289500434+289143180+288816346+288641813+288476258+288102837+287509873
2598+286914612+286539841+286417997+286423415+286407477+286244201+285884106
2588+285457101+285169824+285056011+284993695+284920439+284836100+284703841
2578+284522680+284358790+284204509+283972447+283647507+283281153+282884815
2568+282472433+282126400+281915993+281824273+281804021+281830865+281862163
2558+281787083+281482518+280969193+280483187+280285106+280359853+280409123
2548+280194595+279798678+279500355+279450436+279507702+279400429+279047733
2538+278644242+278386334+278256303+278185816+278253585+278523257+278813725
2528+278863820+278668211+278448335+278346234+278328770+278326035+278286741
2518+278155430+277929715+277680434+277460155+277298772+277278503+277452388
2508+277693076+277774504+277609545+277325091+277117401+277071760+277103812
2498+277077616+276981653+276921178+276926351+276881622+276701758+276460403
2488+276257167+276067940+275838175+275623682+275507169+275463667+275426144
2478+275385360+275308562+275086143+274705025+274356432+274218510+274228539
2468+274226277+274223928+274343018+274542257+274600154+274371143+273943279
2458+273544925+273356943+273400585+273557672+273661193+273573400+273270150
2448+272917051+272765487+272898886+273169856+273411596+273569139+273605224
2438+273458640+273160247+272873567+272763401+272848423+272973703+272947279
2428+272762226+272639278+272761016+273034739+273239886+273339409+273474088
2418+273678358+273802814+273760575+273664980+273636645+273635067+273584253
2408+273522464+273522902+273579502+273653127+273740113+273844072+273941420
2398+274005823+274034824+274051060+274097666+274218913+274401792+274521146
2388+274404721+274006471+273438546+272744902+271722058+270076898+267725891
2378+264860314+261766217+258670507+255739336+253071525+250571163+247972173
2368+245253636+242923091+241571520+241292940+241841561+243118279+245217569
2358+248266025+252423838+257927102+264942408+272968881+280436652+285554239
2348+287474086+286632035+284492066+282623436+281497632+280606012+279472038
2338+277961066+276074042+273906686+271706611+269780241+268336529+267428585
2328+266962480+266703222+266378283+265931324+265635824+265805273+266409318
2318+267082044+267478645+267580306+267693348+268157402+269020862+270014092
2308+270815306+271269769+271411216+271408972+271464642+271620817+271689585
2298+271503234+271198739+271102618+271338976+271685360+271849390+271791598
2288+271701877+271711029+271735296+271619204+271336276+270993066+270698022
2278+270492892+270377641+270310416+270182926+269893931+269485916+269123699
2268+268907768+268790203+268688068+268593682+268556896+268610673+268702463
2258+268699184+268538819+268361866+268359481+268500875+268553354+268383275
2248+268118073+267987550+268082462+268286119+268413556+268400914+268345594
2238+268369896+268485848+268622000+268749103+268896564+269026245+269001435
2228+268770951+268488356+268356027+268431984+268627190+268783856+268754346
2218+268529911+268284015+268180827+268179495+268130154+268023074+268004260
2208+268121492+268207935+268123947+267973138+267926410+267981571+268060878
2198+268168431+268291327+268327955+268260905+268237129+268348102+268459705
2188+268394987+268207356+268110955+268151335+268136537+267951729+267754542
2178+267762064+267998895+268326096+268586616+268688524+268654245+268589912
2168+268538626+268434246+268267393+268166800+268226188+268377804+268513990
2158+268613320+268705882+268823044+268979640+269130713+269208038+269242176
2148+269333213+269491737+269642547+269766722+269905714+270051018+270143387
2138+270159255+270122943+270054806+269964576+269883849+269860266+269911080
2128+270011076+270137128+270293495+270482897+270698811+270969307+271349514
2118+271811043+272194984+272351861+272288563+272127286+272001970+272033426
2108+272276973+272638243+272946192+273135787+273276673+273440352+273627755
2098+273811038+273982380+274165487+274396813+274666012+274874911+274934930
2088+274916853+274977135+275119738+275221295+275290344+275444590+275637832
2078+275708248+275674040+275708722+275883448+276128625+276368402+276602498
2068+276910956+277333051+277718501+277861402+277775679+277643894+277583156
2058+277630778+277791617+277957120+277959663+277806679+277722814+277909498
2048+278346918+278868676+279384947+279909230+280331202+280402215+280100245
2038+279768029+279720792+279920276+280128615+280209113+280210569+280260014
2028+280422116+280653687+280866918+281014519+281184493+281614286+282402122
2018+283163798+283304613+282762077+282127558+281938173+282185420+282538852
2008+282774193+282916814+283098589+283356251+283619593+283863508+284103233
1998+284312133+284649241+285582048+287245864+288833635+289299846+288602485
1988+287573924+286872460+286642309+286769431+287022621+287186283+287239324
1978+287276145+287324118+287355872+287375580+287518272+288128226+289414956
1968+290838224+291339800+290591819+289443922+288786083+288664485+288749104
1958+288980149+289379432+289720608+289771194+289608987+289510902+289682717
1948+290262829+291541213+293734502+296127679+297034115+295652964+293278076
1938+291606808+291003008+290952545+291097674+291333295+291547911+291671210
1928+291903535+292817721+294758732+296977971+298316935+298922383+299695736
1918+300199523+299187672+297086226+295726396+296006659+297212891+298064902
1908+297909305+297089698+296354779+296055158+296015146+296021388+296238073
1898+297032572+298281482+299236311+299722774+300743426+302743140+304251272
1888+303773857+302044272+300666031+300071384+299899341+299957589+300165051
1878+300388644+300628509+301090985+302379451+305550610+310969203+316511796
1868+318260599+315066435+310140372+306765819+305565338+305532409+305741905
1858+305845426+305829645+305851212+306107559+306798327+308167169+310460823
1848+314001597+318900799+323659028+324894331+321459847+316726447+314056163
1838+313767975+314309389+314775933+316228412+320124390+325488908+328906840
1828+328935069+327680514+326420102+324214434+321092896+318821370+318354160
1818+318908128+319458029+320165945+321940558+324776222+327099543+327380543
1808+326045191+324935220+325628128+328605992+332874882+336189925+336897947
1798+335899177+335885184+338907690+344417214+348311439+346392486+340544416
1788+336108637+335424392+337183610+339413686+341499001+343147194+343705195
1778+343770982+345621973+351120171+359396064+365855859+365974564+360949714
1768+354750824+349891530+348151249+350350043+354406492+356641723+356582633
1758+356429597+356690748+357185101+359772273+366245499+374585006+379529726
1748+378711345+375021041+372053206+371336733+372650623+374503192+375198975
1738+375699676+379568721+387826345+394355118+392164214+384595746+377436836
1728+372324597+369704671+369700638+371384986+374520797+381027407+392483051
1718+405638859+411810501+407227191+397985492+390288850+386615940+387669556
1708+392970320+400017819+405500095+409750680+416577497+426667700+434129527
1698+434673816+430433366+422681598+413542261+407913226+407872792+411649083
1688+417870697+428184634+442327675+450794548+445699106+435187562+428457743
1678+427977313+432334750+437624222+440867200+443745016+448118198+450523403
1668+446949699+441288822+439698421+442580094+445179154+444005570+441720298
1658+443302143+452002534+468738813+487555919+492618012+485150539+481732853
1648+485462328+487903898+481687124+471884022+466063796+466216587+472111332
1638+483115862+495283946+499268646+491952632+482984743+479823754+482518760
1628+487486906+491976303+496024231+499223198+499621781+498444830+500128688
1618+506043807+511102288+509578200+504518668+501837864+502856482+505476584
1608+507420996+508316350+509139816+510450515+511847166+512890402+513926344
1598+515641727+518091539+520531846+522206586+523054178+523512341+523956055
1588+524539516+525306276+526238137+527317773+528817805+531715889+537448796
1578+546148836+553813391+554498899+550571289+549881363+554515626+559428609
1568+559468797+556778139+555863112+558746293+567589340+585527188+608536841
1558+616536960+604498698+590865755+583277860+580678308+581050449+582775582
1548+585851636+592456367+604329600+620535898+638510672+653053627+654147046
1538+642770796+633483192+633024012+637827408+640755581+640674855+643051479
1528+651044725+662517693+674006441+685274191+696710478+705295951+708892028
1518+709597946+708766064+706592483+705533080+708972684+718461648+733551733
1508+750250034+756776809+746132848+731856198+725267564+726981053+733755057
1498+740462502+741706502+737569397+734554185+737774825+746278380+753547683
1488+753649871+748322630+743141973+740960397+741271940+742665190+745223045
1478+750272267+758271194+767903446+775782861+776763992+769989988+762414472
1468+760322529+763895391+768362836+769109573+768178940+771600098+782224281
1458+795450996+799013127+789268939+777222400+769769130+767026607+767049051
1448+767104177+765144581+761731348+758752537+757203516+757705899+761175381
1438+766776503+770077097+767917824+764194731+763539732+765378203+766266615
1428+765174248+764426600+765462647+767395171+769819418+773675629+777667062
1418+777214335+771200323+764167939+759798333+758269862+757804861+757131767
1408+756917291+758113669+759614998+759749378+759617944+761728332+766224042
1398+770842139+773657393+773918089+771685804+768913893+768480243+771005906
1388+773821792+773653045+771070081+770024635+772840731+778228780+783626578
1378+788290684+793383811+799317447+804365196+806912742+807811603+808750162
1368+810234377+812428087+815940141+820315919+823190508+822835480+820477232
1358+818266899+816784648+815495410+814264806+813533218+813422684+813541074
1348+813588766+813602232+813805907+814671313+816762625+819940412+822845580
1338+823897618+822973087+821325595+820037199+819380377+819381078+820158183
1328+821712044+823939209+826752219+829849209+832729549+835209694+837581549
1318+840170615+842994146+845808769+848359330+850637694+852908063+855425800
1308+858145600+860756338+863030424+864945203+866351989+867044300+867440357
1298+868440004+870178182+871807368+872630763+872531801+871494983+869535316
1288+866941270+864164661+861600143+859296740+856776547+853727039+850740163
1278+848659862+847636580+847357649+847525414+847686236+847419860+847017560
1268+847231405+848234628+849400708+850166451+850678373+851361005+852090068
1258+852341084+852233355+852660132+854193443+856553165+859196095+861663896
1248+863405300+864170061+864536241+865312645+866651469+868285074+870122003
1238+872078513+873872168+875420558+877041819+879035151+881389051+883904966
1228+886122662+887227302+886717134+885335948+884920112+886859860+890811456
1218+895123340+898393916+900228250+900853932+901047297+902210781+905167499
1208+908852088+911487444+913075951+915183043+918184438+920519612+921116328
1198+920919457+921407673+923057760+925812276+929802868+934787705+939764617
1188+943773935+946439519+947732334+948170753+949086728+951463773+954517489
1178+956591057+957311492+957706428+958480307+959391372+960362824+962088377
1168+964864566+967499711+968470953+968012054+967920035+969455310+972240616
1158+975186253+977911242+980504657+982375671+982838638+982606629+982970424
1148+983827765+984233571+984511730+986101219+989475386+993400751+996216356
1138+997271340+996948435+995941844+995449631+997329763+1002196071+1007397068
1128+1008971548+1006321113+1002913982+1001897573+1002908932+1003512101
1120+1002993586+1003270693+1005844680+1009845160+1013446357+1015809095
1111+1017222263+1018176391+1018655209+1018248772+1016964443+1015797452
1103+1016400621+1019897035+1025473959+1030463777+1032813539+1032924634
1094+1032196063+1031305267+1030414120+1030166120+1031697397+1035425890
1085+1039822568+1042511368+1042997129+1042459818+1041406798+1039627941
1077+1038041959+1038722277+1042985696+1049519555+1054960346+1057160859
1068+1056397570+1053628816+1049876897+1046863229+1046610249+1049565494
1060+1054023892+1057930250+1060372942+1061811850+1063871671+1067683696
1051+1071885957+1073741823+1072408820+1069773956+1068055206+1067813938
1043+1067955893+1066787991+1063744865+1060684626+1060243121+1061968744
1034+1062505634+1061304277+1061527870+1063900286+1065242967+1063731189
1025+1061306591+1060062591+1059904645+1060363684+1061746764+1063940334
1017+1065620860+1065484656+1064071979+1062833590+1062341516+1062416001
1008+1062778322+1063036002+1062279937+1059492386+1055323930+1052819238
1000+1054230793+1058111271+1061154466+1061651028+1060405065+1058460056
991+1055399397+1050588216+1044602539+1038817100+1034549262+1032622419
983+1033067712+1034974075+1036766117+1036918592+1035059150+1032345172
974+1029919873+1027464837+1024229258+1020981616+1019198832+1018922777
965+1019074832+1018789870+1017372283+1014300262+1009757280+1004359062+998452919
955+992651490+988264280+985962631+984603117+982314864+978781208+975779813
945+975052784+975735627+975058395+972145161+969237187+968346602+968667403
935+967992626+965374734+961836519+959352657+959282872+961035567+962384912
925+961813585+960374467+960287568+961794368+962802921+961989205+960374958
915+958999453+957375877+955307430+953663024+952707843+952101378+952132098
905+953081036+954414249+955494272+956007947+955427993+953260795+949994216
895+947010145+945524597+945709124+946646630+947356125+947692427+947893997
885+947939656+947662619+946652311+944469963+941633318+939602183+939205143
875+939557927+939199603+937795973+936108855+935043701+934808536+934619870
865+933611386+932265829+932225782+934391858+938158646+942023484+944079447
855+943197558+940660463+939134236+939633042+941026011+942089131+942401306
845+941919262+940959312+939764337+937672674+934184817+930873281+930317735
835+932682927+934860576+934525397+933571900+935070774+938680036+941561148
825+942314267+941582820+940581420+940916810+943536315+946793285+947672578
815+945299951+941696440+939400963+939369261+940678418+941952857+942998933
805+944411260+945602307+944754575+941812305+939756341+941303539+945643758
795+949225316+949635401+947825474+946016740+945601045+947239068+950485869
785+953190378+953040638+950343703+947699370+946745312+946995697+947615277
776+948908442+951438805+954525976+956443351+956122479+954235473+952299793
766+951392445+951947921+953931715+956876159+960042233+962476579+963261189
756+962422084+960997413+959545601+958138675+957125913+955900639+953074374
746+949223072+947087154+948234016+951754557+956216110+960724936+963938211
736+964741617+963966125+963653810+964716859+965726185+964694767+961711256
726+958753065+956873424+955350563+953536148+951508941+949889152+949812213
716+951590228+953671581+954520014+955025764+956629211+957874613+955825734
706+950811369+947299525+947996536+949995198+949501652+947099568+945297356
696+944733604+944820222+944879697+943677288+940524540+937294993+936432041
686+937131857+936705571+934553241+931960738+929280846+925450726+920160376
676+914702613+910744424+907939760+903158387+894395119+886334262+887246660
666+895365940+903415645+908823683+910998877+908800959+902826995+896238290
656+891788870+889029093+885735302+882354331+882792260+889097896+897119337
646+899688274+894146558+884153387+874464185+867586871+864590246+865923529
636+870388940+875118974+878312962+881211678+885057368+887476916+884526510
626+875742832+865530207+858450761+855420049+854628075+855061655+858371297
616+866211647+877032912+886588785+891135694+890162278+886838539+885797091
606+889790278+896680006+898491545+887976003+869555445
##END=
