##TITLE=<SNM>
##JCAMP-DX=4.24
##DATA TYPE=INFRARED SPECTRUM
##DATE=3/5/2025
##SAMPLING PROCEDURE=Instrument type and / or accessory
##ORIGIN=Admin
##XUNITS=1/CM
##YUNITS=ABSORBANCE
##RESOLUTION=4
##FIRSTX=4497.3318
##LASTX=599.83466
##DELTAX=-1.4281778
##MAXY=1.7463025
##MINY=0.18904018
##XFACTOR=1
##YFACTOR=1.6263709e-09
##NPOINTS=2730
##FIRSTY=0.20980065
##XYDATA=(X++(Y..Y))
4497+128999260+128916836+129373078+130137546+130899796+131187976+130654835
4487+129668202+129125854+129529862+130619112+131864120+132806096+132975212
4477+132188700+131047143+130525053+130937288+131702425+132074960+131798885
4467+131142146+130542488+130260576+130370825+130890103+131544184+131696222
4457+131115951+130438451+130225173+130128943+129640248+128991628+128673433
4447+128597652+128251064+127430679+126559811+126210391+126415909+126829931
4437+127484764+128584156+129578623+129516128+128404687+127296792+126992835
4427+127335383+127670473+127556421+127033937+126319586+125391280+124167226
4417+123011889+122620040+123313912+124691058+125972824+126573618+126382568
4407+125675153+124880954+124325183+124043600+123886817+123744399+123488095
4397+122901338+122045514+121477740+121727832+122735722+123943604+124716657
4387+124717820+124159548+123505430+122815955+121772076+120374582+119163429
4377+118652599+118846269+119277132+119448227+119372529+119533976+120162248
4367+120864092+121172758+121070122+120695635+119948264+118796106+117694350
4357+117219692+117434042+117973193+118558200+119071779+119405980+119574876
4347+119703276+119684759+119212621+118329282+117628144+117690438+118445670
4337+119207325+119296959+118573657+117440218+116515457+116234360+116534633
4327+116971964+117234453+117366773+117486157+117620924+117845774+118231127
4317+118612413+118671509+118316144+117860846+117753932+118134888+118712895
4307+119133862+119372657+119594126+119802887+119952680+120215269+120681104
4297+120940615+120520866+119646342+119025418+119005463+119390523+119889608
4287+120327497+120562004+120486499+120099102+119509403+118921794+118597076
4277+118756993+119415866+120250352+120789172+120886063+120890167+121180445
4267+121630126+121779360+121533208+121323412+121475835+121872091+122289393
4257+122540823+122397682+121968075+121837202+122290924+122899643+123217517
4247+123270823+123186686+123022737+122970018+123175911+123446242+123429512
4237+122991861+122323138+121762328+121547107+121713768+122134570+122588622
4227+123005182+123635259+124593507+125367605+125361906+124743420+124200751
4217+124119638+124459996+125087388+125796607+126239344+126117816+125394872
4207+124325256+123393331+123065662+123384663+123962991+124559937+125380817
4197+126507971+127361953+127243678+126224153+125066058+124441937+124481582
4187+124879534+125309251+125751254+126275278+126627877+126461143+125899087
4177+125476901+125611027+126359644+127475657+128504408+129021561+128901911
4167+128398786+128037676+128252347+128879390+129220683+128879729+128250395
4157+127899134+127841275+127765402+127620850+127588709+127708111+127881561
4147+128078530+128264652+128328650+128292899+128329758+128415187+128305616
4137+127981759+127760290+127882413+128291460+128853910+129499123+130066969
4127+130271543+129945323+129229616+128496996+128114400+128181321+128443562
4117+128575141+128540956+128538849+128680415+128917432+129180250+129396332
4107+129473038+129424267+129440915+129670539+129931808+129843017+129357374
4097+128969592+129154449+129775886+130311857+130468100+130347122+130261611
4087+130526509+131164639+131721510+131630685+130835359+129858932+129248133
4077+129123554+129284424+129525666+129718778+129713216+129393180+128871703
4067+128460860+128353094+128419053+128417816+128321549+128308777+128504280
4057+128864172+129237725+129446495+129455648+129506251+129830694+130249123
4047+130393080+130287751+130259880+130269106+129855359+128894609+127960374
4037+127690904+128089479+128663080+129031905+129194809+129279926+129235553
4027+128926594+128523677+128480074+128900748+129317738+129454090+129730340
4017+130530577+131404836+131541610+130775813+129721187+129082590+129128016
4007+129693426+130446881+131126845+131655698+132096547+132443520+132481598
3997+132018036+131209827+130454815+130004703+129891605+130097516+130574107
3987+131219631+131939818+132587513+132858678+132508471+131753312+131242555
3977+131455741+132215362+132929731+133221218+133146967+132921980+132676597
3967+132479243+132469916+132882967+133793050+134850315+135526825+135678048
3957+135574789+135410190+135137935+134809488+134736960+135141976+135760920
3947+136034210+135770632+135416164+135549456+136212764+136840119+136881633
3937+136412518+136060222+136306777+136913728+137180523+136848044+136474024
3927+136705737+137498314+138170967+138179992+137784184+137774885+138557613
3917+139528047+139605807+138606933+137499056+137131542+137384602+137823683
3907+138660807+140444480+142971501+145152887+146182684+146075834+145025432
3897+143336423+141826435+141426513+142298619+143409061+143595915+143288615
3887+143616411+144473069+144983762+145361181+146320135+147152275+146764933
3878+145912417+146065875+147366781+149037474+150567015+151451434+151107246
3868+150138324+149782491+150104616+150093640+149263433+148274931+148002116
3858+149059500+151898743+156106490+158852644+157420315+153784180+150808155
3848+149481530+149727582+151045704+152854142+154892038+157156865+159090441
3838+159418375+157891107+156084501+155347382+155440141+155460023+155245938
3828+155197232+155508014+156454984+158417512+160686627+161613055+161285946
3818+161226410+161284755+160274602+158750724+158319367+159615729+162094713
3808+164426753+165654014+166617641+168503444+170499048+170950691+170574233
3798+171104286+172380692+173393539+174226659+175596227+177690343+180350831
3788+183608860+187508720+191836932+196577811+202361386+209804385+218540008
3778+227598563+236590801+245664858+254858518+263950203+272233084+278753393
3768+283500759+287316418+290727548+294181740+298598148+304714843+312294524
3758+320423975+328814255+338468006+351078146+367297357+384264388+397795881
3748+408629688+420622955+434752154+446547371+453116496+457916324+464955728
3738+476037758+490766019+506587260+520539115+531440576+539543603+545618115
3728+550920326+556322149+561038418+563197036+561494733+556315845+549733380
3718+543910498+539926657+538196428+538535210+539405510+538686276+536027218
3708+532882562+530862550+530940759+532946844+535870031+539160403+542741546
3698+545859631+547691122+548994172+551879830+557558315+564463730+569223575
3688+570701550+570960474+571388496+571763561+572069469+572955858+574974038
3678+577886266+580120931+579967885+578233954+576160032+572631919+566912754
3668+561578549+559398088+560477543+563016650+565276859+567161306+569180512
3658+570370647+569462489+568086140+569066974+572170986+573988476+571742231
3648+567719102+565913413+566702463+568605308+570537400+571684033+571694184
3638+571341512+571524610+572070935+572789912+574421006+577510799+581599309
3628+585443152+587998017+589295754+590391115+592997362+597902079+603306247
3618+606750287+608671494+610840740+613048431+614158305+615169264+618042901
3608+622121627+625134237+626958910+628928933+631167959+633195520+635259731
3598+637131462+637597415+636807706+637083305+640009790+644512982+648157052
3588+649321899+648413228+646882258+645488062+644332230+643367559+642293454
3578+641099287+640908054+642756549+645512910+646742333+645508805+642852496
3568+640144145+638500590+638878733+641064984+643194576+643255340+641238993
3558+639130144+638482998+638767907+638446496+636882396+634597193+632294178
3548+630429191+629543095+630206073+632425674+635255626+637217733+637412265
3538+636144288+634372682+632775451+631239351+629212155+626833498+625217796
3528+624944835+625182760+624857391+623972028+623420682+623886709+625035211
3518+625529018+624055660+620557380+616488990+613905758+613891245+615439806
3508+616550853+616699354+616947320+617506802+616951425+614581013+611912720
3498+610935661+611762532+612559132+611539744+608766891+606182230+605821715
3488+607587714+609291043+609572836+609413853+609965749+610896960+611427782
3478+611246260+609983927+607499757+604871410+603545674+603438696+603089542
3468+601889219+600642901+599464713+597286415+594180680+591961518+591653741
3458+592135417+591826577+590641903+589887999+590628086+592242066+592784066
3448+591108699+588126655+585762950+585274384+586327416+587453855+587704460
3438+587316385+586632444+585674479+584812828+584530632+584699583+584845849
3428+584623940+583966716+583241142+582821585+582305643+581040047+579159924
3418+577100954+574976273+573057082+571668310+570402459+568803249+567391058
3408+566689379+566240211+565796796+566252305+568159695+570365700+571219032
3398+570472751+569395165+569381788+570578190+571717566+571453804+569895312
3388+568271767+567243583+566377497+565300534+564340517+563755748+563346196
3378+562953174+562634109+562217851+561467136+560792211+560810865+561364116
3368+561824866+561891750+561598082+561400472+562288290+564572174+566659180
3358+566345063+563450572+560064731+558175738+558032185+558642535+559198022
3348+559805220+560767766+561455555+560615856+558186366+555768421+554721473
3338+554857880+555346813+555926964+556555602+556660784+555617538+553693143
3328+552055928+551795501+553073630+555137877+556800453+557075979+555900174
3318+554183358+552796272+551785313+550997509+550687899+550759328+550377227
3308+549163343+547830900+547041997+546548557+545946526+545567797+546073404
3298+547526495+549354980+550962876+551882139+551783773+551045885+550739428
3288+551328961+552051750+552147513+551883165+551811956+551776700+551265705
3278+550343730+549689328+549812688+550510299+551124717+551149382+550623727
3268+550148684+550292128+550836034+551020708+550640622+550203878+549871619
3258+549019167+547151650+544768851+542890670+541992224+541723441+541513223
3248+541246712+541225639+541508972+541795639+541916910+541829429+541233995
3238+539933584+538511351+537761772+537547486+537183600+536709803+536689866
3228+537011020+536949670+536199871+534987783+533521096+532074015+531227316
3218+531317509+531853719+531969346+531293944+530123050+528987888+528198031
3208+527560928+526555649+524949073+523144227+521881783+521709973+522566787
3198+523618976+523782430+522718880+521198722+520349311+520458818+520499058
3188+519155621+516487364+514017011+512977282+513057067+513022324+512135715
3178+510699629+509382872+508420289+507643040+506948178+506275048+505327639
3168+503845485+502021838+500256645+498721498+497511316+496813888+496518755
3158+496115177+495355483+494514758+493802524+493137970+492610630+492421338
3148+492287900+491686529+490608319+489399127+488142584+486829455+485707157
3138+484855767+483810542+482096291+479857852+477702715+476226756+475756074
3128+476150673+476747939+476809583+476145395+475203116+474634253+474772162
3118+475357115+475751640+475442653+474296717+472499090+470457602+468623180
3108+467240528+466311369+465737741+465389027+465136883+464886058+464548193
3098+464065710+463495051+463002453+462769073+462835958+462916512+462493804
3088+461318182+459732385+458384477+457716845+457719996+457996769+458108254
3078+457969648+457829796+457806671+457602793+456864905+455657985+454358123
3068+453294463+452640244+452310478+451850058+450866842+449594760+448545980
3058+447804940+447233144+446948566+446934493+446662118+445730761+444487815
3048+443580169+443167503+442829747+442104392+440923676+439537763+438230241
3038+437256408+436867966+437115199+437615200+437662624+436728004+434970105
3028+433185012+432098043+431722393+431482049+430937227+430233459+429737600
3018+429488388+429205532+428670642+427899440+427044385+426236351+425417432
3008+424384008+423133695+421958952+421047129+420279078+419513484+418757528
2998+418034885+417391625+416984529+416867179+416811840+416590151+416245725
2988+415827744+415109097+413974118+412871537+412374285+412373919+412116534
2978+411077868+409563757+408360502+407920459+408002039+408019191+407529306
2968+406419065+404955053+403685060+402968904+402595233+402073903+401232005
2958+400341767+399708365+399275066+398758060+398140857+397715986+397524826
2948+397157348+396286351+395094603+394111681+393826369+394262161+394715251
2938+394252852+392741086+391051244+390046515+389690802+389385407+388918244
2928+388615231+388579901+388352715+387592764+386630438+385972518+385624537
2918+385209269+384494469+383569562+382629519+381788061+381119622+380720516
2908+380566004+380415194+380059114+379530674+378896172+378099902+377209372
2898+376503221+376091618+375694564+374971519+373932670+372947402+372407161
2888+372377769+372553207+372506883+371972213+371000248+369931897+369138009
2878+368730511+368574790+368501235+368375970+368066104+367516114+366823157
2868+366152373+365590510+365099158+364633974+364291601+364227575+364384799
2858+364447761+364152005+363520802+362747547+362000790+361403414+361023328
2848+360795775+360578081+360266199+359752089+358961720+358102597+357575990
2838+357431153+357233579+356664349+355897215+355235080+354724452+354247870
2828+353738414+353202461+352631435+351945588+351094455+350232474+349622124
2818+349305624+349067626+348734232+348290231+347730969+347038525+346288213
2808+345598995+345008472+344485236+343992968+343467460+342784655+341836696
2798+340716413+339792312+339413730+339496666+339595654+339396908+338921719
2788+338279374+337490470+336584914+335680603+334875831+334117896+333283914
2778+332399834+331613386+330954476+330354900+329826717+329332507+328663555
2768+327736815+326758731+325904446+325155929+324536930+324152997+323949669
2758+323691514+323202875+322516295+321805124+321187224+320588198+319847158
2748+318947575+318053746+317309628+316695100+316100435+315457174+314753663
2738+314022408+313374419+312947130+312748897+312610327+312316403+311773194
2728+311083169+310454201+309980112+309556121+309048571+308448629+307833075
2718+307283983+306835969+306398858+305766702+304819274+303716345+302791107
2708+302214199+301839905+301424856+300903288+300391138+300004713+299724221
2698+299396671+298895865+298294915+297791341+297462198+297197227+296846863
2688+296346057+295726801+295073828+294483305+294054550+293853274+293804605
2678+293681501+293297916+292688775+292045881+291506813+291027775+290463658
2668+289778452+289108273+288557221+288050972+287494935+286952349+286544722
2658+286270222+286019727+285720177+285385610+285031820+284613052+284114481
2648+283647592+283311302+283020512+282642003+282223363+281895630+281636669
2638+281317091+280902794+280478052+280137969+279927403+279803090+279605058
2628+279137785+278366033+277506984+276838527+276428756+276156675+275963389
2618+275912667+275992360+276024776+275847303+275489409+275112201+274832093
2608+274663380+274571355+274479055+274270816+273928131+273622021+273522025
2598+273556878+273515556+273322270+273054404+272756815+272430768+272186082
2588+272188574+272389721+272497194+272315013+271945152+271564682+271216078
2578+270916309+270728520+270598911+270357872+270001297+269751022+269738304
2568+269825236+269833866+269808982+269965216+270451931+271205377+271984257
2558+272534411+272749906+272695703+272472346+272076209+271453050+270693777
2548+270064076+269751553+269632573+269379934+268810080+268067519+267455795
2538+267145233+267064678+267028488+266932468+266829851+266816639+266871099
2528+266868735+266750836+266598743+266532702+266573712+266608088+266502540
2518+266264139+266022769+265856017+265748086+265718950+265831719+266036238
2508+266129693+265932613+265471332+264972871+264671764+264593189+264530263
2498+264284092+263926546+263738409+263849327+264044006+264007394+263666321
2488+263188456+262748725+262405545+262114480+261766884+261295781+260800545
2478+260466179+260317128+260177569+259913074+259565753+259203955+258793415
2468+258309375+257876570+257682698+257729462+257740291+257425148+256826086
2458+256271130+255990033+255915600+255860956+255750185+255624223+255493130
2448+255287914+254991480+254714983+254554644+254460805+254336382+254172781
2438+254022338+253911053+253817855+253706864+253577512+253461299+253339753
2428+253140603+252869071+252635838+252492687+252376620+252283899+252329857
2418+252540881+252756449+252850509+252891958+252985083+253106244+253196034
2408+253281536+253427472+253637415+253825808+253867881+253731566+253567434
2398+253565729+253721890+253863923+253885289+253815327+253705032+253565033
2388+253343876+252858425+251819118+249981379+247184851+243277313+238200914
2378+232206241+225838849+219617228+213745201+208160189+202807623+197782074
2368+193246393+189368595+186303357+184128669+182969667+183236910+185456933
2358+189830590+196198422+204517072+215114879+227715986+240094286+248850670
2348+251759362+249308213+244595132+240935377+238930538+237099047+234504290
2338+231372113+228173547+225030229+221910861+219143523+217406074+217026392
2328+217530222+218056848+218111931+217959069+218375895+219945217+222529512
2318+225410387+227881785+229761652+231415505+233278990+235414629+237601888
2308+239697965+241697637+243524399+244996511+246041351+246814056+247541463
2298+248301743+249007014+249584948+250098894+250625373+251092994+251399122
2288+251641151+252026422+252548614+252937879+252959521+252654492+252263467
2278+251972512+251787307+251650918+251559662+251486933+251326942+251012220
2268+250605088+250253515+250099847+250162773+250299381+250377791+250416878
2258+250450393+250383234+250114726+249716609+249390251+249261192+249265499
2248+249271069+249253881+249274642+249349589+249440918+249522132+249598582
2238+249701730+249860236+250069318+250327289+250674336+251136533+251655389
2228+252116157+252459410+252775617+253252876+253993788+254924394+255897202
2218+256846701+257839738+258967295+260197983+261426416+262656040+264001731
2208+265537685+267248179+269061968+270889262+272700247+274537766+276400078
2198+278199153+279880236+281516699+283244913+285086042+286873095+288446339
2188+289848562+291194528+292472987+293609285+294601699+295481473+296188100
2178+296600143+296758118+296907389+297156107+297292770+297109471+296641996
2168+295965165+295020926+293755275+292300242+290929520+289758534+288604846
2158+287318599+286018554+284822610+283665459+282476185+281293947+280293305
2148+279712567+279624354+280207235+282366147+287157399+294384903+302690323
2138+311047143+319305158+327554158+335823973+344145061+352481175+360827880
2128+369347055+378236603+387555052+397051249+406114660+414161430+420938282
2118+426265743+429946792+432157928+433601490+435228223+437963987+442637927
2108+449981113+460374144+473417364+487851299+501817154+513298106+521003237
2098+524873723+525362399+522920852+518241928+511890094+503947699+494520036
2088+483697003+471102219+456392098+439724928+421571794+402836565+384756802
2078+368212442+353625279+341235984+330922518+322319381+315285768+309663649
2068+304991304+300993536+297678408+294838946+292226651+289909912+287957975
2058+286344326+285195732+284554927+284252170+284306960+284951156+286378043
2048+288871741+292776421+298297004+305818908+316073645+329606311+346564436
2038+366891068+389919234+414003181+437193408+457957005+475159284+488043119
2028+496348374+500452387+501495487+500720840+498599054+495127527+490454027
2018+484696161+477802987+469846922+461038807+451523004+441297678+430228219
2008+418266066+405714711+393140852+381048523+369655711+358908652+348746912
1998+339317196+330847901+323415878+316885197+311004411+305637166+300890351
1988+296866544+293447462+290481542+287938350+285776726+283915459+282334280
1978+281015709+279888152+278903141+278032803+277243570+276574985+276081032
1968+275630452+274982354+274117056+273289781+272703985+272318586+272043829
1958+271945207+272076465+272261670+272271492+272121452+272010442+272043371
1948+272170048+272355455+272629643+272883748+272810359+272270466+271534850
1938+270955248+270637741+270516323+270517221+270609228+270784410+270987499
1928+271156780+271393257+271852303+272432601+272918436+273378434+273943102
1918+274358828+274323444+274067946+274061936+274426299+274937092+275331049
1908+275498223+275538500+275652606+275913015+276214104+276470352+276748499
1898+277146047+277601886+277929802+278100805+278330374+278705731+278937316
1888+278754383+278325884+277999618+277927914+278088876+278376771+278621237
1878+278708682+278682844+278699153+279003723+279860720+281215409+282416759
1868+282658238+281924271+280982084+280440230+280349781+280478290+280625545
1858+280744416+280913825+281191092+281496414+281733276+281976514+282468965
1848+283484761+285082872+286732639+287418119+286804086+285766391+285225766
1838+285362741+285857042+286464552+287362413+288801614+290441888+291453342
1828+291582548+291378340+291171860+290835406+290451142+290404488+290852740
1818+291559349+292228685+292850213+293629496+294604320+295495455+296057557
1808+296400554+296805230+297473816+298511125+299833453+301067182+301862095
1798+302376224+303195619+304784329+306964570+308680067+308895049+308104789
1788+307699929+308299432+309518666+310812004+312089474+313423456+314684176
1778+315832055+317255167+319453146+322311538+324736776+325674657+325429330
1768+324916905+324743373+325387660+327026414+329036054+330499224+331430948
1758+332480168+333787579+335240707+337185442+339957525+343022396+345283998
1748+346457128+347258602+348356052+349968675+352012106+354048793+355506318
1738+356629533+358483086+361309153+363380070+363066319+361498921+360262278
1728+359798597+360190996+361315163+362705035+364271077+366721860+370551116
1718+374734987+377049619+376835956+375699952+375064277+375398148+376816203
1708+379255404+382170162+384822587+387444666+391070485+395630996+399184250
1698+400628435+400871307+400435735+399758721+399954279+401559829+404215296
1688+407695435+412386636+417933185+421817414+422399105+421819174+422361430
1678+424640220+428192631+431851910+434807860+437654341+441082585+444291706
1668+446111506+447268437+449292151+452386634+455479761+457869817+460320490
1658+464052627+469763582+477511995+485542420+489698658+490270123+491825098
1648+495643030+499668688+501647177+502392065+503919443+507014329+511716855
1638+517881267+524626123+529748132+532139213+533888940+537238023+542600338
1628+549122150+555965445+563095701+570635875+578272545+586007544+594694168
1618+604830657+614634117+620843534+623137533+623656261+623689612+623541550
1608+623351269+623371060+624052875+625980605+629647031+635278349+642587451
1598+650611206+658161825+664608726+670087658+675025286+679618635+683775642
1588+687494988+690993489+694287855+697128069+699594757+702347966+706151825
1578+711269692+716901449+721597708+725572424+730614281+737767406+746878753
1568+757335040+768834134+780970991+792721569+803872499+816795987+834667439
1558+853834574+865835244+871758067+875990057+879193608+880319021+879214718
1548+877095167+875342985+874407193+874090254+873764445+871105864+863841766
1538+855435616+850544312+849017814+848276041+846203328+842787287+839352483
1528+837094326+836697419+837893052+839550093+840710690+841294799+841758627
1518+841940699+841091618+839149448+837117195+836175100+837150985+840347059
1508+844782378+847378510+845902441+842813015+840899871+840718239+841707539
1498+842569960+841963934+840176935+838917900+839078349+839998529+840363845
1488+839726741+838873116+838378209+837893931+836767638+834934829+833310698
1478+833214165+835301097+838774090+841438609+841567540+840350285+840180674
1468+841361207+842650880+843184781+843273838+843797696+845279190+847353003
1458+848201057+845802902+841691999+839050643+838339142+838358932+837950884
1448+836356365+833552873+830587980+828731202+828249930+828419467+828519519
1438+828235563+827173333+825173331+823127811+822012513+821641920+821019109
1428+819868188+819067924+819130227+819447239+819340078+818732806+817403772
1418+815014559+812366019+810732873+810254532+810061026+809382216+808346299
1408+807662211+807615301+807658620+807181085+806444956+806238036+806862166
1398+807769372+808027820+807046217+805060508+803083889+801952612+801424648
1388+800409694+798483064+797219264+798835333+803838269+810747239+817509834
1378+822928222+827001963+830261073+832973235+835190198+837346397+839848488
1368+842202885+843644724+844391775+845159128+845915708+846186176+846116323
1358+846233673+846632999+846997216+847093602+846970682+846790003+846673899
1348+846704611+846980064+847628822+848792130+850612553+853105921+855978459
1338+858779825+861335203+863801892+866337040+868988219+871933981+875537444
1328+879946229+884657147+888715569+891659645+894043727+896688749+899933859
1318+903965674+909002767+914676670+919997279+924237112+927298832+929301985
1308+930474749+931310416+932286229+933537274+934966067+936429456+937770951
1298+938883977+939765675+940328602+940251493+939202822+937099471+934051824
1288+930480393+927374548+925582272+924645381+923298682+921187927+919056869
1278+917444246+916291566+915545835+915279031+915444391+915882344+916465061
1268+917336938+918879488+921019269+922915115+923949859+924539246+925446671
1258+926858679+928390088+929673458+930719123+931500111+931391044+929712306
1248+926708125+923248839+919827448+916432004+913017649+909525599+905825530
1238+902120697+898985460+896676728+894793636+892940376+891434841+890878805
1228+891214361+891738074+891821267+891120174+889557979+887797075+887208861
1218+888537748+890923370+892923884+894272416+895842160+897951229+899771651
1208+900820102+901888856+903654305+905478539+906718883+908140492+910656217
1198+913594576+915652556+917139987+919749459+923932780+927815361+929524884
1188+929812357+931118449+934686509+939655216+944293349+947223572+947966445
1178+947173510+946151666+945801670+946253990+947453434+949410263+951795958
1168+954001779+955932881+958269026+961582084+965582527+969430657+972298651
1158+973724438+974355458+975936710+979100606+981764172+981473107+978832703
1148+976875581+977646819+980600058+983778614+985820322+986986635+988632023
1138+991542382+994844958+996647422+996068956+994484773+994238492+996652480
1128+1001403125+1007095573+1011859266+1014001611+1013297074+1011479363
1120+1010433551+1010269071+1009979912+1009431132+1009889756+1012662829
1111+1017243203+1021092800+1022284474+1022099178+1023176801+1025797781
1103+1028201433+1029459076+1029851292+1029718403+1029783051+1030875627
1094+1032090464+1031684834+1030586468+1031941010+1036954501+1043487600
1085+1048740848+1051436446+1051737699+1051263316+1052383526+1056241991
1077+1060995129+1062773845+1059810931+1054553798+1051364027+1051944472
1068+1053531808+1053397526+1053255988+1056039543+1060899109+1064596393
1060+1065726204+1064825008+1062581585+1060325187+1059788721+1060863779
1051+1061405449+1060081033+1058333175+1058481530+1060543028+1062060584
1043+1061391743+1060244780+1061597050+1066000997+1070951892+1073654745
1034+1073741823+1072643530+1070714041+1066999312+1062239944+1059646451
1025+1061020343+1064302762+1066704435+1067892811+1068683034+1068949325
1017+1067922057+1065174858+1061052301+1056739023+1054287727+1055146557
1008+1057952320+1059365280+1057592428+1053932013+1050575051+1048441061
1000+1047834522+1049338885+1052935970+1056931723+1058480137+1055859230
991+1050438277+1045485110+1042919103+1042042243+1040922180+1038073024
983+1033728888+1029803941+1028400950+1030326041+1034159072+1036526222
974+1034508996+1028371924+1020618637+1013278016+1007812571+1005641493
965+1006509045+1007621851+1006169163+1001925518+996477738+991153538+986239365
955+981459840+977011108+973841055+972508722+972224254+971386094+968841344
945+964896313+961409541+960234871+961051701+961608471+960856949+960451026
935+961885390+963748398+963654870+962065189+961521613+962659560+963547342
925+962351636+959191258+955850934+954170731+954415325+955152700+955162156
915+954753301+954390624+953751101+953037548+953122646+953642914+952905758
905+950432400+947800792+946487590+946577013+947497632+948422357+948252232
895+946696488+944953981+944283161+944763334+945851805+947342168+949058434
885+949888971+948308672+944424332+940712242+939682702+941104898+942513827
875+942541827+942377493+943291223+944262857+943301777+940344654+937324055
865+935714143+935442575+936004402+937053806+937773223+937270547+936038999
855+935713411+937131941+939720524+942498434+944458269+944539776+942773154
845+940735111+939552672+938576126+936983147+935210661+933879062+932950966
835+932741921+934055563+936684385+939131870+940220854+940147923+939693404
825+939211764+938830396+938888228+939616295+940958156+942933750+945532374
815+948215437+950126455+951126969+951768031+952417962+953328027+954347671
805+954373252+952937350+951579729+951700744+952269461+950988876+947627882
795+944915720+945128210+947398754+949564188+951157608+952916167+954679857
785+955879447+956730214+957130859+956887071+957197927+959046715+961294023
776+962017765+960811578+958610227+956038577+953359984+951288517+950917045
766+952629939+955126753+956422730+956345181+956612205+958140169+960066067
756+961385499+961912656+961639769+960417383+958476532+956659408+955850495
746+956262721+957275182+958027437+958266974+958462679+959041658+959970193
736+960815976+960877033+959701484+957487966+954888389+952671939+951595782
726+951810544+952562798+953400738+954624004+956243590+957800947+959167656
716+960931346+962948133+963740775+962350683+959519119+956704853+954593658
706+952992323+951529594+949310358+945559860+941480329+939193806+938428432
696+936627213+933196000+930100930+928494318+927928532+927289303+925261961
686+921471589+917460664+915257261+915075117+915962825+917239159+917522161
676+915229628+910627850+904259011+894304740+880192656+869580245+872652519
666+883973133+890530054+888834531+883570582+879991600+879570505+881255986
656+884391516+889086455+893681270+894077517+887793337+877281563+867978836
646+864462817+867352947+872063718+872486573+867856575+862959115+861145142
636+861618353+863051323+865336306+867553782+867661897+864047073+857523355
626+852191386+852341939+858010639+864724197+867838398+866236622+862472124
616+859409599+857609700+856718326+857925247+862898864+869738348+872313517
606+867193011+857656391+848902003+843086782+839285855
##END=
