##TITLE=<SNM>
##JCAMP-DX=4.24
##DATA TYPE=INFRARED SPECTRUM
##DATE=2/5/2025
##SAMPLING PROCEDURE=Instrument type and / or accessory
##ORIGIN=Admin
##XUNITS=1/CM
##YUNITS=ABSORBANCE
##RESOLUTION=4
##FIRSTX=4497.3318
##LASTX=599.83466
##DELTAX=-1.4281778
##MAXY=1.7255201
##MINY=0.27882072
##XFACTOR=1
##YFACTOR=1.6070159e-09
##NPOINTS=2730
##FIRSTY=0.2933192
##XYDATA=(X++(Y..Y))
4497+182524145+182994988+183092739+182415693+181482614+180587459+179466127
4487+178108345+177112972+177168367+178507177+180675270+182666720+183616472
4477+183497338+182905341+182358352+182166076+182569395+183417112+183953771
4467+183458579+182152390+181206755+181621424+183117831+184434127+184801154
4457+184612587+184475761+184401209+184194005+183863011+183340057+182458069
4447+181479461+181108632+181703134+182788673+183525694+183510042+182914279
4437+182011725+181005262+180294557+180430697+181548171+183018410+183900491
4427+183775052+183038606+182387727+182125722+181944758+181327762+180193820
4417+179109152+178742644+179197037+180042436+180871737+181519240+181823863
4407+181613987+181039756+180611845+180673508+180949756+180916616+180499647
4397+180011614+179645959+179469224+179640284+180174625+180677310+180743349
4387+180509569+180476077+180875409+181361885+181309068+180409184+178897144
4377+177278005+176061185+175636409+176046145+176870717+177568274+177937934
4367+178155839+178414284+178598252+178321614+177322699+175868705+174697098
4357+174462799+175266452+176695929+178073851+178670559+178219523+177384455
4347+177152696+177649353+178121586+178074723+177768802+177550081+177324387
4337+176824280+176077727+175506945+175531536+176032069+176390268+176209398
4327+175756785+175494372+175449882+175336719+175102198+175010603+175220627
4317+175593273+175950304+176177704+176021202+175235259+174125481+173502161
4307+173786105+174502726+174970657+175207182+175755413+176757332+177680973
4297+178030326+177918795+177715411+177527623+177433321+177822138+178921049
4287+180135440+180386133+179166067+177033822+175099972+174125055+174080064
4277+174543934+175256567+176077004+176808758+177375924+177843502+178245078
4267+178667166+179182683+179442371+178869178+177550563+176385261+176143359
4257+176800209+177817446+178686286+179200635+179565937+180236028+181282363
4247+182043622+181883596+181115791+180555375+180436130+180416602+180320557
4237+180236770+180200885+180212606+180241258+180082104+179646516+179389740
4227+179954513+181323107+182674546+183215397+182956562+182522903+182356238
4217+182366549+182304497+182134160+182009944+182084959+182337637+182497774
4207+182319036+181987338+181945166+182268093+182576461+182567559+182273971
4197+181869391+181571983+181581218+181841722+182141615+182493379+182922050
4187+183073823+182718888+182307835+182313936+182514576+182547939+182547364
4177+182689457+182778028+182699749+182728828+183115197+183706602+184072293
4167+183912712+183436547+183237688+183557128+183919388+183891552+183886081
4157+184538128+185460767+185482261+184286730+182966743+182557063+182849724
4147+183033283+182789137+182398650+182242797+182418290+182689531+182843956
4137+183009471+183369674+183731211+183711701+183266488+182806606+182762747
4127+183051829+183152121+182846404+182581468+182883179+183765909+184845681
4117+185651875+185826904+185390629+184753382+184296448+184153001+184383388
4107+184961643+185580513+185838439+185601710+184975793+184179799+183634906
4097+183752389+184362803+184701270+184246562+183369766+182954244+183464717
4087+184500222+185279080+185444021+185187634+184836167+184682706+184941151
4077+185515308+186054211+186381663+186595952+186802915+187057930+187408062
4067+187731952+187717469+187198094+186400004+185747048+185506574+185713853
4057+186363210+187405484+188495678+189101844+189037622+188595321+188115410
4047+187765297+187660572+187809731+187979975+187894946+187544220+187164935
4037+186933102+186779066+186650623+186850576+187716987+188947030+189688928
4027+189491218+188836241+188578278+189104366+190097310+190884310+190984324
4017+190466859+189735791+188994060+188165816+187335346+186925740+187284143
4007+188254332+189293378+189999243+190502929+191284495+192474017+193484374
3997+193692080+193320510+193163451+193614079+194459385+195311330+195810064
3987+195818910+195638225+195579826+195415034+194807551+194097069+193990137
3977+194602535+195395895+195949393+196283744+196465875+196379882+196016638
3967+195700777+195887953+196757257+197958536+198832142+199017686+198710875
3957+198287861+198011445+198065541+198502947+199173799+199806725+200113926
3947+200103800+200339434+201268601+202340769+202543727+201811825+201035860
3937+200899108+201497430+202649713+203929160+204574419+204034997+202816322
3927+202243185+203066348+204604166+205728131+206404620+207377220+208727250
3917+209501917+208688731+206346871+203680859+202026170+201871058+203032596
3907+205530495+209502065+214150829+217717615+219099876+218431417+216054821
3897+212545971+209323735+207923077+208681591+210175624+210648043+210554798
3887+211651372+213868813+215330615+215693413+216219743+216339118+214523549
3878+212102167+211837936+214162272+217357283+220160324+222143374+222647375
3868+221941510+221425603+221466142+220949586+219277279+217435321+216743494
3858+218206464+222792991+230160416+235406370+232918059+225837768+219769096
3848+216822070+217035933+219465660+222636544+225646549+228729529+231888488
3838+233691558+233031889+230998860+229095202+227544514+226176421+225468015
3828+225753851+226641811+228313821+231753090+236043989+237751069+236357365
3818+235116807+234750763+232923882+229388753+226692550+226914665+230459438
3808+235600130+239356947+241269581+243366053+245591135+245687477+244026463
3798+243009355+242892280+242548101+241983235+242125921+243436821+245828753
3788+249121386+252976215+256843672+260649004+265169695+270947079+277142173
3778+282472063+287027693+292048269+298736626+307573753+317590294+326766983
3768+334299125+340994178+347460346+354246344+362649886+373133041+383591458
3758+391530592+397955701+406288401+418712193+434195636+448530096+458887256
3748+467643340+478006806+489383169+497737788+502673019+508081967+516158335
3738+526576545+537372372+545741234+550243325+552299831+554004908+555979297
3728+558155643+560563283+562979380+564815348+565284948+564013568+562114361
3718+561673543+563795403+568116085+573459494+577700098+578694748+577200122
3708+575991832+576621291+579201698+583301396+587709352+590568343+591286485
3698+591440410+593130947+597025610+602396652+608511983+614251368+616914709
3688+615270015+612260177+610915878+611640251+613387091+615492520+618793145
3678+624287920+629732252+630470867+627466333+625719381+625977010+625015779
3668+621812515+618981564+618516192+620192672+622439786+624336805+626189834
3658+627915570+628689793+629059063+631875995+639452868+649532000+654449798
3648+650460369+643572410+639476680+638752827+639907743+641619459+642997066
3638+643602972+643936636+645205420+648381460+653615935+659818465+664069678
3628+664162700+663061861+664893156+669931275+675272941+677973112+677985278
3618+678214866+681156569+686515594+692023275+695625334+697242321+697797562
3608+697602690+696477149+694398907+692005695+690631723+691207141+693183385
3598+695242265+696413353+696448589+696321518+697717744+701053494+704849089
3588+707080217+707044239+706007121+705559071+705865882+705731615+704799833
3578+704734629+706505392+707981733+706748778+704533674+705165766+709028049
3568+712964365+715257805+716775316+717322397+715788195+712737224+710003375
3558+708597283+708062367+707553489+706529798+705506625+706434846+710219685
3548+714734164+716851648+716294181+715454457+715450155+714667476+711369335
3538+706683129+703799509+704297705+706161640+706573935+705677241+705744967
3528+707583532+709318466+708794010+706750114+706169874+707880922+709260160
3518+708028318+705128082+703070314+703274756+705592749+709015958+712364838
3508+714816653+716099086+716523176+716754100+716904316+716412647+715384060
3498+714712578+714514590+714072400+713535926+713934795+715168120+715586795
3488+714362223+712769122+712242292+712375668+711941119+711153693+710800148
3478+710149511+708051685+705545793+705198999+707906514+711821466+714153553
3468+713493643+710680940+707639464+705632213+705050712+706059345+708140479
3458+709786620+710215976+710579461+712059808+713561370+713124373+710713802
3448+707765497+705257156+703663017+703697956+705195290+705978414+703893199
3438+699577079+695878438+695277353+698390858+703926283+709200000+711353609
3428+709404145+705119774+701289388+699325236+698604275+697832724+696760963
3418+696282647+696989662+698305105+699039715+698350949+696803617+696363801
3408+698243313+701246734+703141602+702764320+700016376+695475341+690995430
3398+689015774+689624203+690169281+689255229+688373222+688998935+690438112
3388+691439920+691928102+692071493+691350681+689412640+686725747+683837454
3378+681269917+680149124+681650834+685234941+688863704+691299199+692450407
3368+692211249+690675267+688722168+687276389+686811796+687700108+689468498
3358+690317123+689387567+688307795+688483677+688889148+688220485+686914536
3348+685871558+685112469+684172082+682848256+681485634+681053681+682139016
3338+683931144+685387011+686469824+687412065+687737050+687180177+686696149
3328+687273422+688806882+690622005+692250639+693173741+692481711+689864251
3318+686665512+684946527+685276037+685961984+684934139+682060978+678912015
3308+677008320+677134204+679453014+683336142+687192565+689166064+688687006
3298+687071280+686091726+685964951+685459708+684175420+683505273+684777766
3288+687468888+689930346+691187558+691237333+690262378+688603034+687003182
3278+686051817+685709622+685490493+684912552+683981438+683239559+683072875
3268+683065902+682418454+680971489+679682083+679941492+682022850+684086255
3258+683427829+679481870+675053515+673789627+676515242+680380048+682353843
3248+682832382+684017045+686144468+687551450+687750032+688013373+689000196
3238+689511078+688188884+685436341+682463334+679560056+676717977+675026661
3228+675677076+678057233+680271818+681109316+680585602+678999845+676557451
3218+673699572+670946287+668552481+666897736+666826078+668673247+671209183
3208+672691310+672759333+672189998+671615173+671564359+672617797+674374763
3198+674989645+672878096+668665829+664699619+662969580+663755523+665546760
3188+666145694+664557415+661843075+659872098+659552009+660412058+661360605
3178+661483893+660379493+658213199+655828740+654618855+655401163+657021192
3168+657049900+654587106+651437030+649965585+650691070+652307538+653441388
3158+653803018+653764518+653395693+652308799+650372836+648135254+646164278
3148+644369480+642657022+641676726+641850902+642382109+642453768+642577575
3138+643355432+643954959+643172206+641180088+639249539+638172957+637514902
3128+636362804+634719334+633864626+634883718+637093037+638654760+638449502
3118+636816270+634813840+633186320+632142154+631683867+631547301+631022919
3108+629662373+628130397+627493928+627775517+628000507+627563880+626642781
3098+625346847+623581424+621690971+620255577+619374239+618891620+618905900
3088+619336518+619632313+619687837+620351864+622167655+624152985+624642354
3078+623089682+620402084+617847084+616215743+615567850+615117203+613756473
3068+611365634+609239361+608676961+609524956+610462635+610403476+609290360
3058+607699261+606147219+604786785+603435847+602136315+601541721+602032536
3048+602854457+603076850+602979970+603362668+604031739+604164745+603533134
3038+602575761+601881171+601839927+602071926+601330381+598925893+595877259
3028+593780472+593101052+593166294+593217738+592904511+592223608+591494302
3018+591095619+591021549+591004006+590890658+590529324+589731587+588613204
3008+587393083+585938217+584211777+582719376+581757402+580938004+580090380
2998+579740879+580239075+581163921+581718124+581263842+579742474+577838705
2988+576376495+575548715+574986500+574277780+573257871+572247087+571961418
2978+572614763+573317513+573012371+571649304+569767269+567728714+566203080
2968+566186056+567533063+568524449+567780529+565781104+563809386+562432187
2958+561542503+560952768+560495630+560012641+559468638+558909984+558278782
2948+557386798+556221571+555069881+554085060+553091486+552086859+551408589
2938+551118247+550809062+550191843+549317477+548180624+546707213+545198752
2928+544211075+543868546+543706054+543337303+542847340+542315688+541512907
2918+540446376+539696225+539648676+539714696+538940103+537331684+535939612
2908+535421832+535210714+534558148+533779290+533693166+534203268+534160132
2898+532628082+529982767+527630651+526625059+526636409+526492870+525664310
2888+524724072+524289968+524107150+523485739+522353114+521427007+521257727
2878+521434611+521059999+519818476+518180978+516805412+516196723+516549452
2868+517318370+517363398+516180737+514583223+513617800+513295226+512800813
2858+511543527+509695875+507972995+507033796+506954571+507202519+507104119
2848+506408639+505502413+504942684+504710016+504199803+503017662+501428604
2838+499960311+498882839+498101458+497383502+496685537+496136416+495667892
2828+494985246+494026870+493113151+492476349+491965467+491371689+490743677
2818+490151457+489373229+488188195+486862218+485887708+485233992+484259742
2808+482528628+480467448+478970782+478466243+478580555+478600547+478031656
2798+476896360+475770337+475279373+475328369+475106013+474005174+472311373
2788+470908285+470412982+470582076+470581557+469824916+468380843+466708369
2778+465311142+464474163+464046475+463647606+463117104+462471585+461648515
2768+460703344+459983978+459732580+459717744+459493645+458823053+457755446
2758+456484289+455218250+454150458+453463250+453218120+453207586+453031779
2748+452410294+451382004+450158025+448907304+447790998+447006947+446509567
2738+445798027+444427616+442743495+441640728+441532424+441904328+441956737
2728+441433022+440676826+440064169+439599947+439036064+438208654+437177953
2718+436168801+435419577+434894119+434182172+432955819+431444428+430200643
2708+429548188+429427126+429553455+429615470+429481722+429196573+428707352
2698+427824678+426540279+425138675+423953122+423174894+422812485+422663271
2688+422426375+421990787+421515067+421165862+420934976+420721224+420394348
2678+419794227+418870235+417833154+416954077+416238569+415489457+414607599
2668+413740428+413206440+413156702+413231216+412843066+411913251+410950721
2658+410332093+409905777+409385326+408790287+408344166+408110905+407872340
2648+407373142+406629112+405913715+405413441+405000812+404469494+403877793
2638+403436196+403149859+402844161+402461649+402062595+401612950+401035974
2628+400383630+399740300+399060287+398320818+397729154+397518333+397608054
2618+397689430+397523081+396963945+395952605+394712417+393672777+393034973
2608+392684841+392526058+392541635+392556657+392309562+391773051+391157983
2598+390632637+390242855+390038228+390023726+390010596+389779412+389384364
2588+389051812+388819776+388508255+387995704+387356268+386758113+386309581
2578+385997355+385768805+385596446+385391522+384996474+384391606+383763260
2568+383286909+383000906+382890266+382917416+382983474+382971642+382792904
2558+382357279+381634056+380783687+380059240+379536156+379101088+378679112
2548+378277127+377860975+377377280+376849263+376364531+376029976+375914737
2538+375967442+376068328+376153895+376166098+375978087+375553441+375049124
2528+374610198+374222790+373862273+373605831+373490369+373408845+373264897
2518+373130334+373124473+373217051+373292641+373339560+373428577+373552606
2508+373576975+373327506+372757391+372067661+371550251+371271184+371060586
2498+370839973+370715275+370683415+370545253+370233918+369937678+369764058
2488+369572413+369259408+368922888+368632471+368305187+367925753+367683294
2478+367747386+368002901+368157939+368112911+368033649+367993295+367789447
2468+367277824+366671287+366313514+366267782+366280466+366131734+365896397
2458+365766655+365724743+365577272+365261152+364930195+364747489+364686290
2448+364544308+364189651+363790634+363652881+363819008+364022708+364036913
2438+363856692+363571764+363296925+363199749+363340840+363471583+363238879
2428+362652927+362107626+361867837+361805971+361736352+361718623+361872622
2418+362122203+362301831+362367518+362364736+362308915+362235328+362272233
2408+362494107+362723918+362642245+362156548+361550530+361180481+361107932
2398+361119912+361023478+360810394+360607770+360565302+360715814+360865473
2388+360680949+359905985+358432315+356181566+353007381+348713441+343172860
2378+336533628+329315455+322134483+315254832+308569701+302091534+296188618
2368+291199384+287144509+283904359+281390900+279699287+279415602+281461984
2358+286201433+293008684+301256576+311259543+323029953+334372082+341793473
2348+343177867+339266179+333361112+328885912+326510058+324807763+322869018
2338+320862324+319060070+317306257+315376970+313536885+312364276+312002461
2328+312050863+312236537+312714074+313706684+315230130+317195951+319551220
2318+322218863+324965471+327440987+329439707+331118895+332873079+334954251
2308+337255145+339460124+341340082+342873950+344151413+345253105+346228727
2298+347102388+347858622+348486782+349046623+349602717+350112745+350518365
2288+350905810+351393769+351904131+352222217+352238945+352020854+351735222
2278+351550364+351496546+351434680+351258278+351053280+350988855+351128982
2268+351377190+351572136+351647837+351633372+351477371+351117929+350792350
2258+350897353+351419992+351909398+352114544+352214206+352346766+352392684
2248+352331188+352392128+352717076+353160749+353504576+353652195+353616626
2238+353511772+353534360+353802263+354227057+354605378+354792647+354772210
2228+354622699+354456980+354382762+354460541+354639427+354783708+354826510
2218+354838119+354914748+355105281+355431304+355835143+356136167+356178413
2208+356032278+355966739+356182901+356589522+356889916+356894404+356679762
2198+356468830+356458890+356726125+357195095+357721739+358200575+358543103
2188+358673921+358653558+358663201+358776438+358885113+358875469+358738754
2178+358544068+358434169+358562242+358912856+359283833+359530483+359702545
2168+359884695+360054865+360184199+360366164+360764513+361437961+362206731
2158+362744392+362907107+362896573+362978209+363174602+363363391+363508117
2148+363640901+363748425+363801946+363833139+363913885+364088580+364336528
2138+364568528+364671305+364627724+364597829+364785469+365193796+365607723
2128+365833677+365877666+365903703+366075209+366399304+366721433+366912781
2118+366999498+367066112+367131169+367156093+367101274+366989892+366954730
2108+367140590+367525067+367920004+368178746+368345986+368576280+368934164
2098+369312225+369546561+369576048+369501533+369530278+369804969+370224460
2088+370528155+370606786+370583123+370562575+370518882+370472816+370558087
2078+370832740+371182427+371443135+371506633+371358791+371147525+371110657
2068+371290657+371443543+371382900+371265695+371340172+371541498+371572839
2058+371325818+371015669+370908812+371087587+371459491+371828577+371996818
2048+371955611+371924789+372076228+372288236+372291204+372021594+371714895
2038+371616346+371706105+371807435+371856506+371911881+372004199+372131270
2028+372273994+372322285+372149037+371796605+371450924+371284500+371386424
2018+371677619+371885473+371818191+371597801+371445545+371427631+371541053
2008+371797198+372106197+372299067+372322434+372264795+372200926+372119216
1998+372016476+372030830+372396429+373136268+373859751+374074466+373688950
1988+373011942+372385969+372010208+371941554+372085278+372265352+372392126
1978+372530732+372777271+373059195+373099586+372733542+372265611+372237719
1968+372740663+373237228+373239787+372845629+372411524+372121108+372076599
1958+372388120+372924520+373309739+373359552+373260298+373239268+373328618
1948+373536769+374034891+374948869+375935990+376273252+375686521+374738419
1938+374066158+373776038+373740209+373920431+374232100+374483349+374585570
1928+374705631+375184467+376144548+377155036+377720588+378040603+378511797
1918+378729925+378004699+376653019+375723796+375779840+376533328+377260780
1908+377420268+377060900+376619341+376376733+376309192+376369872+376678426
1898+377354618+378189928+378733115+378982807+379565532+380697749+381524825
1888+381217124+380177707+379350445+379102794+379280790+379663524+380047928
1878+380270099+380345466+380521830+381250839+383002501+385722479+388286232
1868+389065610+387732957+385630866+384077118+383421955+383437348+383779728
1858+384128080+384335971+384492677+384714217+385046323+385577196+386494624
1848+388127226+390693650+393402167+394291888+392595528+390108662+388701792
1838+388542971+388795778+389071581+390011783+392310786+395308903+397225988
1828+397433953+396999626+396455845+395316989+393763760+392846666+393021361
1818+393682421+394112260+394427379+395317248+396945845+398505194+399124342
1808+398896756+398643763+399166550+400840471+403272665+405311332+406049465
1798+405906074+406233655+408029900+410942413+412956822+412221471+409794692
1788+408252924+408651644+410222676+411897079+413354949+414499332+415065812
1778+415393727+416672080+419848268+424342050+427712368+427910468+425809860
1768+423307083+421394672+420871885+422228499+424444642+425730784+426043381
1758+426579409+427424177+428245393+429904218+433287147+437381838+439919294
1748+440160715+439320731+438629183+438693387+439707731+441161558+442090076
1738+442837334+445341743+450322112+454668869+454572916+451445205+448313489
1728+446207392+445445855+446098347+447661590+450068860+454408866+461385916
1718+469012157+472898957+471550614+468118541+465621364+465219529+467198665
1708+471316797+476343567+480604274+484330251+489680855+497135034+503375212
1698+505780924+505506790+503486891+500818283+500079705+502567831+507310267
1688+513221453+520905963+530292100+536854518+536810195+534021711+533214293
1678+535861129+541179910+546816926+550993253+554804277+559625159+563736244
1668+564666505+564102881+565467692+569328603+573301304+575253476+576147055
1658+578664705+584975206+595754712+607529833+611923323+609704102+609376669
1648+612378644+614389937+612283396+608842977+607411070+608558383+612224719
1638+618493716+625467613+627992644+624094754+618848781+616507458+617302376
1628+619448567+621480632+623285889+624779292+625297072+625381786+626904786
1618+630488003+633822714+634143174+632731964+632580487+634538111+637479889
1608+640109885+642302736+644696542+647571557+650550424+653112768+655179883
1598+657144851+659374718+661846784+664357201+666860201+669383526+671848100
1588+674201180+676506489+678762838+680911774+683183256+686252698+690881637
1578+697099894+703064231+705953415+706558505+708562863+713221178+718066725
1568+720322184+721122443+723136816+727348341+734162120+744402371+755995304
1558+761106936+758596296+755878841+755532863+756340392+757422686+759003770
1548+761888577+767065710+774940270+784855092+795557339+804457519+806958961
1538+803702807+801391416+802974206+806473820+808803757+809972100+812206566
1528+816116770+820565970+825057972+830321452+835968667+839858768+841261893
1518+841625749+841640511+841263525+841320941+843190735+847853204+855366505
1508+863659518+867182425+862877877+856653537+853804041+854968675+858736304
1498+862281688+862686121+860486371+859438571+861700410+865744287+867966588
1488+866669541+863627694+860840954+859015668+858530379+859724686+862477599
1478+866136331+869940680+873327837+875470171+874990297+871853499+868494530
1468+867168999+868218134+870218263+871244774+871479555+873022362+876636140
1458+879793561+878587830+873918314+870108031+868699936+869126771+870309060
1448+871075790+871048715+870850282+870820535+870694651+870761042+872070996
1438+874954171+877859081+879035139+879171557+879625913+880038579+879306343
1428+877770138+877021805+877745065+879148042+880488558+882047981+883758362
1418+884103969+882292925+879706176+877776740+876747189+876258858+876154783
1408+876556767+877340410+877975396+878235250+878657931+879757880+881337035
1398+882903950+884150257+884677681+884124739+883062400+882737341+883466832
1388+883762664+881817280+878620025+877603826+880550647+885829260+890577704
1378+893690393+896028934+898234989+899555773+899245625+898217334+898223120
1368+900123551+903409749+906938591+909722586+911024751+910300452+907626318
1358+904021070+900819884+898649287+897251429+896165426+895187727+894442064
1348+894318183+894960586+895840812+896276252+896040210+895164508+893767170
1338+892239422+890997195+890178093+889821730+889811048+889651263+889002628
1328+888200663+887675761+887472358+887644383+888257633+888895660+889023399
1318+888699675+888358667+888387672+889081334+890245227+891030650+891060396
1308+891161801+892070364+893237224+893657531+893159483+892349802+891777500
1298+891406226+890696096+889197723+887013478+884571825+882281576+880444346
1288+879012885+877430911+875107799+872030939+868740958+865850217+863640602
1278+861961674+860529396+859278712+858233509+857260260+856297026+855594685
1268+855439128+855909803+857010346+858666649+860545419+862205950+863569314
1258+864980450+866634454+868234973+869499232+870730925+872370908+874234175
1248+875861992+877273425+878682336+879972262+881043651+882133808+883468019
1238+885116681+887088029+889098841+890736895+892271245+894537980+897702224
1228+901012605+903924636+906451966+908390007+909473488+910385760+912362374
1218+915620087+919093367+921751182+923388717+924193056+924495713+925083816
1208+926876389+929945608+933301090+935917512+937811267+939751978+942113441
1198+944601901+947011507+949555825+952284556+954788297+956731679+958097416
1188+958862589+959336602+960716583+963938095+967748229+969261883+967226444
1178+963785357+962364800+964633389+969532939+974491165+977422780+978058952
1168+977928098+979248808+983116803+987982082+990694196+990083320+988124212
1158+987060389+987428844+988918760+991124740+993124499+994019487+994288911
1148+995271877+997348042+999443419+1000345454+999955116+999164055+999098480
1138+1000228620+1002206941+1004372864+1005922940+1005762859+1003298952
1130+1000127660+999376286+1002292842+1006876679+1010467685+1012500231
1121+1013891339+1015034164+1015963646+1017191185+1018922040+1020585093
1113+1021918859+1023509809+1025764155+1028243788+1030169292+1031036981
1104+1031297207+1032066236+1033649471+1035230184+1035904856+1035320907
1095+1033833736+1032503531+1032614282+1034266876+1036300535+1038009506
1087+1039620782+1040874655+1041160695+1041440727+1043381735+1046511411
1078+1048454199+1048279207+1047658316+1048480311+1050930345+1053580371
1070+1054682916+1054392351+1054727276+1056235440+1056916343+1055471084
1061+1053861144+1054815476+1058357523+1062350364+1064964041+1065859103
1053+1065307348+1063361667+1060720914+1058888062+1058983161+1061295443
1044+1065139404+1068543548+1069699281+1068517511+1065828392+1062537002
1035+1060034448+1059909008+1061702842+1062636701+1061354416+1059602495
1027+1059171061+1060253948+1063207001+1068459056+1073568686+1073741823
1018+1067598043+1059482619+1054554064+1054286421+1056141157+1056146943
1010+1052821578+1048655228+1046979342+1048694841+1052315370+1055644963
1001+1057381307+1057765117+1057512310+1056391516+1053860921+1050645937
993+1048217415+1046903084+1045128167+1041287766+1036204397+1032500118
984+1031630352+1032045985+1031192464+1028889455+1026960019+1026273850
975+1026233421+1026520277+1027201477+1027544636+1026178379+1021800022
967+1014141772+1005505081+1000058895+999652757+1000973393+999227554+994169258
957+989337954+986823753+985756147+984281512+981222233+976771698+972250097
947+968564957+965304500+961847613+958596132+956504760+955932087+956565885
937+958155055+960502275+962442986+961993155+958807547+955381964+954298854
927+955274402+956147285+956091501+956332810+957679780+958722313+957345819
917+953656154+949984663+948027632+947316686+946596393+945564393+944710501
907+944218313+943853864+943633548+943577245+943036543+941467773+939531365
897+938385276+938179202+938044342+937339478+936229293+935441644+935691410
887+936764431+937412620+936691660+934890557+932893246+931433670+931077826
877+931960500+933425417+934403413+934064853+932277102+929843313+927957570
867+927196552+927371099+928061794+928973472+930169188+931697085+932631908
857+931784099+930078911+930319552+933357987+936359183+936416376+934082360
847+931543234+929394744+926861404+923589672+919963579+916881972+915795004
837+917754038+922334537+928052150+932972026+934904428+933340703+931213576
827+931961538+935202560+937290519+935883389+932497122+930335279+930732219
817+932200400+932898513+933191006+934579518+937182661+939593231+940736502
807+940832714+940725820+940705791+940268052+939380482+939123743+940471974
797+943121999+945925578+947572905+946898456+943967064+940508397+938372071
787+938212212+939497687+941137596+942588641+944095693+945277908+944873772
777+942777282+940708832+939918661+940303287+941754852+944133228+946043525
767+945796133+943598683+941080699+939230043+938089147+937956067+939232121
757+940913645+940931448+938855803+936797812+936721035+938216663+939460003
747+939354073+938428449+938519542+941299606+946435940+951438824+953649774
737+952629718+950377671+949154879+949734749+951173554+951795484+950815040
727+948524419+944992090+940263749+936089537+935398471+938603960+941411025
717+939330484+934161585+932060347+935878567+942432714+946800315+947011359
707+944145839+940030897+935949410+932028375+927784581+923956866+922037519
697+921583905+920332331+917467701+914420736+912305181+910783961+909275055
687+907175004+903521984+898652625+894911479+894089855+895679544+898036704
677+899718525+899565714+896449167+888990018+876266499+861057339+853194351
667+861002074+875986467+885450642+886557787+882089819+875783658+870765419
657+868079416+865760904+861512065+856520235+854452972+856793516+860875671
647+863271405+863413683+862250533+860051970+857223170+854294597+850343741
637+844698529+839623987+837998840+839886289+843281977+846519809+848693373
627+849531094+849668699+849170873+846119160+839234465+830644953+823833548
617+820228152+818792833+818143902+817941240+818875915+821245019+823763670
607+824393908+822760230+821484993+823671983+828735101+832027233
##END=
