##TITLE=<SNM>
##JCAMP-DX=4.24
##DATA TYPE=INFRARED SPECTRUM
##DATE=2/5/2025
##SAMPLING PROCEDURE=Instrument type and / or accessory
##ORIGIN=Admin
##XUNITS=1/CM
##YUNITS=ABSORBANCE
##RESOLUTION=4
##FIRSTX=4497.3318
##LASTX=599.83466
##DELTAX=-1.4281778
##MAXY=1.8575345
##MINY=0.40655816
##XFACTOR=1
##YFACTOR=1.7299638e-09
##NPOINTS=2730
##FIRSTY=0.43604484
##XYDATA=(X++(Y..Y))
4497+252054310+252278883+252549332+252940612+252834579+251478338+249194778
4487+247252125+246500126+246876694+247965053+249241463+250049623+250099564
4477+249809700+249792559+250155070+250453995+250361124+250080046+249842862
4467+249390392+248445845+247401588+247047019+247702460+248864275+249691350
4457+249729456+249101923+248139185+247187231+246664921+246746560+247079699
4447+247260411+247284133+247205491+246864721+246283529+245906531+246095512
4437+246730022+247431012+247827735+247621613+246822808+245980625+245756775
4427+246161182+246610414+246742770+246579595+246105401+245515630+245590189
4417+246826150+248374215+248861105+248077684+246948928+246333557+246574117
4407+247560835+248631416+248890477+248095135+246955043+246345185+246446050
4397+246740135+246616978+245813866+244558973+243539540+243492854+244456350
4387+245545519+245758257+244846545+243260477+241654736+240674994+240686622
4377+241362632+241874778+241757168+241386940+241468752+242205126+243063382
4367+243319652+242826853+242116044+241601900+240963239+239745917+238330174
4357+237620588+237977707+239017210+240114768+240688879+240466942+239862338
4347+239612149+239844646+240017141+239847971+239804145+240539520+242058040
4337+243482053+243707418+242461173+240636457+239381908+239076592+239371313
4327+239895225+240462670+240746642+240397672+239571665+238830571+238496830
4317+238605050+239325076+240630152+241640334+241307213+239856705+238590338
4307+238240714+238437069+238678438+238941376+239406233+240223850+241336964
4297+242182730+242152376+241549082+241270054+241482103+241532527+241152944
4287+240809796+240792776+240658456+239792775+238203055+236527596+235456498
4277+235382129+236254115+237434363+238154595+238444114+238981532+239823112
4267+240185985+239720783+239053145+238782559+238745210+238537589+238120330
4257+237705570+237535262+237858702+238685639+239521431+239834448+239743592
4247+239626688+239233238+238123397+236848279+236609683+237692150+239069770
4237+239629858+239223815+238511524+238223607+238541568+238994642+239087600
4227+239049149+239553594+240590598+241177079+240536006+239120228+238028510
4217+237830639+238465338+239676733+240900032+241320133+240751414+239991645
4207+239856585+240332656+240844509+240882116+240349350+239717424+239726313
4197+240594078+241661902+242022794+241336154+240021896+238901254+238598297
4187+239061363+239597557+239504359+238829089+238362992+238676784+239460912
4177+240145949+240722507+241356258+241699078+241312657+240419877+239639195
4167+239304524+239437362+239956915+240616594+241041122+241017246+240675166
4157+240351882+240234169+240143726+239822061+239371021+239148980+239315876
4147+239704745+239977605+239784747+238985908+237794927+236619502+235827106
4137+235668909+236167669+237006407+237787916+238519948+239580399+241023706
4127+242237203+242580660+242045413+240977985+239671255+238561104+238146998
4117+238389418+238771120+239021051+239201781+239219818+238899410+238415156
4107+238191048+238470145+239184175+240073957+240782112+240951507+240445959
4097+239510164+238577401+237911038+237531455+237340820+237111061+236609218
4087+236045873+236093196+237095092+238515676+239501706+239768606+239635939
4077+239500482+239603036+239952574+240127757+239499862+237962857+236179504
4067+235025820+235009627+236022306+237292291+237798562+237201538+236262194
4057+236023667+236680073+237497552+237823576+237813532+237956879+238288708
4047+238453245+238251877+237795461+237333912+237139486+237337684+237676508
4037+237652941+237045995+236220212+235807708+236143947+236974743+237653113
4027+237781490+237689308+237973659+238597608+238968319+238927697+239000224
4017+239519053+240027598+239802250+238776547+237743625+237521619+237993935
4007+238275530+237894879+237354274+237269448+237488181+237485872+237244968
3997+237196319+237502824+237919100+238253634+238565583+238999586+239679765
3987+240590633+241427648+241820220+241708708+241253068+240556454+239803611
3977+239359048+239385216+239615629+239700800+239528769+239145707+238704744
3967+238567702+239150393+240509820+242151532+243286404+243394573+242682042
3957+241892918+241611323+241841185+242274137+242708589+242998228+242900396
3947+242431576+242128120+242425133+243003655+243177270+242776619+242243542
3937+242058299+242511527+243657597+245024829+245666867+245090085+244011494
3927+243674962+244519161+245765372+246482830+246789594+247403603+248400848
3917+249013617+248524504+247061765+245487084+244641732+244729056+245579336
3907+247388771+250425226+253834976+255841282+255756094+254375443+252405778
3897+250294610+248947379+249192331+250822380+252469174+252906674+252709957
3887+253132195+253967935+254191026+254139224+254618638+254611747+252882522
3878+250758812+250330304+251822743+254281675+257068061+259291912+259604223
3868+258390296+257447058+257212717+256712407+255623824+254770599+254922180
3858+256577622+260191582+264968943+267189658+264190707+259205552+255724431
3848+254586458+255427297+257395945+259572301+261714650+264084622+266077819
3838+266207384+264440483+262515282+261389626+260671892+260122329+260155767
3828+260789346+261576695+262864079+265409854+268186799+268694535+267120267
3818+265855985+265171034+263832882+262181110+261735392+263171343+265929131
3808+268440124+269590914+270591914+272885776+275255265+275490519+274311494
3798+273685443+273558324+273262430+273307445+274354579+276233060+278651182
3788+281708172+285348920+289195653+293416612+298968366+306291277+314277399
3778+321462286+328022931+335367823+344568079+355696671+367496088+377884016
3768+385852531+391683744+395468133+397633033+399564401+401895750+403533258
3758+403714522+403818367+405841763+410484889+416598455+421973701+426207924
3748+431434465+438914970+446623631+450975722+453021479+457068822+465303049
3738+477627239+492092451+505442345+515593745+522971714+529455732+537058170
3728+546686072+556989795+565601226+572411596+578492327+582729306+583357821
3718+581107130+578730681+578709664+581232544+583268516+581631938+577373321
3708+573443777+571305786+571145952+571688573+570643575+567814776+566092062
3698+567813432+572541213+578497288+584360785+589090805+590956160+588943755
3688+585672804+584736957+586139315+587921703+589154339+590076887+590885459
3678+591321030+590757772+589361616+589100039+591160473+593247438+590872711
3668+583790291+576624940+572648400+571497386+570986670+570193326+569844408
3658+570177202+570806130+572570533+576734849+582492606+586289329+583945267
3648+576201945+568570978+564568942+564090407+565105361+565163175+563209101
3638+560818663+560470089+562510816+565447767+568457589+570999177+570921758
3628+567542449+564607806+565038209+568343442+572578492+575406637+574930031
3618+572022297+569944118+570393299+572568363+575194984+577661428+579491156
3608+580291046+580569575+581227307+582446712+583856788+585398548+587662951
3598+591250261+595659995+598852321+598848875+596361897+594387943+594911579
3588+596883879+597923365+597586815+597081302+597122785+597566901+598271766
3578+599446795+600656553+600399731+598246753+596549191+597838401+601443144
3568+604325520+604820628+604078758+603684257+603737385+603341506+601909586
3558+600067110+599288788+600144701+601129197+600382573+598720430+598749509
3548+600795955+602105769+600555395+597237931+594439073+593005431+592152412
3538+590654616+588147034+585551456+584155369+584396342+585442236+585767346
3528+584597830+582816751+581823504+581794562+581666737+580530297+578653711
3518+577037495+576145371+575240360+573260308+570647950+569358155+570656426
3508+573729299+576591726+577747908+576887378+574699153+572341688+570806474
3498+570300479+570106674+569298859+567560296+565305884+563230497+561841576
3488+561364867+561904249+563255890+564450798+564146464+561854187+558347258
3478+554911823+552759809+552827994+554953719+557290546+557609110+555419748
3468+552538406+551252641+551949100+553082921+553375266+552873681+551883603
3458+550525277+549419502+549163128+549193826+548239546+545583088+541735855
3448+538380319+537145650+537788980+538204809+536921732+534935960+534350203
3438+535777643+537749254+538606924+538332944+537809963+537068231+535475996
3428+533182237+531278397+530639443+531093137+531469756+530616772+528812230
3418+527311298+526375934+525222025+523794688+523106878+523539348+524036867
3408+523604087+522664554+522300441+522747451+523135750+522604018+521220437
3398+519783694+519097365+519247379+519295339+518233011+516469090+515367415
3388+515186461+514834200+513855492+513176812+513513844+514206719+514079066
3378+513043577+512317626+512835336+513915546+514030451+512730698+511105042
3368+510356213+510731799+511718983+512424675+511910376+510059562+507992443
3358+506982726+507287509+508446378+510129194+511955477+513097257+512987796
3348+512017805+511025935+510464951+510213159+509950824+509631019+509521041
3338+509643630+509618099+509542506+510143665+511320485+511595258+510009190
3328+507541265+505653170+504695135+504340842+504345941+504440001+504253672
3318+503526274+502103967+500076540+498145206+497283366+497707361+498585256
3308+498962564+498746122+498580845+498897101+499353965+499233926+498403888
3298+497772238+498405301+500103345+501342390+501075507+499981308+499351450
3288+499599624+500456260+501665502+502788436+503178044+502897208+502966978
3278+503986032+505040057+504682146+502793810+500690653+499352449+498505115
3268+497748086+497596556+498546322+499814377+499990611+498666292+496753460
3258+495337355+494706841+494450743+494247153+494301349+494753527+495154609
3248+495025164+494456256+493755766+492963317+492023302+491066817+490220792
3238+489321639+488132484+486927859+486475234+487058992+487911150+488129452
3228+487721651+487168695+486572911+485870768+485173586+484375418+483100438
3218+481372694+479757925+478686087+478045996+477444631+476576900+475383094
3208+473995242+472604598+471509676+471123478+471529797+472177813+472481355
3198+472553399+472865004+473318663+473139776+471805879+469773525+467939938
3188+466607005+465416300+464135635+463015733+462393696+462246266+462098836
3178+461387183+460074820+458680249+457574301+456710808+456121054+456013488
3168+456133423+455665913+454094936+451760039+449439510+447749838+446971240
3158+447004385+447318608+447249424+446480370+445070777+443219583+441342239
3148+440082625+439810988+440141163+440206316+439530530+438483223+437744007
3138+437516057+437466547+437262956+436849298+436223368+435339340+434260301
3128+433119244+432061085+431315873+430990625+430766018+430206170+429316389
3118+428416822+427683325+427112728+426586232+425834819+424772421+423781930
3108+423225873+422973702+422769905+422582921+422385050+422148350+422038785
3098+422076512+421851561+421084608+420097700+419300635+418630189+417845321
3088+417082159+416762458+416989477+417350144+417420948+417180939+416765042
3078+416129533+415187484+414049839+412945476+412017450+411302627+410839217
3068+410655128+410606789+410374257+409694405+408493433+406920250+405496807
3058+404917975+405273267+405755283+405533776+404586111+403368118+402162805
3048+401063679+400168350+399505760+399014959+398708523+398665386+398812506
3038+398854747+398492081+397698909+396764647+396024535+395553648+395148432
3028+394545344+393595509+392329314+390990490+389947835+389416309+389229291
3018+389000928+388588924+388215956+387997103+387647633+386889743+385874479
3008+385012088+384623168+384731768+384915616+384571349+383611901+382570245
2998+381871064+381438353+381032826+380521112+379898385+379379745+379250645
2988+379397592+379272696+378534616+377488826+376708161+376371474+376171122
2978+375807147+375284372+374735929+374241373+373822064+373415676+372936383
2968+372426184+371949853+371411471+370724384+369988372+369289605+368594800
2958+367936206+367394482+366953915+366625738+366499773+366458084+366121362
2948+365287948+364249014+363529712+363346312+363370464+363123427+362557240
2938+361999253+361591969+361152884+360550485+359889342+359336076+358941677
2928+358555790+357918489+357014512+356189780+355667522+355198910+354485465
2918+353659217+353045036+352724921+352592134+352581109+352618940+352528738
2908+352200975+351793553+351532080+351300375+350694875+349606947+348487114
2898+347821665+347549855+347244073+346739628+346288622+346094713+346013056
2888+345821732+345547510+345355807+345244278+344996414+344435120+343658727
2878+342918787+342289962+341658657+341018427+340522699+340257057+340164788
2868+340118344+339964299+339687287+339525627+339637052+339724807+339341848
2858+338499269+337647146+337104491+336759087+336348220+335876782+335586332
2848+335523694+335415336+335079269+334648659+334267561+333907238+333571894
2838+333347563+333195206+332957747+332559525+332020901+331361550+330616752
2828+329879947+329299013+329036575+329092529+329156442+328872332+328255807
2818+327621194+327175493+326903925+326712359+326460636+325989405+325296667
2808+324592215+324086151+323809070+323671666+323576366+323411399+323050835
2798+322466387+321777267+321128803+320588732+320164152+319820299+319502182
2788+319221725+319044871+318931551+318736161+318396062+317932963+317298246
2778+316460559+315611537+315035152+314770715+314577633+314209765+313591035
2768+312772092+311897849+311237602+311020678+311109328+311026707+310483880
2758+309694498+308982845+308334691+307609877+306931024+306527737+306377930
2748+306281768+306157285+306035902+305854742+305467028+304874035+304278769
2738+303822147+303399668+302863319+302259783+301708101+301209720+300732873
2728+300310877+299951416+299630336+299394841+299252408+298987937+298371619
2718+297549126+296945418+296722361+296580169+296211715+295712438+295335370
2708+295048263+294621030+294043232+293545850+293247269+293045470+292841604
2698+292609624+292268458+291770111+291280516+290980144+290765356+290451546
2688+290132431+290015321+290044848+289969979+289660821+289183009+288671483
2678+288216790+287807956+287385236+286957004+286604106+286388113+286301167
2668+286259374+286146313+285930922+285699113+285504912+285281614+284973937
2658+284652203+284405562+284202661+283954538+283666570+283428232+283282801
2648+283185157+283043464+282766142+282354637+281957052+281708516+281541964
2638+281278458+280857168+280384318+280021049+279874257+279908435+279948161
2628+279849467+279643034+279424491+279169254+278789791+278345831+278033520
2618+277913619+277809033+277565890+277280694+277150130+277203034+277296871
2608+277315355+277273149+277246516+277242691+277149165+276856097+276451931
2598+276193731+276221673+276390878+276416133+276106699+275498633+274864244
2588+274529710+274583166+274812304+274953015+274922644+274807446+274695315
2578+274572675+274410533+274269167+274197967+274144253+274116982+274261777
2568+274594329+274877354+274934496+274865501+274818868+274762345+274618826
2558+274480320+274525076+274774163+275070677+275272493+275315078+275144271
2548+274785447+274404159+274118809+273847171+273474083+273058599+272773180
2538+272702204+272734970+272651039+272335972+271885879+271476597+271201307
2528+271053257+270979111+270922021+270851630+270750938+270600493+270418816
2518+270261963+270147144+270053583+270014150+270083886+270196396+270201289
2508+270066986+269900503+269768061+269663406+269619873+269660650+269666800
2498+269492909+269200306+269008465+269018474+269094979+269020868+268712933
2488+268293608+267971322+267841826+267810076+267729884+267588535+267466946
2478+267359225+267202871+267064606+267063142+267114737+267017645+266789885
2468+266658184+266698616+266720718+266531392+266146779+265720028+265376692
2458+265162041+265085122+265131722+265216720+265198649+265010977+264727814
2448+264445151+264169603+263892436+263687071+263625588+263642953+263580435
2438+263363391+263088532+262927372+262942859+263012853+262964893+262769365
2428+262562518+262506358+262645984+262858739+262953144+262878671+262772173
2418+262729553+262670946+262543103+262485496+262629480+262861013+262960982
2408+262908698+262882530+262975401+263070650+263064552+263076473+263300064
2398+263745437+264314518+265099335+266456385+268854368+272844845+279133766
2388+288432336+301169202+317474893+337397180+360872564+387418581+416074785
2378+445773713+475631819+504776137+532122286+556575068+577356955+594233243
2368+607640848+617914285+624010417+624534053+620502421+614560850+607369348
2358+597288166+583175903+565011852+543086910+520086892+501696752+492628388
2348+494310824+505352798+521433813+536131661+545274171+549235275+550266388
2338+550226972+550189899+550655825+551727318+553014909+553702409+553115860
2328+551227386+548367647+544499294+539194232+532430858+524723093+516246102
2318+506812315+496829673+487203666+478204933+469216882+459564897+449033948
2308+437695564+425767840+413702643+402119461+391500723+381909067+372979864
2298+364265552+355625419+347207069+339125544+331399449+324157747+317593967
2288+311701597+306319771+301418306+297106561+293415716+290268249+287598784
2278+285351987+283404752+281591544+279804418+278047250+276403523+274945918
2268+273681429+272593242+271695605+271005245+270477715+270009861+269510222
2258+268952545+268355195+267734466+267100938+266466205+265823667+265175599
2248+264599868+264198838+263945444+263681576+263309711+262896828+262555386
2238+262297858+262047858+261766332+261538331+261499070+261645811+261765402
2228+261620969+261201247+260730223+260441117+260377532+260397774+260331242
2218+260128875+259872501+259655164+259494934+259389848+259385490+259489266
2208+259567288+259469765+259244072+259085428+259087771+259167102+259207103
2198+259159211+259037157+258913897+258886058+258982185+259140606+259280370
2188+259347091+259329157+259276218+259239145+259176301+259013280+258795237
2178+258660968+258667566+258752031+258846315+258918583+258925077+258827761
2168+258655197+258490747+258417876+258478033+258625394+258744485+258774719
2158+258752841+258671701+258427437+258019705+257667031+257583721+257740936
2148+257948264+258082929+258163500+258278267+258499257+258810844+259118349
2138+259386145+259723056+260231308+260839943+261416500+261963755+262581451
2128+263332347+264250657+265372523+266685230+268136014+269689402+271288097
2118+272824896+274231853+275500390+276583168+277383816+277840473+277944197
2108+277719039+277208633+276410741+275264654+273814216+272314679+271042128
2098+270026881+269072067+268030894+266992821+266156185+265570049+265090118
2088+264591203+264125571+263820737+263696236+263645623+263568445+263476470
2078+263468252+263587619+263716892+263683144+263488839+263340685+263426752
2068+263755222+264196426+264576629+264750554+264684126+264483516+264326525
2058+264348301+264540745+264767092+264934213+265101540+265338637+265574735
2048+265710450+265798619+265997403+266367235+266773261+267006103+267001434
2038+266909907+266930373+267118252+267383188+267626366+267833850+268045847
2028+268277362+268520575+268809491+269195431+269653724+270101130+270484090
2018+270743306+270758483+270492135+270144525+270023987+270273316+270753160
2008+271160978+271297021+271253471+271286133+271509052+271815971+272057513
1998+272184752+272287771+272545402+273010621+273453893+273598842+273459974
1988+273247805+273090779+273037651+273151729+273436321+273778659+274055171
1978+274234971+274365587+274499425+274649180+274822606+275071366+275417201
1968+275731579+275830893+275743810+275724843+275935048+276264965+276535965
1958+276734715+276965179+277290824+277706652+278179520+278660846+279124808
1948+279656816+280449247+281564222+282645087+283076988+282658024+281868608
1938+281279095+281047321+281063498+281241488+281551060+281936156+282321096
1928+282732015+283365353+284328367+285328110+285989649+286435057+286955936
1918+287264526+286841634+285923635+285320857+285453230+286064208+286617561
1908+286781994+286641162+286493577+286503810+286650206+286914074+287329438
1898+287862738+288354986+288668779+288967394+289642456+290699686+291471634
1888+291382673+290733899+290217464+290117719+290305150+290591465+290900003
1878+291255605+291681977+292188145+292992824+294531690+296848602+299006542
1868+299680226+298733698+297348775+296513017+296346810+296571107+296959682
1858+297385331+297809015+298282106+298823727+299393360+300050300+301049439
1848+302739972+305159558+307410318+307950561+306567084+304893433+304215235
1838+304432607+304874552+305349608+306380204+308420999+310899054+312467033
1828+312700771+312434164+312061886+311227024+310122282+309598474+310006585
1818+310863394+311589552+312177170+313003590+314163286+315227269+315762688
1808+315896026+316165286+317061890+318740812+320802280+322377564+322900821
1798+322855203+323371259+325185380+327912160+329891834+329657407+328045085
1788+327080641+327595043+328984032+330440380+331790057+333012185+333875230
1778+334574686+335992169+338853114+342709650+345694354+346234425+344970195
1768+343399907+342423955+342695661+344430055+346663243+348023842+348572492
1758+349237528+350137233+351215686+353265715+356860192+360925072+363433894
1748+363856889+363457323+363434756+364249151+365898787+367897962+369519621
1738+371042121+373852418+378231108+381539821+381154416+378684354+376497611
1728+375145418+374661715+375037370+376018765+377799190+381334232+387062875
1718+393218028+396178718+394748900+391506339+388895050+387859596+388714441
1708+391375172+394876518+397877348+400600545+404627594+409935551+413782749
1698+414711843+413984100+412011041+409338458+407951398+408884316+411507458
1688+415270691+420695585+427330307+431372068+430291513+427406967+426185047
1678+427523285+430775837+434337444+437070288+439691638+442920658+445362639
1668+445463177+444729783+445580941+448236091+450972346+452516827+453789672
1658+456664777+462491925+471653419+481628620+486016544+485082557+485617563
1648+489427241+493392377+494282606+493611058+494487540+497958773+503920362
1638+512043129+520927679+527247661+529522367+531009930+534884278+541613542
1628+550043124+559172886+568971095+579188579+588718975+597428464+607063532
1618+619041766+631773240+641520147+647858630+653340856+659147641+664836662
1608+669965732+674617196+678852315+682473184+685385603+687924952+690582410
1598+693461891+696282869+698915382+701731261+705280051+709562579+713832773
1588+717334223+719893142+721620610+722744439+723920570+726064935+729727700
1578+734724810+739780699+743274913+745900604+749891029+756042702+763340737
1568+770608727+778078965+786307265+795236779+805454951+818947520+836096927
1558+850038848+855116926+856379812+858449067+861962989+865662414+867743176
1548+867663104+866786174+866457411+866936464+868095092+868286520+864104254
1538+856773074+851140420+848413158+846624705+843660398+839806756+836949188
1528+835925414+836064540+836678240+838116223+840610919+843060273+844022926
1518+842943267+840018374+836622906+834782979+835386687+838106989+842323641
1508+846590665+847602449+843912258+839028297+835668454+834243632+834679547
1498+835975855+835931340+834018714+832535527+833148744+835170452+836769061
1488+836750180+835104920+832407495+829575767+827595680+826928163+827312052
1478+828353329+830186503+832994527+835530223+835351268+832431682+829846371
1468+829523465+830646812+831051030+829827421+828833002+830228400+833995561
1458+837588246+837393235+833596236+830013474+828573285+828737495+828953109
1448+828019812+826229706+824731703+823870898+823174439+822639640+822915067
1438+823999205+824572731+823725569+822594642+822399976+822679055+822022495
1428+819975498+817735350+816768149+817678914+820254301+823594850+825809433
1418+825039173+821911552+818577274+816023868+814005537+812000643+810001124
1408+808774276+808949372+809996713+810981417+811981142+813551636+815453581
1398+816982455+817901144+818082511+817172918+815552878+814348288+813988103
1388+813762703+812921261+811931872+812137288+814287028+817812183+821567492
1378+825366351+830056680+835505623+839631522+840875183+840427347+840369877
1368+841451534+843353824+845581017+847517760+848503704+848613613+848833293
1358+849836877+851107551+851586603+850874364+849477450+848222901+847835635
1348+848658748+850400136+852322064+853802082+854666539+855122714+855468773
1338+855720978+855730487+855810283+856674741+858447965+860222429+861228218
1328+862159310+864361145+867806847+870966993+872802579+873861703+875266059
1318+877580146+880625353+883665184+886004491+887891896+890478379+894538194
1308+899555977+904256780+907818387+910391432+912530560+914496383+916195185
1298+917431267+918024431+917982397+917673962+917399500+916896812+915953730
1288+915125518+914883855+914580520+913259268+910958963+908380129+906053777
1278+904426708+903976322+904927949+907213301+910279111+912938016+914483428
1268+915630273+917195599+918623315+918947806+918594098+919176858+921681339
1258+925448776+928945540+931299938+932745915+933653440+934087771+934289259
1248+934449127+934108237+932767828+930944990+929777886+929628561+929658261
1238+929105821+928458839+928583012+929259349+929551315+929032985+927729442
1228+925670110+923366222+921748042+921100646+921201873+922167489+923880762
1218+925343552+925815438+925780708+925796626+925565507+925081907+925456011
1208+927593761+930842041+933730273+935602174+936666811+937036505+936981172
1198+937526996+939690449+943434457+947778107+951723603+954878995+957261232
1188+958684882+958859359+958248416+957911797+958264196+959139472+960858671
1178+963680063+966773092+969251663+971342831+973347725+974704052+975020618
1168+974798319+974917255+976407057+979836015+983974800+986341051+985936075
1158+984481347+984436694+986855315+991076308+995308189+997900184+998981152
1148+1000070734+1001682574+1002820805+1002972817+1002818117+1002919551
1140+1003254860+1003990045+1005643161+1008546898+1012196019+1014925349
1131+1015510865+1015174177+1016199468+1018515139+1019086736+1015869878
1123+1011376352+1010209799+1013871324+1019384972+1022823715+1023556282
1114+1023797117+1024722145+1025262113+1024313655+1022842734+1023394622
1105+1027248608+1032673778+1036322692+1036104183+1032660547+1028217600
1097+1024887457+1024193479+1027073512+1033558839+1041378925+1046155390
1088+1045566153+1042070629+1039806846+1040819732+1044593784+1048853435
1080+1050865082+1049729952+1047554302+1047051270+1048311332+1048827732
1071+1046493938+1042558433+1040995243+1044195080+1050332557+1056070709
1063+1060745947+1065495744+1069411266+1070057352+1067863373+1066591597
1054+1068473282+1071594219+1072660717+1070869646+1068309900+1067218251
1045+1068223144+1070093529+1070468323+1068684694+1066897137+1066744643
1037+1066923667+1065315617+1062440271+1061238437+1063839114+1069143556
1028+1073376677+1073741823+1071505810+1069888526+1070011114+1070337121
1020+1069188760+1066480310+1063403130+1061493054+1061734992+1063926559
1011+1066744849+1068679457+1069201577+1069113581+1069722594+1071585261
1003+1073619373+1073475354+1069945031+1064820578+1061050868+1059684687
994+1059353512+1058350548+1056712661+1055780673+1056555067+1059148578
985+1062548112+1064600416+1063268207+1058441852+1052200943+1047248417
977+1045278184+1046208863+1048387751+1050053753+1050964793+1051798379
968+1052133757+1050622248+1046992422+1042428127+1038021150+1034044369
960+1030368511+1026539264+1022530509+1019568544+1018450985+1017670665
951+1015194919+1011769889+1010125042+1011212074+1013120427+1013267340
943+1010636205+1006052547+1001008028+996673405+993525042+991290821+989398247
933+987380123+984977971+982426908+980805007+981484239+984419329+987573480
923+989111037+989280483+988910788+987824170+986046536+984508635+983604968
913+982709433+981356069+979809348+978752980+978752498+979370607+979258148
903+977962875+976597658+975784675+974475689+972077740+970313199+971100273
893+973524131+974499324+972526955+969595930+968255590+968697294+969432617
883+969334009+968671936+968276056+968013377+966957629+965464105+965769025
873+969280674+974222381+976991540+975652853+971613366+967833456+966257173
863+966808924+968045832+968785841+968358471+966278949+962973612+960055680
853+959060779+959968993+961575665+962774880+963007722+962297688+961341720
843+961046929+961512131+961668898+960858396+960266540+961634788+964676756
833+966970101+967092965+966522540+967567332+970687855+974272960+976110199
823+975204948+972771787+971104752+971153401+971607991+970863089+969132176
813+967610399+966535013+965298035+964240634+964854195+967633277+970906777
803+972423523+971676761+970258279+970224927+972051348+973947022+973558585
793+970218312+965297484+960744283+958245246+959269709+963923103+970037221
783+974186342+974339525+972157881+971379352+973344004+975486301+975235268
773+973994983+974622119+976610544+976889142+974664498+972474860+972031847
763+971663187+969535497+967330079+967999595+971009934+972208046+968492429
753+961771365+957656905+960102469+967591932+975136591+979614612+981367990
743+982084570+983487962+986318587+988875025+988035581+982859378+975370880
733+968730990+966144370+969297970+976420908+982532476+983684971+980987546
723+978349245+977967698+979086842+979393760+977433312+975148029+976907058
713+983047912+987019731+983212465+974987404+969801140+970084009+972248289
703+972670216+972201087+973670837+976706396+977236234+973158709+967944881
693+966443502+968830287+969626112+964221960+955210238+947922470+944559182
683+945100941+948323036+951844469+953837166+954758818+955465751+954587994
673+951048920+945753781+939467116+933609270+932002736+935207741+939419294
663+942061179+943600044+945951755+948470776+947228424+941030376+934915087
653+933905439+936834603+938596801+936630152+932542290+927933135+922944157
643+916900051+908981150+900406791+894821133+894604622+898963846+904318039
633+905191455+898400312+888521445+883581736+885161809+888523581+890132389
623+890192753+889092559+886734026+884497186+883307480+882359712+881774058
613+883531639+888110888+892513179+893830504+893542535+895624469+900445793
603+903315834+900308458+892502154
##END=
