##TITLE=<SNM>
##JCAMP-DX=4.24
##DATA TYPE=INFRARED SPECTRUM
##DATE=3/5/2025
##SAMPLING PROCEDURE=Instrument type and / or accessory
##ORIGIN=Admin
##XUNITS=1/CM
##YUNITS=ABSORBANCE
##RESOLUTION=4
##FIRSTX=4497.3318
##LASTX=599.83466
##DELTAX=-1.4281778
##MAXY=1.7707852
##MINY=0.20196006
##XFACTOR=1
##YFACTOR=1.6491722e-09
##NPOINTS=2730
##FIRSTY=0.22080678
##XYDATA=(X++(Y..Y))
4497+133889458+134787762+135787698+136264766+136239222+135973143+135679552
4487+135475394+135407555+135483607+135624381+135687467+135660685+135707435
4477+135904573+136122094+136405349+137162555+138403902+139135067+138352138
4467+136383872+134462013+133404773+133333140+133996637+134848842+135368395
4457+135493483+135367184+135004416+134586251+134483120+134606328+134406525
4447+133788476+133307027+133182372+132848907+131882294+130791325+130433671
4437+131071273+132252923+133228237+133472612+133204419+133204862+133827609
4427+134505754+134434707+133463757+132220892+131460099+131312802+131332572
4417+131246987+131181317+131138497+130959187+130788307+130837370+130855766
4407+130580092+130396327+130786193+131417027+131510066+130903447+130136212
4397+129636601+129331416+128960806+128453469+127973474+127720579+127730373
4387+127904759+128193228+128539867+128691429+128386453+127762675+127213874
4377+126864696+126550350+126298086+126395724+126827117+127054433+126679034
4367+126014732+125614991+125529397+125381738+124959869+124478762+124402819
4357+125043077+126182919+127227229+127778532+127830505+127495801+126903811
4347+126283331+125859691+125696762+125728640+125872874+126089691+126328464
4337+126422921+126227076+125885840+125651666+125393683+124682984+123488088
4327+122484809+122461470+123412334+124390892+124523281+124000593+123633605
4317+123725623+123972266+124141393+124278643+124443379+124653230+124994529
4307+125556856+126292737+127024706+127599159+127985311+128185457+128156959
4297+127892950+127484742+127099729+126976249+127236924+127555382+127337842
4287+126448546+125395535+124651260+124221376+123983651+124027835+124469971
4277+125208500+125952305+126332141+126096558+125408727+124874212+125085101
4267+126080240+127281207+128012571+128100324+127859075+127622191+127558056
4257+127818090+128504348+129461113+130323609+130845086+131125866+131373439
4247+131460596+131061081+130297659+129756755+129717451+129900177+130024235
4237+130024903+129789518+129291100+128869990+128857882+129117093+129364974
4227+129655295+130124791+130547031+130632317+130603675+130936345+131551376
4217+131799113+131404955+130912274+130902182+131225284+131420623+131499874
4207+131764479+132147379+132292399+132075573+131687370+131429902+131519011
4197+131778015+131663218+131014918+130479707+130742117+131641461+132393272
4187+132507318+132216690+132025742+132050536+131975080+131589533+131127212
4177+130994832+131319967+131865226+132415924+133157778+134330338+135500278
4167+135756056+134863380+133700895+133244456+133525542+133850397+133751042
4157+133378588+133085304+133079015+133470552+134162530+134695834+134669604
4147+134271236+133980690+133923287+133930669+133993375+134207762+134463955
4137+134560816+134521340+134535625+134665005+134801117+134896514+135094067
4127+135511048+135914114+135824608+135108307+134265354+133889774+134018729
4117+134261957+134371088+134376193+134350071+134361212+134526445+134868350
4107+135258613+135645479+136103806+136484013+136338875+135528324+134629568
4097+134312999+134483517+134524873+134298623+134258035+134581074+134920277
4087+135079989+135300249+135794086+136440236+136914340+136937037+136587922
4077+136377050+136674075+137159916+137186228+136537467+135562334+134712433
4067+134200443+134055829+134271778+134724188+135086332+135114469+134930415
4057+134750057+134507977+134051862+133518034+133256852+133500134+134231408
4047+135279648+136377574+137090668+136909478+135749930+134271291+133336709
4037+133222120+133599543+134116295+134693115+135335831+135885318+136052674
4027+135758685+135379942+135430053+135965725+136564140+136909243+137098113
4017+137287760+137320487+136932953+136179353+135406163+134908224+134790988
4007+135025388+135456645+135918614+136447482+137154387+137836868+138074584
3997+137820920+137514977+137487328+137640815+137797636+137919878+137934615
3987+137801738+137762722+138068377+138474109+138437623+137879444+137383555
3977+137513757+138167451+138743955+138868311+138763806+138820920+139042571
3967+139215773+139445357+140046726+140966698+141742128+142008613+141785580
3957+141421682+141428531+142093673+143252762+144620896+145897365+146444403
3947+145872896+145024830+145078980+145819668+145914243+144847354+143514313
3937+143098525+144281078+146946671+149906217+151356168+150554779+148818889
3927+148049025+148723618+149734270+150046069+150056830+150756705+152069578
3917+152584748+151119175+148283443+145798145+144780762+145369346+147592107
3907+151774586+157670691+163579121+167263290+167977495+166234413+162410355
3897+157564596+154151511+154182792+157036540+159308870+158613802+157370313
3887+158803531+161923069+163491187+163606119+164373055+164548489+161980517
3878+158932920+158941648+162113737+166498124+170827340+173634375+173058215
3868+170406971+168859255+168579569+167101806+163730321+160784392+160662900
3858+164587216+173121789+184455030+190469212+184592135+173700027+165554976
3848+162128519+162925327+166590865+171389947+176236303+180989268+184756926
3838+185268735+182091134+177953526+174962961+172915598+171278448+170490134
3828+170793746+171901467+174632911+180248661+186631619+188604819+186120804
3818+183839764+182058299+177737323+171688228+167824324+168451861+173304144
3808+179468822+183486059+186136562+190417059+194972236+195463805+192640000
3798+190309626+188647990+186297286+184186241+184067116+186096065+189541081
3788+194085289+199495083+205127224+210967273+218180832+227226980+236365109
3778+243903749+250989726+259974450+271912476+286039849+299577961+309023046
3768+313606956+315152105+315170393+315290457+317854671+323950119+331992905
3758+339390229+346122212+355146042+369278963+387561619+403843986+414092276
3748+422684930+434240554+446596148+453560995+456310474+461619901+472568446
3738+488574073+506880076+522744460+532167118+536112577+538979373+543902513
3728+551505052+560575686+568831567+574347041+576183894+574211363+569598503
3718+564414959+560627550+559981400+562740854+565195738+562061345+553953214
3708+545746631+540424517+538904486+540802022+544063237+546369071+547236952
3698+547396520+547793253+549927411+555662882+565512163+576348991+582064838
3688+580835751+577618051+575761862+574835069+574638311+576714642+582986173
3678+592748676+599546583+596754095+589686062+586439231+585273575+579694273
3668+570058810+561838927+557325530+556098648+557200117+559838639+563611880
3658+567639743+570046919+570833373+573376913+579895838+587532712+589241080
3648+582185733+572181547+564929623+561568764+560913145+561468072+562292655
3638+563207919+564333133+565683549+567816406+572274469+579496540+585506511
3628+585177328+580917179+578425214+579717477+584122591+590116190+595630905
3618+599508597+602888576+606652348+609855194+611942187+613590269+614380481
3608+612618551+608589712+605030649+604034716+605596780+608664527+612657801
3598+617456974+622087652+624965218+626081433+627494085+630937059+635486707
3588+637254781+633602544+627918466+625655172+628197845+632465367+634956429
3578+634956357+633474673+631426930+630036469+631145021+635882174+642988156
3568+648271706+647632930+641979284+635926195+632369373+630656235+628630756
3558+625828004+623933504+623948756+624552041+623758143+621252407+618580272
3548+617605301+618733587+620237607+620151155+618771392+617417290+615862960
3538+613609786+612302307+613757029+616520820+617480756+616053357+613909549
3528+611972257+610303212+609399080+609458787+609519795+608799409+607891590
3518+607504219+607250862+606594521+605529845+603773914+600985944+598152652
3508+597178621+598658245+601048398+602213730+601165029+598019143+593209995
3498+587727266+583312501+581423603+582120063+584197297+586232318+587506365
3488+588128733+588345839+588083591+587222866+585836200+584279412+583352149
3478+583715450+585007135+585846934+584728045+581249579+576450768+572025016
3468+569236576+568387777+568915453+569713942+569905603+569492968+568741790
3458+567647875+566764850+567025182+568010272+568025705+566578754+565163608
3448+564885349+565157789+565092155+564474847+563318623+561825120+560533255
3438+559402511+557376527+554111010+551279995+550577500+551506209+552320311
3428+552185573+551589336+551170340+550740284+549544810+547621035+546216948
3418+546114269+546524157+546318436+545353548+544111017+543076267+542820381
3408+543642506+544836426+545126720+544124354+542720592+541739116+540917388
3398+539661195+538149693+536855009+535715736+534799460+534805098+536077989
3388+537963995+539587573+540426866+540084419+538567822+536727283+535412973
3378+534338720+532623630+530293219+528367637+527632361+528048285+529097673
3368+530248692+531419011+533045553+535018843+535937432+534738343+532519757
3358+531360714+532066715+533836597+535155424+534674733+532350792+529792795
3348+528545529+528278547+527582666+526287512+525729477+526602491+527881887
3338+528320544+527829155+526881978+525599220+523966860+522327379+521334771
3328+521496941+522505813+523175491+522613191+521139495+519660016+518662420
3318+518016957+517350604+516545537+515948650+516027403+516819242+517697605
3308+517763962+516839229+516015187+516524250+518235545+520016666+521178998
3298+521599223+520915197+518869587+516263303+514624654+514899045+516833988
3288+519378830+521255511+521514470+520239230+518658842+518065460+518607122
3278+519332857+519368240+518734885+517910807+517132739+516455435+516038644
3268+515873221+515509233+514552550+513367810+512782054+513066638+513606999
3258+513632805+513004003+512033550+510868905+509524706+508347665+507834265
3248+507976810+508322365+508657078+509091868+509534898+509663673+509390944
3238+508870750+508058094+506722243+504989480+503480870+502738546+502682200
3228+502787555+502667129+502207401+501330592+500083977+498841626+497969624
3218+497446394+497082624+496729551+496145963+495260083+494565250+494527156
3208+494653401+493909089+492188614+490761252+490837475+491981049+492445332
3198+491139732+488689077+486413820+484972507+484197040+483702146+483283258
3188+482797941+482022114+480980677+480014995+479131464+477937399+476448993
3178+475139707+474118980+473063159+471863312+470765819+470015110+469526215
3168+468817576+467550468+466080530+464987953+464377765+464023500+463585999
3158+462540478+460666905+458511025+456702616+455287940+454225107+453798196
3148+454049203+454390928+454167894+453339733+452416337+451780777+451242837
3138+450354138+448990422+447491209+446415943+446157635+446530948+446743428
3128+446017801+444291760+442241705+440689616+439975122+439782159+439652661
3118+439642578+440056658+440559143+440270548+438939179+437295903+436060890
3108+435300314+434838164+434596301+434394808+433912817+433087294+432265385
3098+431738721+431354928+430826565+430184789+429574710+428912441+428153202
3088+427533762+427172882+426822773+426291014+425732726+425371666+425150512
3078+424709830+423797313+422760648+422251585+422281439+422115113+421318070
3068+420310137+419666879+419415763+419158106+418469670+417152144+415471425
3058+414111648+413545301+413526977+413448006+413003783+412273061+411418479
3048+410627725+410154154+410100013+410177611+409864150+408858241+407334668
3038+405739751+404452476+403702634+403539597+403600352+403175356+401934958
3028+400420999+399436884+399135675+399003323+398542185+397703651+396794061
3018+396133454+395747059+395395612+394876394+394083110+392895442+391448527
3008+390346589+390059295+390260534+390231910+389714607+388953236+388162699
2998+387354380+386518556+385681901+384827320+383903960+382929676+382026050
2988+381285967+380636817+379942454+379253512+378820457+378772713+378918077
2978+378964881+378790712+378418556+377914337+377367217+376815145+376169032
2968+375304475+374215548+373088130+372252487+371871729+371624662+371010426
2958+370002349+369021956+368298607+367684733+367099230+366745145+366746916
2948+366830766+366570759+365847410+364915123+364130440+363680109+363376804
2938+362700440+361302317+359492245+358037017+357508185+357855330+358466458
2928+358668240+358271110+357536014+356698673+355808455+354930201+354165758
2918+353548016+353116081+352949105+352994933+353009534+352733914+352074067
2908+351137985+350158786+349380247+348964974+348900279+348911411+348600263
2898+347851073+346990022+346363606+345924623+345436090+344892150+344462817
2888+344156657+343788513+343203986+342385981+341436924+340519274+339720930
2878+338985293+338234367+337515427+336996317+336855218+337124441+337582146
2868+337894811+337893004+337552148+336829919+335846202+335048472+334754781
2858+334683761+334328737+333615038+332845571+332247961+331885093+331750283
2848+331708394+331557428+331260701+330912869+330497234+329935079+329303134
2838+328715426+328095010+327371914+326749907+326457445+326402870+326320177
2828+326014342+325357277+324411076+323572975+323193446+323133992+323032650
2818+322759415+322325059+321687656+320915153+320203984+319573484+318861556
2808+318068777+317373691+316822596+316315485+315822795+315367368+314911977
2798+314453152+314063395+313706816+313194068+312413542+311478327+310607301
2788+309939828+309459065+309053007+308624434+308131057+307571793+306981411
2778+306389800+305775203+305115789+304455183+303853380+303289634+302660797
2768+301886198+300998041+300108618+299302811+298599466+297995928+297482656
2758+296995730+296420130+295733700+295136108+294845416+294705890+294280388
2748+293470063+292702150+292322784+292159693+291859478+291357427+290824710
2738+290343188+289826915+289204475+288517900+287844789+287261346+286846434
2728+286552707+286135229+285421204+284607445+284071692+283881891+283692470
2718+283210009+282561076+282013866+281545373+280949010+280202602+279481999
2708+278928825+278553923+278283923+278052722+277860301+277666416+277286110
2698+276585693+275739497+275089336+274759430+274553510+274245814+273830305
2688+273394774+272915005+272365644+271893574+271641934+271502732+271219396
2678+270679378+270032975+269531846+269222993+268890648+268404536+267933188
2668+267661706+267544949+267447980+267261974+266859368+266225742+265600067
2658+265223611+265024268+264746986+264306720+263853497+263558379+263441856
2648+263357826+263098000+262573180+261908399+261322986+260954228+260802919
2638+260717605+260446521+259924212+259474929+259464087+259800624+260054902
2628+259988112+259700348+259326078+258847827+258254246+257705066+257387376
2618+257262939+257135791+256955279+256830895+256750425+256547848+256181529
2608+255806753+255525296+255267169+254990735+254824789+254879779+255030456
2598+255054815+254928426+254804748+254757112+254709658+254579239+254344857
2588+254022903+253674980+253410474+253314787+253376843+253517979+253678124
2578+253823380+253885129+253788557+253560102+253314733+253123306+252952733
2568+252728453+252436479+252196350+252205133+252547851+253094230+253619267
2558+253984935+254182018+254235292+254112499+253773594+253291783+252799563
2548+252310885+251761199+251222897+250870891+250719835+250594891+250386803
2538+250175787+250081835+250100882+250115429+250019345+249809359+249561027
2528+249342041+249183522+249109232+249124357+249169390+249147542+249004528
2518+248737003+248355830+247918709+247565510+247425567+247489033+247633475
2508+247751027+247792302+247739353+247617627+247488382+247372655+247244224
2498+247130972+247108366+247143713+247081801+246857214+246603152+246482781
2488+246506671+246546120+246426092+245995765+245249737+244429635+243874799
2478+243688034+243633514+243435852+243103272+242849970+242741471+242568892
2468+242146083+241604240+241240036+241149481+241167191+241103816+240887631
2458+240532137+240118978+239781121+239588592+239466901+239303304+239097799
2448+238931401+238828595+238753365+238694272+238638668+238537036+238397202
2438+238280535+238127798+237803223+237374487+237084591+236992464+236899760
2428+236673257+236428575+236358531+236512099+236768184+236964743+237021216
2418+236955184+236839294+236771636+236834776+237037317+237300811+237507147
2408+237568354+237503750+237447675+237513707+237660805+237760738+237765346
2398+237733234+237733867+237803007+237956358+238192565+238511646+238932738
2388+239467010+240120135+240939260+241948241+243024356+244011434+244999434
2378+246313961+248170023+250471701+252980888+255541180+258058301+260356906
2368+262236461+263713085+264967435+265935159+266317543+266187305+266104323
2358+266389466+266797330+267229862+268309826+270748084+274330061+278067630
2348+281193023+283707524+286151565+288681209+290419719+290365253+288630881
2338+286170015+283580014+280716670+277427751+274137911+271451284+269482530
2328+267862530+266156205+264097873+261745904+259524046+257835882+256633306
2318+255531404+254233340+252758288+251366327+250280834+249461834+248705885
2308+247909005+247116642+246385125+245713730+245075604+244432400+243732019
2298+242963782+242236384+241726708+241483471+241337403+241085546+240729582
2288+240451450+240362522+240371503+240330952+240205376+240024665+239791584
2278+239525090+239270776+238999258+238629740+238190920+237813885+237539711
2268+237278096+236993784+236801525+236812567+236982833+237163254+237212661
2258+237044545+236669769+236211505+235810291+235528797+235362562+235285019
2248+235276182+235328570+235403836+235423371+235359851+235266134+235175869
2238+235087809+235064642+235211776+235531743+235903068+236237093+236581600
2228+237020330+237536187+238060393+238599399+239202015+239858827+240544678
2218+241307766+242218133+243260509+244358218+245484354+246671841+247921383
2208+249197292+250511330+251907665+253374223+254856774+256334898+257830660
2198+259361244+260896310+262374036+263779316+265170301+266593687+267996148
2188+269229300+270178863+270927403+271689750+272552789+273422333+274178517
2178+274713529+274958826+275005305+274996179+274889361+274543390+273950370
2168+273217407+272437838+271646126+270791129+269749964+268436594+266946363
2158+265556281+264436434+263423858+262304752+261163346+260239824+259676729
2148+259445383+259372412+259626799+261241630+265318195+271657023+279034668
2138+286665561+294516812+302591097+310795240+319184052+327857267+336836244
2128+346057084+355375364+364730473+374181755+383612473+392645266+400878703
2118+407996937+413808416+418318234+421689539+424323362+427117115+431363674
2108+438106391+447492365+458754045+470751145+482242256+491835541+498549814
2098+502416881+503938863+503473244+501383251+497949782+493147140+486813769
2088+478573971+467859556+454518112+438872641+421394980+402987562+384835524
2078+367685817+351982302+338197466+326389425+316214323+307589431+300583237
2068+294959716+290407449+286668072+283343753+280212252+277427914+275065988
2058+273050249+271473746+270430322+269892220+269983967+270887575+272638970
2048+275383858+279443652+285119923+292838876+303106068+316071020+331664915
2038+349951257+370603320+392397620+413670027+432805566+448530802+460532203
2028+469387321+475692754+479824924+482074628+482564499+481494330+479236457
2018+475839202+471000599+464620604+456923300+448194644+438554699+427844657
2008+415944092+403228160+390389526+377932119+366056601+354793945+344099661
1998+334031323+324925740+317188535+310767628+305021314+299348495+293768615
1988+288638344+284174173+280450537+277437727+274921618+272665751+270610509
1978+268795739+267268281+266040279+264977988+263950557+263161140+262914199
1968+262985977+262692123+261722917+260499595+259566242+259021309+258686849
1958+258512662+258539950+258645340+258613047+258427114+258321524+258524896
1948+259072938+259952656+261183622+262388981+262632941+261438298+259598951
1938+258249475+257737811+257753695+257922642+258040031+258079264+258129592
1928+258375087+259147806+260569838+262069539+263016192+263754143+264805861
1918+265446102+264632849+262974484+262073984+262559608+263778322+264758262
1908+265052604+264903102+264771057+264802988+264880513+265036774+265535554
1898+266512729+267626558+268272184+268452930+268993039+270216885+271047287
1888+270409396+268874673+267698933+267246415+267161264+267169125+267196737
1878+267196575+267144169+267181034+267910382+270283061+274474594+278630129
1868+279752343+277134512+273247170+270572271+269679451+269863956+270282428
1858+270457646+270334527+270160539+270226408+270735362+271833505+273657022
1848+276466316+280347803+284008425+284733816+281838848+278203778+276416205
1838+276458780+276934122+277250926+278451243+281669449+285976944+288678498
1828+288760595+287835374+286786637+284938905+282489081+280855709+280677925
1818+281269735+281872171+282658407+284271215+286587439+288370458+288597232
1808+287792075+287380055+288369121+290938919+294359431+297080339+297888984
1798+297398571+297669565+300325309+304884768+308117576+306915560+302865054
1788+300028473+300083987+301974855+304254377+306497432+308401364+309349373
1778+309785392+311596656+316370313+323384927+328884499+329373539+325984488
1768+321856909+318839147+318204672+320537793+324232606+326573063+327305882
1758+328028942+328964012+329980908+332690015+338553719+345915371+350678076
1748+351087314+349329323+348101755+348621949+350771576+353329212+354877361
1738+356162974+359953636+366839331+371877729+370003541+364183786+358833229
1728+355081926+353270878+353533198+355151319+358000514+363640461+373133199
1718+383554176+388135990+384527051+377747794+372468328+370325532+371634384
1708+376055076+381951633+387050605+391536461+397956718+406388178+412283289
1698+412982423+410314300+404914698+398322549+394527875+395266440+399224693
1688+405409954+414888669+426761223+433252319+429187880+421593509+417454075
1678+418399699+423060230+428197838+431563974+434721750+439249676+442416994
1668+441033870+438100175+438484077+442543528+446534634+447676510+447973092
1658+451273956+460094991+475102770+491637880+497575350+493761123+493106010
1648+498324721+502795253+500412943+495000438+492778598+495552545+503212008
1638+515220530+528232321+534523804+531567267+527336068+528131991+534131444
1628+542452309+550865589+559545743+568483590+575889661+581698501+589060297
1618+599925569+610925869+616294353+616681508+616665316+617986023+619809033
1608+621097574+621881569+623054310+625418658+629127494+634028371+640114060
1598+647309168+655108863+662700523+669488237+675564891+681462930+687330031
1588+692747451+697401911+701410582+704950201+708170901+711837450+717570247
1578+726366960+735834687+741010822+742623341+746899537+756850557+769689264
1568+780427750+788833404+798530996+811743846+829490513+853674460+882296448
1558+899978131+899143103+893253738+889792693+888195498+886673335+884188779
1548+881560160+881389785+885291693+892385098+900065234+902460302+892190653
1538+875046764+863501730+859664517+858085105+853624946+847983733+845769086
1528+847345535+849628418+851155641+853269885+855556527+855320230+853066549
1518+851575251+850435183+847878993+844848834+844109293+847808949+856555496
1508+866974558+868776244+857139843+843759799+836841105+835867508+838315778
1498+841389668+842002639+839551478+837353457+838361389+841904694+844344217
1488+842737626+837974162+832892141+829385050+827799132+827735450+829169643
1478+832487855+837537348+843100710+846791258+846004299+841522165+837743358
1468+837307917+839036308+839680722+837605512+835508689+837545588+845260999
1458+854799060+856575953+847814660+837360540+831059011+828980475+828984306
1448+828381527+825812253+822327354+819505085+817966369+818359813+821572561
1438+826521001+828824413+825549717+820213688+817212299+816738186+816131649
1428+813748073+810962019+809729065+810377455+812574899+816228871+819612717
1418+819024033+813930085+808119293+804445949+802975975+802209328+800894982
1408+799286728+798209547+797510847+796896503+797286404+799409250+802394303
1398+805080172+807093073+807544272+805343503+801847472+799882712+800066025
1388+800124503+797870245+794652942+793994721+797334618+803051078+808847992
1378+814091713+819555757+825393799+830196514+832690034+833484945+833913952
1368+834737270+836684321+840226397+844054574+845614108+844261597+841961148
1358+840311114+839220633+838106876+836964712+836283504+836405086+837241271
1348+838419144+839416596+839955764+840696895+842840776+846419717+849558953
1338+850443930+849700269+849619238+851680497+855565852+859901899+863537005
1328+866172708+868082098+869827042+872317670+876400071+881919629+887608405
1318+892438299+896688689+901051915+905427791+909319506+912701255+915939231
1308+919326258+922853588+926083106+928378567+929590992+930259911+930933746
1298+931702562+932497978+933206220+933308502+932200311+930196373+928321029
1288+926824888+925022623+922703309+920509769+918847952+917352245+915584388
1278+913524212+911280435+909195466+908235458+909320373+911926946+914188722
1268+914992379+915161597+915979711+917496163+918906647+919943566+921220396
1258+923161663+925051682+925824112+925728046+926144910+927477326+928374808
1248+927525540+925244536+922831396+921124619+919879377+918024634+914568359
1238+909677241+904737475+901194821+899426602+898574370+897392594+895401450
1228+893274411+892061119+892167160+893213837+894503823+895373187+895456097
1218+894970635+894511413+894364170+894444911+894832934+895731861+897008547
1208+898423440+900171420+902479169+904927728+907042116+909268112+912278826
1198+915450589+917234639+917234060+916937333+918162046+921278802+924984168
1188+927807087+929725152+931830866+934672146+937702160+940335911+942835503
1178+945674903+948277572+949349982+948783273+948047925+948293186+949295986
1168+950630427+952602343+955428371+958408509+960668767+962481947+964914458
1158+967942521+970071583+970596945+970774187+971878908+973631875+974927644
1148+975374071+975836474+977574189+980774360+984339423+987463551+990417594
1138+993175675+994892066+995476412+996279925+998464574+1001177766+1002381805
1128+1002044599+1002889964+1006592078+1011095318+1013510699+1013862362
1120+1013777573+1013852315+1014240626+1015531407+1017714466+1019949786
1111+1021834527+1023184798+1022829810+1020102595+1017123469+1017005356
1103+1020193890+1024566657+1028195764+1030655816+1032326668+1033412162
1094+1034077467+1034564952+1035064581+1036105403+1038251597+1040670880
1085+1041245396+1039448047+1037724283+1038681616+1042635424+1048605024
1077+1055627951+1062024463+1065205334+1063921203+1059717870+1055474420
1068+1053218426+1053243798+1054063646+1053150406+1049702589+1046579617
1060+1047402430+1052274176+1058099352+1062433520+1064707223+1064723776
1051+1062933510+1061210614+1061176496+1062258953+1062496407+1060779149
1043+1058003648+1056355927+1057272420+1060303952+1064378257+1068985081
1034+1072932889+1073741823+1070372723+1064989855+1060541478+1058039139
1025+1056750310+1056158880+1056900228+1059186147+1061409107+1062138744
1017+1062374464+1063486196+1064140659+1062014921+1057658779+1053757884
1008+1051198441+1048427132+1045044226+1043609744+1046328502+1052103585
1000+1058475520+1064549932+1069587354+1070698292+1065896951+1058208718
991+1053047763+1052609647+1054376421+1054326906+1051152468+1046897596
983+1043960467+1042788811+1042075509+1040290593+1037099312+1033614775
974+1030911992+1028440519+1024871191+1020092909+1015493530+1012489683
965+1011043057+1009707460+1007120982+1003033521+998056673+993263139+989573892
955+986688663+983249448+978891788+975401901+974350815+974411533+972715888
945+968753117+964987249+963456122+963681143+964009748+963656350+963053282
935+962930905+963577849+964510895+964728543+963740561+962524956+962716148
925+964079285+964206723+962090961+959896843+959451571+959620500+958952809
915+958206908+958325454+958200547+956157647+952624245+949996927+949938305
905+951617108+952900733+952661544+951234073+949506767+948410214+948250466
895+948112330+946966913+945236354+944201460+944485682+945816436+947577716
885+949182644+950217611+950206552+948594900+945848530+943927358+944157149
875+944857151+943008696+938590100+934881626+934257017+935736388+936861132
865+936785306+937047047+939257429+942431940+943665255+941753913+938697443
855+937210337+938548609+942522440+947565066+950873013+950471690+946976888
845+942227592+937754711+935087564+935573459+938745945+941987897+942954917
835+941689941+939815464+938499817+937526870+935892377+933640793+932940214
825+935901196+941160242+944419541+943506591+941089620+940923510+943250054
815+945202670+945027886+944122742+944311910+945375718+946337606+947322046
805+948772937+950160507+950671557+950306665+949807759+949929341+950613874
795+950604766+948984441+947351610+948309233+951578580+953854018+953141223
785+951101287+949923703+949510381+948840667+948112909+948398215+949914451
776+951317345+951153838+949907656+949728897+952099895+956248364+959775839
766+960521162+957944299+953161534+948187072+945215103+945614257+948596997
756+951346909+951978096+951864031+953657694+957819319+962018532+963630111
746+962063493+958562836+954691071+951515982+949559896+948876809+949404702
736+951457865+955389193+960067650+962596156+961729611+960302430+961338915
726+963293555+962087563+957148376+952168348+950495183+952315591+955304837
716+957168399+957253261+955747867+952785873+949365234+947495384+947615231
706+947747801+946816273+946461067+948164664+951200389+954175250+956128878
696+955879931+952563309+947469867+943476448+941782610+940309817+936587463
686+931343959+926924351+923589298+919843596+915368474+911119024+907541384
676+904869322+903732506+903784334+903240033+901109381+899357570+900837881
666+904036534+905973465+906136105+905457789+904852407+904267772+902447508
656+898373925+893022934+888248555+884955282+883108851+882261823+882106774
646+883292453+886404510+890188739+892675174+893322408+892588578+889727420
636+882859615+872563653+864313338+863412676+868008296+870730234+867385494
626+861461433+858055540+857434907+857070594+856264552+855895757+855688663
616+854501321+852615206+851782563+853759900+859090724+866049680+870948244
606+869806657+862626078+855072005+851686136+853899843
##END=
