##TITLE=<SNM>
##JCAMP-DX=4.24
##DATA TYPE=INFRARED SPECTRUM
##DATE=2/5/2025
##SAMPLING PROCEDURE=Instrument type and / or accessory
##ORIGIN=Admin
##XUNITS=1/CM
##YUNITS=ABSORBANCE
##RESOLUTION=4
##FIRSTX=4497.3318
##LASTX=599.83466
##DELTAX=-1.4281778
##MAXY=1.7023934
##MINY=0.30595449
##XFACTOR=1
##YFACTOR=1.5854774e-09
##NPOINTS=2730
##FIRSTY=0.31189552
##XYDATA=(X++(Y..Y))
4497+196720254+197132154+197104729+196867585+196791382+196761682+196355346
4487+195543520+194882878+194911243+195644629+196796870+198042890+198856690
4477+198734115+197919187+197367775+197756103+198900976+200084740+200583107
4467+200083518+199023138+198372797+198764604+199796732+200293049+199528366
4457+198252628+197993172+199137970+200359309+200469009+200123349+200743032
4447+202387550+203752179+203766935+202338471+200089496+198068717+197205575
4437+197612513+198647065+199567614+199900379+199606543+199179981+199173064
4427+199469625+199303741+198100503+196258710+194973517+195071525+196067582
4417+196654971+196151210+195166563+194755866+195219853+195964367+196323222
4407+196170214+195821171+195642411+195780513+196115289+196410327+196539181
4397+196543430+196533805+196611794+196743787+196678693+196197921+195493745
4387+195134514+195488162+196143841+196180327+195247560+194133815+193851502
4377+194361372+194724231+194366880+193619772+193080239+192973096+193189958
4367+193620505+194261372+195074683+195846058+196231304+196073597+195747317
4357+195815325+196229556+196432809+196318297+196369369+196807773+197331496
4347+197657456+197691592+197289297+196472640+195658539+195148706+194880698
4337+194941694+195531903+196289707+196569990+196423185+196409012+196656212
4327+196963093+197367700+197778998+197648001+196806870+196042657+196108165
4317+196673787+196862096+196364068+195546884+194919156+194976845+196035420
4307+197691272+198938834+199243760+199042142+198982386+199264493+199701130
4297+199799758+199053533+197732419+196903826+197209804+198184056+199013853
4287+199345019+199186090+198589246+197647513+196586832+195763163+195534779
4277+196031134+196976965+197801968+198103718+197997439+197796254+197547606
4267+197295763+197440106+198177458+198926709+198952198+198280786+197605501
4257+197590031+198426275+199795585+201188955+202252906+202761969+202580596
4247+201939503+201399069+201303373+201539483+201863826+202176384+202435388
4237+202546028+202485971+202402794+202330520+201906025+200823127+199527351
4227+198930506+199457257+200687900+201747416+201959014+201429633+200938616
4217+201040195+201591626+202240801+202836292+203233286+203181162+202559562
4207+201642397+201099988+201438787+202337061+202956763+202976988+202810747
4197+202853435+203060447+203246538+203447723+203870920+204486336+204863762
4187+204677126+204123835+203563569+203083361+202680916+202547081+202916856
4177+203796653+204902353+205790383+206147188+206056361+205914951+206035402
4167+206336738+206434502+206125534+205736454+205781398+206314445+206857981
4157+206939842+206443957+205528690+204579570+204145602+204536186+205565889
4147+206871684+208112704+208750394+208360336+207402344+206931327+207363171
4137+208147271+208666446+208884699+209068610+209352727+209712522+210108990
4127+210467619+210568785+210194103+209450979+208747293+208424209+208623251
4117+209383310+210551284+211702097+212432965+212708530+212821462+213016050
4107+213199753+213142742+212984734+213210486+213903421+214408405+214089136
4097+213144321+212343679+212153734+212448660+212975768+213710488+214643744
4087+215537338+216136381+216413619+216438225+216243750+215881737+215410815
4077+214950794+214828895+215305739+216069276+216555481+216835106+217432232
4067+218210374+218353683+217676162+217068979+217343830+218352837+219396168
4057+219902956+219647429+218840095+218098682+217975843+218532293+219506526
4047+220667621+221789147+222511406+222548981+222045652+221540199+221421082
4037+221419372+220959501+220111773+219738839+220463296+221837024+222829189
4027+222961276+222671519+222636858+223039077+223628271+224220266+224808125
4017+225328428+225556343+225218240+224310755+223423120+223388345+224364383
4007+225667114+226761347+227817893+229007540+229928784+230093052+229556640
3997+228797389+228169661+227651125+227086856+226549410+226342492+226740050
3987+227794283+229210323+230333485+230519332+229696509+228517106+227929904
3977+228505752+229943540+231237492+231573866+231105969+230657622+230702377
3967+230970142+231163112+231559411+232481313+233617032+234398050+234703784
3957+234785062+234867300+235124086+235810762+237210523+239157542+240576175
3947+240427641+239357749+238977466+239465212+239405249+238107105+236511441
3937+235808976+236618810+238997334+242030147+243846000+243430904+242235806
3927+242569265+244721341+246581236+246464901+245460348+245718300+247451559
3917+248472183+246668153+242637988+238947654+237337835+237671502+239396020
3907+243120207+249851136+258673519+266039093+268720983+266534133+261198962
3897+254957697+250444521+249687037+252291690+254788147+254194856+252653195
3887+253863858+257167555+258941735+258954799+259664651+259960291+257084679
3878+253105453+252359754+255698207+261074130+266612911+270287023+269888206
3868+267090902+265914657+266669979+265973886+262335996+258421000+257323157
3858+260675914+269641513+283454348+293310571+288622508+275579205+264714257
3848+259586249+259932754+264183259+270311046+276658176+282326957+286113945
3838+286173757+282738331+278650025+275622006+273212598+270995353+269610178
3828+269363016+269925067+272325114+278479498+286688045+290645542+288573936
3818+285409751+282739590+277883011+271171087+266517779+266782423+272124060
3808+279511457+284732887+288031603+292668087+297464290+297602749+293712696
3798+290069637+286869174+282448311+277900511+275568848+275761856+277266768
3788+279512247+282600699+285909189+288679895+291576448+295336462+298585779
3778+299509580+299046025+299937927+303986364+310877594+318147471+323145949
3768+326008366+328323112+330412519+332936589+338130180+346830703+356150551
3758+362807644+368207327+376783074+391141024+408734438+421299299+424874614
3748+426865674+434024912+444084124+448743428+447315001+447502070+454351532
3738+468119668+484644318+496936960+500797689+498302191+494762741+494801162
3728+500542162+510482877+520351487+527493319+532967851+538437572+544203459
3718+550388483+558347762+570545403+587980282+605945164+615634111+615900165
3708+614213767+616339828+623124741+631762745+638325778+641676843+643627302
3698+645705054+648681682+653453355+661035038+671577410+681792337+684409114
3688+676905175+666403931+659581499+658018260+661309852+668888227+680209474
3678+693559826+702860463+701860234+696625552+696994275+701943091+702400086
3668+695768256+688629130+684515806+681997375+680101578+681381659+688647175
3658+699920828+708885750+712921705+717752100+729216280+745607621+755539690
3648+749090266+733397499+721166249+716947586+718146914+720410456+722053169
3638+724144230+727202437+730010719+732175013+735951794+743153326+750241098
3628+751305237+747674922+744431000+743889870+746878303+753288328+760067226
3618+763188291+762455732+760157076+758104361+757593307+758694213+758783086
3608+754705852+747615900+742629941+743339417+748859889+755074726+758894064
3598+761400164+764329498+766149430+764575289+760883846+758803612+759673240
3588+759868879+754702544+745424763+737936614+736288563+740138803+745561456
3578+747988608+746141082+742843626+741840539+744963183+751730427+759675946
3568+764642582+763481450+757704209+751231252+746029954+742096856+739506771
3558+739371357+742881596+749594554+756936537+761790165+762956109+761526781
3548+759486547+757951203+755888037+751563133+745643411+741812644+743230620
3538+748529512+753060808+754450964+754699311+756149918+758134888+758338798
3528+755826232+752139977+749915082+750846965+754594348+759234817+763070847
3518+765814542+767632744+767800038+765487021+761150990+756214279+752276594
3508+750651325+751521178+754000661+757687668+762657161+767755902+771193435
3498+772169002+770372003+765992888+761062042+757930075+756770898+756181722
3488+755494426+755447810+756761950+758586168+758682333+756093902+752898401
3478+751023582+750111624+750097338+751988548+755312095+757546765+756606085
3468+752969304+749683652+750256737+755291117+760636627+760747304+755398035
3458+750369219+750611626+755319689+759585871+760178655+758691055+758319475
3448+759848729+761673548+762159866+761096177+758916244+755441494+751007567
3438+748537257+751539073+758720078+763558593+762061971+758087294+757291952
3428+759846398+762063324+762033775+761248659+761765278+763501901+764849651
3418+764714011+763286261+761476254+760007301+759052410+757822481+755060816
3408+751496441+749895457+750983657+752031180+751343658+751152380+753825397
3398+758483235+762804530+765517623+766427251+766396423+766845598+767949211
3388+768849967+770042227+772955847+776353680+776449846+772421860+768702297
3378+769655609+774172995+777248721+776270823+773146675+769831625+766148904
3368+762526484+760472040+759901436+759429178+759390005+761652796+766087625
3358+769914783+771265164+771597647+773339157+776814509+780553546+782908743
3348+782683479+779432489+774118784+768933877+765979730+766158904+768975682
3338+773191337+777620301+781231218+782939269+781933175+778347522+773515098
3328+769336209+767103118+767099584+768792373+770834711+771987272+772604568
3318+773969235+775847588+776903757+777621354+779630911+782502576+783879799
3308+782687314+780448433+779322639+779959709+781301218+782246109+782836111
3298+783305963+783009119+781471895+779978356+780354748+781909566+781158661
3288+776311875+770468770+767640639+768167633+770361025+773984648+779376774
3278+784871006+787700190+786922668+784416794+782747991+782578366+782541298
3268+781016555+777851505+774478259+772550132+772885922+775430594+779435496
3258+783560024+786413343+787503573+786883646+784560855+781697159+780110687
3248+779970912+780087228+780410387+781879265+783503482+782655885+778826547
3238+774470966+772105468+772417048+774682245+777530226+779257451+778758802
3228+776655260+774798636+774911569+777745866+782321072+785960559+786671540
3218+785340707+783877769+782662501+781608362+781240165+780934149+778548125
3208+773618331+769108765+768331544+771502082+776162251+779860611+781993551
3198+783526715+785384016+787053571+786823721+784255139+781720543+781944078
3188+784783788+787244925+786352365+782235583+778093912+777011051+779170909
3178+782048289+783168218+782616035+782452200+783424986+783275436+779917829
3168+775005630+772220506+773431563+777705866+782553704+785020631+783318068
3158+778861660+775013976+773392466+773126675+773580737+775475481+778501658
3148+780026401+777919100+773471413+769748091+768052595+767518608+767398006
3138+768003046+769520045+771544113+773784497+775716835+775828415+773302540
3128+769910873+768182897+768466507+768974554+768368912+767467405+768103197
3118+770586966+772755922+772223363+769330345+766680635+766215069+767809587
3108+769905760+770949599+770858847+770558695+769678692+766796425+762773778
3098+760912793+762823477+766516950+769310420+770879448+772276371+773596902
3088+773852693+772503816+770171325+767545450+764686943+762125956+761308659
3078+762642198+764285288+764116941+762114903+760060309+759510607+760204069
3068+760476025+759626472+759120606+760491363+762909869+764202129+763613480
3058+762316859+761892196+762705733+763529119+763061599+761540314+759972414
3048+758709326+757658570+756593453+754999387+752872386+751426215+751951480
3038+754035248+755635931+755242771+753512163+752272384+752353512+753009078
3028+753075094+752076293+750453429+749018988+748207255+747831991+747385222
3018+746358376+744659648+743170619+743109566+744281601+745027243+744364308
3008+742991145+741878133+741086702+740226773+738889550+736746835+734233592
2998+732611706+732569826+733319529+733813365+734094419+734512992+734803219
2988+734859685+735246228+736159690+736856836+736672925+735678109+734338480
2978+733299077+733000129+732959903+732169675+730541172+729235603+729353122
2968+730519142+731049445+729821921+727667627+726289201+726358975+727396423
2958+728650789+729341694+728823571+727134993+724935737+722815804+720986248
2948+719485866+718356614+717500971+716432847+714616449+712519824+711824333
2938+713549603+716208335+717009390+715188255+713002082+712905465+714815773
2928+716469839+715850814+713080127+710159439+708835674+708772216+708292364
2918+706617922+704404530+702220235+699867369+697394352+695670812+695464044
2908+696314197+696688184+695469533+693074335+690754251+689260937+688685972
2898+689085448+690406656+691855684+692102527+690494325+687827473+685517840
2888+684123323+683053094+681704667+680268120+679104732+678077134+676886528
2878+675486748+674039074+672982979+672904332+673779975+674677873+674604790
2868+673328169+671171920+668604466+666235585+664749263+664588887+665579041
2858+666861001+667380928+666699421+665282724+663854899+662640684+661430829
2848+660154960+659094881+658539315+658359163+657930214+656559908+654187719
2838+651460490+648971608+646912202+645417384+644521591+643980160+643647904
2828+643570008+643488580+642979630+641980905+640470673+638215627+635509526
2818+633355382+632366356+632192220+632070866+631195825+628979539+625918888
2808+623686548+623425119+624338468+624690800+623815797+622423273+621355261
2798+620787514+620331535+619409765+617758405+615725991+613887337+612462219
2788+611286350+610277549+609675141+609527922+609221379+608228067+607095544
2778+606689227+606663625+605785915+603674441+601186123+599219837+597955434
2768+597102535+596334149+595517567+594730195+593975155+592899399+591104354
2758+588839120+586897458+585621175+584602149+583538047+582592517+581845070
2748+581173414+580588562+580064650+579311264+578235470+577246594+576727532
2738+576461290+575838017+574541546+572792178+570887246+568908705+567093322
2728+565915084+565485383+565373653+565038088+564078648+562470146+560867095
2718+560051678+559797654+558977914+557070238+554881470+553523645+553225524
2708+553308193+552930898+551751420+550124233+548748777+548033812+547848510
2698+547788322+547406291+546347076+544635227+542765446+541195252+539890171
2688+538613437+537473846+536893318+536986513+537192492+536817904+535811734
2678+534610264+533478417+532462436+531602245+530782354+529836937+528947949
2668+528379375+527947907+527314747+526450495+525365792+523932140+522305742
2658+520963068+520120057+519565769+519061407+518462494+517572416+516333238
2648+515056917+514124169+513529919+512922736+512041417+511009420+510165282
2638+509636520+509226519+508739261+508190049+507648167+507077789+506379327
2628+505495189+504520486+503667512+503038713+502566907+502202056+501922468
2618+501549760+500815509+499646632+498247491+496929253+495898121+495162104
2608+494644696+494286273+493920332+493275367+492334912+491465360+490975245
2598+490766485+490522123+489995429+489081291+487878391+486770981+486203422
2588+486241618+486481205+486436280+485911917+485022327+484032399+483233975
2578+482788823+482535288+482054872+481143666+480194226+479845465+480172534
2568+480470054+479997045+478741175+477293237+476190188+475534358+475112928
2558+474744318+474419053+474066458+473424162+472435587+471526110+471043852
2548+470676633+469950765+469068206+468614858+468609144+468507113+468098427
2538+467739930+467596771+467284251+466577895+465951427+465902780+466100638
2528+465774885+464772963+463709952+463184010+463229912+463430515+463349236
2518+462956829+462623519+462555812+462463894+462025472+461357086+460720655
2508+460118547+459495612+459002415+458769331+458699820+458673992+458687226
2498+458665459+458420871+457890230+457214400+456575789+456090261+455761726
2488+455467777+455114919+454786835+454607962+454507172+454250554+453688484
2478+452918030+452240171+451899981+451791522+451534679+450959113+450428509
2468+450537984+451426671+452437389+452656714+451897500+450880955+450312907
2458+450174523+450115200+450072907+450127794+450098621+449730161+449124106
2448+448652563+448476885+448386847+448170719+447938500+447892033+447949026
2438+447880191+447672409+447422370+447039286+446421125+445754018+445307287
2428+445088677+444947661+444860180+444876533+444918563+444869954+444810142
2418+444934879+445206610+445296873+445015143+444622547+444496193+444597810
2408+444532284+444105703+443585062+443338444+443396302+443501828+443515362
2398+443591566+443892432+444277320+444426193+444191831+443670626+442978142
2388+442155132+441273812+440394147+439320121+437591994+434879991+431295465
2378+427235638+423058592+418956358+414978109+411107568+407379809+403923142
2368+400929822+398629700+397092664+396073637+395500553+395998600+398301353
2358+402287195+407078191+411997458+417272141+423492954+430113995+435219278
2348+437047593+435451948+432258326+429851174+428808275+427821655+425811309
2338+423058967+420450799+418341280+416598905+415398524+415156832+415697285
2328+416209279+416135896+415668751+415431795+415917060+417102516+418528010
2318+419808391+421002944+422375055+423947693+425523714+427050825+428695944
2308+430592455+432675433+434644877+436040296+436607291+436626276+436629772
2298+436876765+437352745+438060379+438959706+439800348+440360012+440743096
2288+441202722+441801070+442434155+443032804+443563145+443961266+444190027
2278+444238147+444045101+443641528+443361866+443617205+444359539+445011571
2268+445100857+444798488+444636269+444853112+445232362+445464881+445469806
2258+445400031+445450107+445697326+446125523+446684623+447212031+447462107
2248+447401242+447340302+447635002+448332261+449137189+449703093+449990575
2238+450247155+450592984+450910579+451188550+451550431+451914380+452084456
2228+452131072+452278291+452563894+452918820+453356415+453876117+454398374
2218+454874391+455276874+455536311+455661387+455822929+456189509+456747331
2208+457318799+457719929+457915193+458009667+458071321+458072298+458075005
2198+458315344+458983806+460003734+461058626+461803290+462086675+462014607
2188+461843027+461870584+462317578+463127694+463957810+464510368+464778678
2178+464912024+465032513+465244920+465648305+466223458+466761317+467039062
2168+467118386+467319815+467842223+468572151+469259033+469686441+469779223
2158+469718396+469786705+470041593+470337120+470593399+470839303+471124379
2148+471498929+471942202+472336226+472628257+472877431+473093898+473240966
2138+473366004+473546343+473797848+474174240+474796874+475626990+476354061
2128+476697897+476724062+476684175+476677182+476673912+476740115+476981770
2118+477335117+477613803+477717149+477683089+477625494+477698690+478030985
2108+478569746+479032981+479147906+478954973+478761439+478785386+478948394
2098+479024936+478918018+478791025+478945311+479492494+480134752+480403475
2088+480169640+479768285+479568660+479608209+479688134+479628096+479387606
2078+479123733+479120011+479455990+479792758+479723848+479321892+479076853
2068+479253320+479572645+479642720+479425201+479080538+478665461+478249068
2058+478008240+477952902+477832224+477505644+477178763+477162184+477536584
2048+478050646+478262113+477866022+476973650+476019699+475389847+475164658
2038+475184846+475305711+475523343+475806953+475924134+475641990+475075447
2028+474586234+474328602+474131609+473831232+473510591+473393110+473596795
2018+473935292+473977999+473490704+472731340+472081601+471564907+470968514
2008+470275278+469719561+469460839+469389861+469337605+469339898+469467606
1998+469562606+469559335+469825690+470565241+471166259+470893513+469912419
1988+468851475+467868539+466833535+465892705+465297402+465019694+464858528
1978+464722963+464648301+464602587+464414203+464068788+463986569+464556534
1968+465343342+465356274+464344202+463119874+462386037+462038028+461750846
1958+461511597+461370920+461229341+461022047+460778098+460530579+460381443
1948+460593511+461524981+463257356+464967776+465123604+463180100+460442533
1938+458398014+457297559+456774925+456742932+457227633+457969516+458552037
1928+458862189+459397191+460666632+462134081+462695474+462414796+462260360
1918+462144307+461071483+459202641+457912599+458000418+458976475+459709974
1908+459470199+458515909+457592259+456966392+456362029+455720410+455511461
1898+456144735+457266092+457991020+458164141+458742263+460129487+461020505
1888+460110013+458071659+456390600+455529243+455146310+454951760+454816384
1878+454679842+454575518+454664729+455579056+458452789+463563899+468598279
1868+469769750+466338684+461531372+458264292+456965490+456740602+456798985
1858+456823233+456819211+456896016+457087783+457467446+458276660+459845050
1848+462662391+467008987+471436222+472610964+469477380+465241311+462845249
1838+462328217+462290473+462219382+463336492+466986468+472099834+475262252
1828+474989619+473407057+472053856+470196556+467602486+465607064+465107626
1818+465595861+466241804+467099852+468879558+471579456+473782698+474001232
1808+472576903+471333177+471841449+474514204+478437039+481671939+482703446
1798+482173482+482501829+485686879+491202840+495060261+493319164+487904030
1788+483873451+483348148+485113343+487481134+489930918+492046603+493136156
1778+493819128+496203950+501852769+509758438+515657371+515735228+511479197
1768+506495681+502753900+501668933+504062551+508170086+510670171+511087391
1758+511383444+512074387+513229241+516789932+524307893+533412928+538776746
1748+538334865+535185266+532957438+533277965+535979968+539419794+541685253
1738+543604885+548650168+557886369+565668015+565490120+560366002+555654368
1728+552913192+552609732+554886921+558803402+564123724+572901088+586897534
1718+602847445+611786728+609827510+603368124+598929197+598965362+603884065
1708+613044928+624086286+633608165+641400000+651143722+664328811+676080134
1698+682044293+683887834+682543016+679032326+677679013+681292485+688881236
1688+698990674+712688171+729647785+741350763+740776475+735478710+733952990
1678+738367067+747341613+757418945+765665293+772789456+779916175+784271756
1668+783430174+781614979+784004913+790120801+795031497+795917741+795920297
1658+799635800+809823509+827414103+847225684+854484283+849224939+846385304
1648+849185842+850580809+844607027+835717519+830472386+830798252+836577372
1638+846972074+857558656+858934000+848887720+837227374+830378100+827717864
1628+826437558+825306050+824577852+822836416+818011886+812342917+810237646
1618+811685396+811088852+804621759+796371803+790851631+788176884+786287553
1608+783527768+779951062+776661802+774215326+772176822+770136814+768475755
1598+767721842+767633722+767462067+767011539+766878756+767462443+768290190
1588+768654101+768601996+768797636+769548090+770825087+773452992+779048954
1578+787604175+794855255+795565935+792796826+793599762+799054821+804150780
1568+804679203+803184912+803819350+808159292+817644216+834330746+854199019
1558+861143181+852089612+841836490+836437897+835020448+836006542+838322942
1548+842068671+848561929+858732871+872272923+887946819+900371979+898842349
1538+885586358+875492485+874108194+877094746+877814824+875946246+876503616
1528+881728223+889855473+899234982+910165852+920755517+925569220+923525377
1518+919235812+914781283+910140062+907413059+909362315+916699937+928128327
1508+939478672+941360108+929838259+916272492+909173367+909173743+914332560
1498+920351004+921388527+916921743+913424737+915555722+921384767+924620344
1488+921747852+916110988+912241649+911379766+912209770+913246691+915037675
1478+919588896+927466220+936326479+941748380+939955817+932587518+925943206
1468+923822972+925118015+925814258+923681167+922139432+926195538+936623097
1458+946924866+945815689+933666845+922246500+916950239+917102270+920399125
1448+923652746+924385230+923036353+921515520+920738374+921087924+923258910
1438+926716442+928054267+924819292+920440929+919333406+921425219+923225526
1428+922706427+921794017+922996277+926580126+931522401+936824752+940442134
1418+939381002+933916094+927909830+924254327+923265527+923855604+925247414
1408+927404866+929627130+930018635+927931936+925522001+925131624+927124639
1398+930641495+934461961+936611293+935323167+931677439+928837202+928384870
1388+928966451+928146072+925675085+923860867+924630269+927910582+932400900
1378+936988211+941205370+944412225+945260649+943117483+939454461+936465954
1368+935359558+936419788+939345739+942624850+943634703+941211536+937335205
1358+934674894+933966320+934203614+934245043+933814816+933165339+932391802
1348+931350445+929977583+928463817+927331557+927278625+928309982+928983970
1338+927581634+924241019+920541681+917392496+914691208+912349845+910588184
1328+909436826+908503214+907420127+906480274+906445762+907369224+908153212
1318+907838700+906597793+904914553+902847027+900604161+898899192+898264979
1308+898423626+898553476+898056933+896964974+895716473+894779101+894316768
1298+893840225+892434580+889764194+886441775+883151838+880106337+877442718
1288+875318048+873536838+871744951+869927350+868243208+866594555+864773797
1278+862901834+861454912+860902955+861351828+862446720+863619958+864433494
1268+864771090+864872218+865088008+865559589+866271697+867285084+868624789
1258+870013742+871045776+871631567+872051719+872614579+873387514+874235337
1248+875108273+876292112+878286405+881381229+885302222+889135169+891798788
1238+892930823+893226388+893788796+895234290+897310389+899245283+900641454
1228+902046497+904292145+907379600+910529237+913231879+915701738+918110845
1218+920037469+921256120+922450862+924170944+925719671+926347418+926968398
1208+929145324+932771729+936240840+938755436+940960482+943088536+944269593
1198+944486511+945560801+948854423+953144665+956089789+957051447+957178740
1188+957456411+958116263+959485216+961972894+965267719+968444423+970756838
1178+972117520+973268652+975293021+978277318+980774847+981402744+980592966
1168+980054994+980921464+982896735+985171631+987609159+990263831+992477373
1158+993747529+994665051+995783176+996540321+996457990+996408592+997592506
1148+999999808+1002727639+1005519755+1008799166+1011692485+1011774666
1140+1008555405+1005081708+1004014636+1004689676+1005369378+1005843590
1131+1006589383+1007595026+1009030069+1011496695+1014951144+1018461233
1123+1021115905+1022435685+1022320722+1021432673+1021290492+1022794558
1114+1024982236+1026212391+1025960811+1024724039+1023111251+1021648915
1105+1020938310+1021547411+1023621629+1026527655+1029274057+1031878879
1097+1035597390+1041051546+1046794050+1050224965+1050040228+1047094727
1088+1043186818+1039983121+1038440709+1038303190+1038300483+1037729879
1080+1037879504+1040775530+1046283972+1051567978+1054180845+1054567764
1071+1054293627+1053909190+1054080469+1056009123+1058784021+1059163571
1063+1056228748+1053225804+1052868810+1054037085+1054368891+1053810242
1054+1054301673+1057221158+1062192605+1067685108+1071944598+1073741823
1045+1073263701+1072191366+1071888733+1071626176+1069999177+1067749018
1037+1067101421+1068743383+1071259708+1073013098+1072845955+1070158726
1028+1065780288+1061942755+1060678991+1062323433+1065236828+1066720668
1020+1065247730+1062221478+1060457937+1061253880+1063359903+1064654946
1011+1064070357+1061529971+1057792062+1054804983+1054348891+1055861378
1003+1056907998+1056292658+1055543482+1056367245+1058142740+1058979134
994+1058286425+1057155744+1056369425+1055279195+1053181819+1050627373
985+1048253980+1045489684+1041869745+1038409130+1036151452+1034650995
977+1033089185+1032043090+1032456099+1033251366+1031848653+1027184801
968+1020898461+1015414605+1011914892+1010113832+1008880144+1006946452
960+1003492078+998386344+992302937+986464267+981631016+977528594+973819482
950+970790598+968403822+965941632+963392223+961805525+961594547+961700863
940+960802213+958560776+955701366+953483087+952796318+953308199+953829404
930+953829179+954067300+955180688+956284226+955923472+954005119+951623381
920+949367282+947109829+945151551+944195608+944357488+945290800+947028250
910+949673824+952291955+953162033+951473305+947978254+944048840+941055219
900+940189803+941537477+943499665+944152901+943023799+941081009+939597770
890+939076039+938602202+936976482+934645195+933097444+932752330+933030000
880+933641281+934272186+934191133+933403836+932908947+933168497+933444438
870+932994888+931887364+930508036+929261189+928630510+929004045+930328185
860+931847815+932534209+932022252+930682397+929104722+927947650+927464039
850+926914112+925342903+922975525+921134766+920963488+922598682+925309519
840+928220057+930731571+932263682+932270975+930985632+929374798+928148027
830+927866898+929213369+931771274+933860304+934648277+934689330+933960380
820+932026162+930275328+931179241+934992188+939275889+942060487+943382672
810+943909366+943892900+943324852+942482969+942239961+943246657+944504406
800+944107186+941687929+938379495+935100535+932381276+930818488+930537284
790+931019466+931843003+932871804+934061508+935626176+937630093+939283483
780+939692733+939171979+938929271+939449349+939636643+937907688+934330983
770+931052850+929785552+930093072+930864954+932042252+933968576+936137832
760+937627838+938145810+938066185+937911749+938200096+939231378+940531383
750+941238829+941495973+942289961+943537034+943685004+941811989+938813256
740+936393622+935979410+937818139+940268299+941070783+939908749+938426638
730+937649191+937202573+936850241+936528585+935767079+934692413+934352036
720+935308656+937003099+938413480+938432878+936618285+934369930+933773838
710+934904369+935822793+935072414+932542254+928699006+924796961+922674171
700+922728682+923389286+923408008+922011762+918181071+913236089+911041419
690+913381203+917058660+917059638+912157439+905676511+900937470+898074377
680+894910906+889934270+884728761+882403263+882665595+880582730+872389014
670+861039421+855725566+862393261+872674353+876804520+875728125+875373236
660+878203322+880246638+877022942+870211788+864926429+863086722+862743939
650+862187020+861569874+860642728+858402419+855306617+852705855+850628554
640+848799524+848660276+851272241+853497287+850865848+844642140+839727008
630+837697752+836622334+835042779+832847207+829668172+825676878+822429272
620+820856258+821333478+824776574+829795541+831729007+829245539+827002447
610+828173129+830688026+831679984+830608476+827769593+824108451+822552054
600+825387404
##END=
