##TITLE=<SNM>
##JCAMP-DX=4.24
##DATA TYPE=INFRARED SPECTRUM
##DATE=3/5/2025
##SAMPLING PROCEDURE=Instrument type and / or accessory
##ORIGIN=Admin
##XUNITS=1/CM
##YUNITS=ABSORBANCE
##RESOLUTION=4
##FIRSTX=4497.3318
##LASTX=599.83466
##DELTAX=-1.4281778
##MAXY=1.7131124
##MINY=0.18136257
##XFACTOR=1
##YFACTOR=1.5954602e-09
##NPOINTS=2730
##FIRSTY=0.20240426
##XYDATA=(X++(Y..Y))
4497+126862619+127243194+127636070+127842692+127317903+125972879+124590404
4487+124081445+124583632+125629028+126804937+127801560+128240910+127983405
4477+127289360+126432123+125556169+124997803+125200017+126151053+127286278
4467+128016197+128110761+127691202+127192106+127123618+127453273+127553936
4457+127213335+127116136+127716550+128315479+127997685+126893907+125884666
4447+125516662+125639479+125773028+125560951+125022179+124488367+124308540
4437+124571864+125028726+125308517+125279283+125118892+125038281+125094693
4427+125208525+125155121+124656239+123669227+122457593+121326954+120464187
4417+119961514+119746084+119609612+119509602+119540433+119465080+118793656
4407+117557852+116521983+116388966+117137498+118188638+118899354+118993592
4397+118789416+118825962+119207322+119657179+120060310+120343817+120082295
4387+119028858+117784966+117068123+116624495+115745048+114547032+113848486
4377+114031918+114784485+115673543+116366000+116560948+116228155+115771115
4367+115646747+115875944+116098800+116073134+115849373+115480799+114982114
4357+114633266+114859465+115669723+116554279+117025646+117102970+117210787
4347+117577418+117866483+117688449+117206323+116711542+116021495+114992434
4337+114131003+114013967+114593469+115488159+116420413+117134202+117429823
4327+117414982+117273186+116826906+115788319+114442829+113674141+114131069
4317+115600749+117287635+118406608+118545210+117921279+117344084+117473504
4307+118070397+118399361+118235654+117928928+117723127+117647728+117808726
4297+118162589+118276366+117844497+117212310+116989763+117338489+117954454
4287+118537832+118928531+118931445+118462105+117882818+117728274+118007036
4277+118237111+118221981+118256071+118537028+118954580+119475176+120189814
4267+120958147+121506529+121843375+122107232+122214247+122152558+122224165
4257+122462356+122373601+121730645+121010104+120809132+121402951+122709897
4247+124139500+124896130+124885604+124772753+124928558+124991153+124627688
4237+124058637+123603858+123233827+122815977+122421448+122153398+122070788
4227+122461236+123614570+125118845+126075084+126244684+126235961+126380287
4217+126242825+125566069+124921516+124920619+125321527+125450471+125114241
4207+124652363+124488339+124954793+126121166+127549705+128554305+128734720
4197+128098031+126947368+125876736+125517203+125956283+126541295+126506252
4187+125794145+125058698+124889555+125335303+126178876+127247696+128287170
4177+128934329+129097354+129126447+129395030+129865686+130195752+130098236
4167+129499055+128573059+127754264+127460987+127754908+128457891+129394563
4157+130287095+130773013+130809690+130717983+130653343+130443694+130073271
4147+129872355+130013469+130205251+130192213+130216038+130601171+131209299
4137+131706481+132031410+132264492+132424771+132659572+133253625+134195658
4127+135002648+135157248+134557582+133526261+132596417+132210266+132336744
4117+132495931+132461878+132683314+133625991+134964318+135818622+135633976
4107+134627443+133565273+133202276+133751405+134739604+135359920+135127548
4097+134345944+133759119+133665227+133788511+134054348+134771527+135884925
4087+136768967+137007271+136811762+136473374+135906416+135005207+134188672
4077+134203709+135259014+136600133+137218554+136881268+136184319+135707181
4067+135509141+135446789+135535694+135797104+136080433+136258635+136401169
4057+136643899+136981484+137203778+137088956+136763205+136668743+136962374
4047+137279103+137326951+137274966+137309597+137306721+137185379+137153801
4037+137424588+137962650+138593567+139218703+139867160+140497900+140818598
4027+140551949+139919378+139583232+139991761+140944292+141841615+142245484
4017+142202755+142050779+141934658+141659042+141082137+140467181+140215476
4007+140326189+140440572+140482078+140874674+141935638+143347609+144438022
3997+144804195+144524779+143954140+143482773+143374778+143624448+144002165
3987+144370841+144781079+145097724+144914423+144170887+143496083+143595681
3977+144525003+145701640+146421443+146351797+145685314+144886842+144376492
3967+144434987+145095455+146005013+146671057+146912769+146887608+146755413
3957+146575045+146466461+146644364+147280754+148347556+149437045+149844556
3947+149304897+148533725+148384747+148683815+148523452+147563132+146343858
3937+145598380+145892516+147414686+149527323+150907379+150817802+149968830
3927+149512174+149642229+149671668+149330086+149285975+150122282+151503618
3917+152513046+152459240+151414975+150175238+149577570+149864393+150922491
3907+152889633+155920841+159410836+162058760+162896944+161741956+159006444
3897+155809353+153669641+153562972+155163941+156778247+157030756+156973952
3887+158290199+160353700+161262903+161267405+161796967+161934878+160116358
3878+157772704+157372366+159221276+162151784+165165396+166977657+166363384
3868+164523103+163752239+164097473+163832916+162377133+160981497+161026702
3858+163423742+168849114+176427293+180920430+177474258+170022557+163961841
3848+161237331+161827247+164533843+167722295+170731219+173956263+176991618
3838+178019306+176380165+173878445+172146972+171209618+170644621+170520570
3828+170826110+171376500+172878011+176281687+180117905+181002059+179239279
3818+178022070+177221450+174627565+171037225+169162387+170178830+173563434
3808+177503715+180089512+181976734+184958180+187824094+187693674+185452046
3798+183804052+182642227+180804356+178895876+178192632+178824764+180363054
3788+182785032+185936124+188948447+191401956+194159865+197668184+200657755
3778+202058453+202903605+204939627+209110637+215470822+222874330+229396148
3768+234432708+238899880+243395744+248422029+255157541+264080921+273670615
3758+282049619+289739520+299043008+311614503+326726740+340625560+350605282
3748+359340354+369955251+380831437+387422892+390652906+396082238+406665605
3738+422253458+440429760+456733784+467071814+471208005+472503612+474330575
3728+477675579+481294162+483610638+484843482+486396268+488703105+491235142
3718+494256618+499605106+509497445+523907970+538079098+545797299+547854056
3708+549792086+554547240+562050178+570638392+577841712+582468425+585530734
3698+588161549+590730048+593914222+598769273+605120698+610241595+610946370
3688+608556932+607556536+609458216+612340904+614110408+615386401+619306284
3678+627012492+633135393+631547863+627085940+627095579+630268171+630908503
3668+627876156+624582146+623363424+624644349+627975754+632364380+636398768
3658+638480630+638166965+638183776+642492154+652393160+664807375+672632122
3648+671988503+667300409+663493612+661636127+660758193+659940929+659461540
3638+660369062+663274091+668204495+675050215+683070051+689667633+691029440
3628+687130740+682942582+681714520+684033761+689414415+695429497+698299034
3618+697216299+695409099+695426434+697313208+700366028+704226548+708166791
3608+711197943+713127082+714047606+713595937+711930178+710919470+712656211
3598+716704795+720284600+721216182+719787951+717857915+717289163+718608829
3588+720303354+720570022+719881273+719209560+717796049+714771472+711445184
3578+710629341+713779070+719161068+723160713+724198618+724365313+725995207
3568+728258709+729102347+728877297+728562661+727625027+725885223+724479108
3558+724460130+726185140+729452624+732595629+732962792+730547838+728943273
3548+730518922+733020998+732795424+729841680+727002553+725854514+725616911
3538+724832524+723360359+722975637+725486080+730535584+735745881+738095457
3528+735517917+728864595+721747575+717306796+715954927+716228544+716530329
3518+716474590+717331603+720109013+723509869+725587099+726561120+727877424
3508+729790723+731750870+733180744+732825087+729776302+725616836+723418190
3498+724244719+726165788+726812994+726144344+726039291+727573920+730135321
3488+732270308+732559017+730742627+727807861+724533578+721282232+719089788
3478+719043986+720497247+721555923+721682869+722458141+725503191+730226701
3468+733892207+734712011+733945556+733705861+734660605+736478863+738289649
3458+738281729+735480110+731614061+728811546+726902580+724635418+722011179
3448+720222360+720383601+722763886+726598180+730430905+732787579+733128516
3438+732135068+730661633+729091513+728045016+728506473+730452872+732433865
3428+733297752+733496651+733684716+733471845+732294442+730514589+729280923
3418+729454642+731234569+734145725+736556271+736291172+732939480+728616084
3408+725654419+724725677+725594720+728359802+732915795+737466334+739393904
3398+738613999+737986220+739345711+740975455+740184493+736865901+732611619
3388+728787636+726515094+726627171+728943497+731940354+733472517+732644569
3378+731055994+731058833+733027124+735277924+736282729+736070231+735773826
3368+736244249+736596842+734897685+731418226+729407794+731061971+734472017
3358+735784884+733747778+730980379+730352077+731583576+732294367+731613912
3348+731266474+732830542+735550419+737184349+736542448+734977409+734674129
3338+736149656+738446855+740945718+743401468+744538449+742567692+737845153
3328+733544545+732854153+735806851+739013739+739256497+736909985+734610694
3318+733930388+734610096+735883437+736828094+736378517+734630867+733417525
3308+734395207+737145944+739792224+740867638+740067634+737777907+734703493
3298+731609802+728968677+727042452+726050947+725916081+726089202+726294079
3288+727504432+731070713+736276975+739865597+739317766+735732058+731957688
3278+729291159+727671277+727729632+730345951+734430997+737106044+736809340
3268+734806454+733181716+732655179+732429008+731542482+730346175+730101922
3258+731107923+732373493+733065006+733607159+735340238+738467776+740873989
3248+740277740+737219765+734426589+733435681+733274216+732773682+732865286
3238+735223230+739188355+741690206+740737629+737595072+734648874+733050661
3228+733082191+734477322+735689096+734907846+732650397+731276038+731553316
3218+732078806+732014773+732039206+732463603+732361688+731312351+730524377
3208+731296660+733113946+734358073+734776268+735605337+736887569+736789764
3198+734574157+731811391+729637999+727414995+724696761+722294210+720867772
3188+720207192+720083460+720594604+721608226+722518364+722536296+721159023
3178+718755500+716290410+714120306+711952294+710197621+710023529+711514074
3168+712861759+712292484+710316721+709263126+710674993+713399578+714608886
3158+713102201+710786173+709956731+710274954+709812003+708359040+707648997
3148+708341257+709090677+708824756+707993894+707400037+707283029+707224525
3138+706084406+703274643+700354148+699345756+699560271+698206609+694562621
3128+691380763+691518169+695102905+700038465+703737818+704462058+702331480
3118+699128402+696329398+693898679+691701153+690699038+691346019+692307189
3108+692168139+691229310+690792062+691113273+690760008+688620837+685735534
3098+683941335+683356369+682696387+681594598+680812004+680520081+680038002
3088+678989861+677931707+677996861+679551589+681312763+681970802+681994787
3078+682282002+682416718+681736562+680538910+679283651+678180293+677645015
3068+677698438+677386342+675958634+673840309+671689333+669535742+667451937
3058+666207586+666621822+668477588+670414872+670911297+669378237+666560553
3048+663938855+662547684+662221765+661899134+660679291+658688883+656937199
3038+656303517+656742185+657541217+657978391+657418157+655594445+653325340
3028+652039147+652250001+653175008+653687422+652978649+650842542+648173173
3018+646516231+646512794+647526790+648748351+649534083+649218999+647846955
3008+646536330+646180076+646374940+646197933+645294147+643736206+641509690
2998+638753873+636283926+635252746+635935592+637176879+637482624+636404297
2988+634542852+632601758+630828107+629267924+628059438+627088256+625864827
2978+624405700+623622844+624151137+625431949+626475159+626739287+626009406
2968+624443321+622897820+622291971+622464644+622179857+620617582+618623700
2958+617729066+617971638+617733848+615963298+613461148+611566229+610623926
2948+610264907+610272117+610508412+610460368+609714349+608801334+608485502
2938+608341969+607388981+605865970+604754282+603942510+602586569+600900374
2928+599920525+599676908+599116935+597831079+596500355+595506085+594287139
2918+592451285+590566266+589408140+589147450+589361180+589319675+588456833
2908+586912117+585314128+584029430+583040465+582262391+581539757+580679681
2898+579685262+578672013+577687569+576907141+576675591+576863506+576534486
2888+574919573+572423886+570075094+568441614+567636529+567687786+568242192
2878+568519769+568073554+567026010+565478492+563500525+561601796+560379824
2868+559828967+559504579+559072001+558422665+557632674+556938620+556368150
2858+555437054+553647450+551287040+549293644+548274978+548054113+548149415
2848+548220733+547987576+547165718+545636058+543592376+541632939+540510677
2838+540432747+540828564+541047338+540891888+540349250+539437730+538402365
2828+537401557+536121828+534320606+532469398+531330922+531151824+531455813
2818+531396450+530465354+528991171+527660111+526636402+525543729+524137391
2808+522590844+521245998+520290843+519563316+518684709+517477083+516117293
2798+514902008+514051794+513598817+513247980+512519070+511248718+509792431
2788+508568964+507598753+506605828+505377206+503959660+502651089+501813465
2778+501517695+501326455+500608155+499151531+497387631+495911842+494883762
2768+494093883+493456465+493003115+492502282+491616988+490339687+488839241
2758+487167057+485488596+484172367+483370495+482912998+482628323+482309839
2748+481554031+480151316+478422159+476793797+475357309+474091702+473128851
2738+472506377+471919991+470980079+469628956+468161611+466873961+465819656
2728+464913441+464147322+463590973+463174533+462604063+461627800+460354758
2718+459176383+458327066+457601930+456596751+455193439+453665273+452292221
2708+451078841+449944363+448976992+448301206+447821742+447274509+446468117
2698+445389790+444196771+443176424+442524847+442051548+441314755+440172843
2688+438959239+437980473+437123161+436114844+434895860+433589830+432357510
2678+431385618+430807115+430538505+430336057+430001695+429393678+428358575
2668+426895488+425342441+424180542+423629909+423504794+423424473+423095117
2658+422433789+421531086+420529158+419537129+418664911+418042512+417662086
2648+417271162+416628701+415799408+414953902+413996356+412744496+411352727
2638+410144727+409188974+408415944+407928037+407844876+408032642+408202288
2628+408112253+407667085+407001835+406344318+405687586+404869276+403969936
2618+403222496+402591093+401875820+401111531+400468547+399925386+399364853
2608+398817732+398378503+398023594+397617315+397031827+396301946+395658775
2598+395254925+394914735+394353417+393552330+392724681+392053529+391644934
2588+391532932+391519147+391220014+390539783+389907708+389712582+389700403
2578+389357822+388673258+387991458+387377464+386718789+386171444+385932310
2568+385848850+385663288+385360158+385064537+384909385+385032259+385386757
2558+385639565+385506717+385025983+384347918+383534615+382714923+382168101
2548+382075750+382311821+382573931+382679432+382692396+382750638+382790613
2538+382539897+381875170+381102961+380728625+380959354+381493997+381793914
2528+381574842+381022378+380502118+380173621+379985706+379877328+379791626
2518+379628742+379387553+379252687+379357703+379530973+379453827+379056852
2508+378569243+378163600+377797744+377453333+377227311+377091175+376866013
2498+376526122+376237674+376050917+375850561+375638325+375565774+375613481
2488+375491729+374972776+374179385+373487087+373229610+373462879+373905021
2478+374165114+374105041+373887762+373682699+373493364+373261215+372964249
2468+372628094+372347379+372238889+372304678+372401438+372371849+372181954
2458+371955933+371858501+371870829+371761106+371396745+370952398+370631672
2448+370348117+369912886+369423709+369221896+369441006+369755344+369695868
2438+369178560+368550407+368113121+367841895+367599884+367348534+367073983
2428+366728264+366305473+365899457+365706236+365898859+366354114+366625191
2418+366414262+365952431+365696859+365782598+365972829+366060025+366092453
2408+366174493+366240020+366161529+365980189+365879096+365972755+366209722
2398+366438994+366518606+366398833+366137769+365823431+365486230+365114434
2388+364699339+364148632+363209279+361655448+359486352+356745628+353305098
2378+349124263+344573575+340149272+335970006+331858135+327785417+323981720
2368+320757012+318413936+317106113+316588132+316412732+316635802+318052115
2358+321425587+326666817+333164576+340750302+349401279+357894489+363998112
2348+366175240+364771591+361896973+359599961+357897329+355644736+352472442
2338+348789415+344919667+340939300+337028608+333660628+331341125+330203995
2328+329946181+330050898+330082952+330037636+330362883+331418197+333044841
2318+334751956+336136963+337138816+338019440+339086336+340480384+342218619
2308+344152129+345864325+346979675+347574018+347999237+348439287+348861219
2298+349224160+349571972+350017140+350633189+351301614+351781303+351981472
2288+352045056+352153285+352353230+352561842+352662300+352609886+352479130
2278+352369332+352236409+351895583+351271017+350584996+350199078+350248541
2268+350469631+350447739+350079081+349704148+349681695+349926919+350031710
2258+349770123+349317333+349016482+349077041+349458289+349927292+350255752
2248+350420654+350561833+350748553+350898586+350930229+350887341+350908150
2238+351112167+351488409+351885123+352149101+352243133+352227069+352227891
2228+352393391+352727230+353030248+353128054+353064319+353009701+353117855
2218+353467198+353981891+354437969+354676020+354779280+354967008+355355354
2208+355890520+356467454+357017676+357494077+357904464+358370143+358998071
2198+359682449+360193706+360463736+360621092+360765783+360898780+361101004
2188+361584092+362433260+363412437+364170337+364593464+364860580+365205440
2178+365705340+366288923+366915955+367661041+368537369+369364121+369975612
2168+370470655+371117487+372107610+373472816+375134951+376995313+379045532
2158+381395967+384183315+387440003+390996384+394537298+397856562+400982307
2148+403920173+406473916+408590896+410667453+413143414+415948508+418689680
2138+421241816+423831498+426650302+429672264+432806975+436036278+439379190
2128+442816322+446315170+449849135+453231835+456005136+457753495+458501682
2118+458552602+458024496+456793558+454798331+452225498+449424626+446662906
2108+443947026+441138384+438212771+435311478+432578637+430038568+427587898
2098+425047082+422237394+419040816+415440128+411550319+407573874+403681824
2088+399976680+396561852+393538657+390917855+388624840+386598083+384808965
2078+383240713+381941781+380972467+380180533+379223472+377984651+376784235
2068+376023832+375762282+375726417+375639110+375461543+375294548+375121726
2058+374807874+374326953+373784389+373253519+372782424+372467264+372352423
2048+372385635+372566414+372956778+373492467+374001445+374491519+375263130
2038+376638797+378644335+380996451+383354769+385553901+387616710+389578576
2028+391317035+392578832+393162901+393025570+392256275+391045511+389597928
2018+387950961+385961001+383613181+381248213+379285264+377762963+376333313
2008+374725087+373051557+371607113+370507416+369624662+368798545+367992452
1998+367264103+366730431+366546961+366679473+366693707+366112664+365009941
1988+363887978+363083641+362612545+362363586+362157402+361800139+361263553
1978+360703281+360269582+359979901+359745436+359532304+359516015+359877089
1968+360364287+360387374+359731726+358834402+358193921+357882273+357731642
1958+357662453+357659913+357620163+357397242+356984314+356587227+356462411
1948+356701396+357259015+358058420+358796483+358854875+357922509+356527565
1938+355474454+355062647+355074789+355195832+355273688+355300586+355277311
1928+355256876+355512411+356255629+357148619+357703249+358093500+358664344
1918+358932208+358234269+357046928+356427704+356657723+357200623+357474052
1908+357291442+356829238+356395015+356154573+356041488+355934455+355871206
1898+355997442+356249054+356331953+356295753+356674796+357561958+358116401
1888+357645306+356577215+355705370+355277311+355150403+355161088+355213689
1878+355317136+355499746+355745344+356305204+357786971+360331411+362714050
1868+363075273+361151812+358578232+356808429+356097900+356032522+356130141
1858+356076456+355876361+355768880+355892463+356230150+356811007+357790258
1848+359487660+362099346+364751791+365447264+363545696+360943835+359464647
1838+359244790+359474061+359740019+360657554+362957667+365947612+367714950
1828+367634292+366969939+366434137+365545219+364253087+363307720+363121710
1818+363396186+363738879+364233399+365279112+366874374+368304772+368867995
1808+368721100+368646793+369336364+371031487+373347328+375326341+376199568
1798+376359277+377157749+379589403+383091090+385389335+384753113+382570046
1788+381411621+382123233+383928639+386004636+388208737+390353213+391975448
1778+393315849+395566013+399690697+405122346+409402742+410406837+409008195
1768+407278814+406375737+407019916+409447274+412487691+414436331+415394849
1758+416592463+418132322+419724185+422219013+426515997+431655909+435232838
1748+436261179+436050549+436137484+437161491+439105387+441456570+443559988
1738+445884721+449996031+455997029+460508415+460511591+458279321+456636352
1728+456059866+456692577+458844113+462189230+466440523+472331163+480444994
1718+488886762+493436628+492766260+490093006+488402628+488820748+491647099
1708+496663951+502634166+507901697+512780882+519453593+528187544+535280207
1698+538113917+538290027+537020272+535325598+535565554+538951653+544644328
1688+551779879+560986869+571916627+579746680+580916125+579625599+580422614
1678+584471610+590992457+598005881+603980653+609751296+616418068+622388170
1668+625461351+627332434+631210512+637228882+642511954+645280996+647555930
1658+652348629+661356832+675019954+690209337+698266906+698841262+700553271
1648+705417176+709330820+709095011+707247986+707054392+709322227+714192409
1638+721417696+728406650+730144736+726067982+721811160+720843788+722381779
1628+724056131+724761019+724968361+724226562+721454756+718181891+717244781
1618+718497649+717994126+712904573+705893427+700241623+696336496+693082536
1608+689679962+686346726+683694617+681846621+680432437+679179270+678235734
1598+677854225+677820452+677417200+676170384+674469732+673167476+672620691
1588+672268620+671259781+669469168+667628271+666633852+667180113+669741440
1578+674038760+678005678+679019823+678252919+679144751+682372485+685499351
1568+686766191+687917443+691086226+696792499+705750716+719414959+735816265
1558+745728778+746809422+747491969+751451714+757698048+765014266+773065409
1548+781932022+791815170+802632441+813806863+824491509+832111007+832173098
1538+826435443+821987043+821331619+822591660+823318739+823864851+826658849
1528+832605714+839848335+845939555+850597388+854575514+857787857+860187494
1518+861913326+862370150+861687902+861702920+864081562+869309119+877379389
1508+886789798+891708770+887574634+880260283+876063758+875917983+878510467
1498+881504709+882322196+880948136+880426232+882953562+887622902+891237824
1488+891234163+888218627+884763376+883108003+883955303+886395437+889241140
1478+892235979+895695040+899599568+902815572+903206048+900570676+898051117
1468+898216467+900596976+902538145+902393491+902527386+906564389+914878762
1458+922383494+921105670+912280451+904993372+902810193+904088390+906003034
1448+906672281+906108386+905318021+904858805+904876364+905826924+908079292
1438+910533399+910593248+907782289+905490694+906149182+908722463+910760392
1428+911275571+911121279+911182174+911946537+914024663+917423875+920285567
1418+919962188+916450975+912077143+908534623+906472038+905746229+905452961
1408+904862018+904150780+903752235+903712111+903979302+904607679+905515351
1398+906320361+906129905+903778237+899412326+895356419+893753572+894007314
1388+893150002+889197654+884390161+882663059+885069047+889773504+894655790
1378+898711099+901902297+904705186+907530415+910221601+912298084+913532945
1368+914319574+915622429+917989414+920681572+922498111+923200085+923338163
1358+923259560+923039591+922841290+923119091+924348423+926112884+927167376
1348+927251359+927687038+929448436+932156209+935244894+938309370+940247251
1338+940159309+939139410+939155475+940552698+942006333+942427741+942086654
1328+942152854+943611944+946238574+948464193+948903833+948093443+947887073
1318+949093765+950682415+951399706+951083276+950235304+949332638+948750960
1308+948720550+949325241+950636389+952264042+952876279+951382222+948620577
1298+946532140+945823591+945591069+944956117+943988297+943084585+942225032
1288+940949151+938853839+936145617+933475726+931035368+928310559+925076996
1278+922055856+920000070+918570943+916692537+913812016+910394424+907386135
1268+905508850+904715273+904069038+902622576+900528759+898511602+896340677
1258+893059070+888796121+885073829+883083272+882564581+882558529+882571455
1248+882606946+882590358+882387798+882170444+882227379+882522365+882885793
1238+883472178+884472575+885616654+886657697+888028470+890197827+892614948
1228+894078819+894120287+893403594+892896036+893287856+894962656+897819267
1218+901206001+904376128+906829936+908356122+909263420+910214877+911352605
1208+912227924+912843972+913847358+915591944+917844835+920288929+922726374
1198+925045913+927241421+929314392+931261314+933164003+934964105+936436494
1188+937741440+939411234+941559969+943767506+945803417+947872054+950167834
1178+952596088+954850847+956626740+957852859+958856618+960337525+962684337
1168+965297218+967306156+968557306+969293799+969730525+970503406+972409009
1158+975057606+976945799+977393434+977400009+978282127+980424661+983487792
1148+986970762+990254760+992470591+992970229+992196601+991548947+992053591
1138+993509094+995200929+997025463+999500640+1002754974+1005965972+1008291190
1128+1009817899+1011085636+1012370857+1014010614+1016167568+1017652509
1120+1016791611+1013731394+1010179982+1007718478+1008178291+1013402336
1111+1021974337+1028278428+1028253098+1024328620+1021449967+1021354777
1103+1022837925+1024739568+1027134722+1031070931+1037100584+1043515033
1094+1047113891+1046164825+1042140972+1038569685+1038007060+1040028326
1085+1042238329+1042647335+1041416807+1040061053+1039236168+1039122597
1077+1040673514+1044544420+1049450466+1053169470+1055018811+1055998884
1068+1056882198+1057181891+1056357903+1055746487+1057620858+1061729665
1060+1064974062+1065390688+1064242574+1063845375+1065316120+1068364083
1051+1071432071+1072599911+1071699935+1070756921+1071457251+1073124504
1043+1073741823+1072242386+1069790073+1068473097+1068972735+1070526790
1034+1072094893+1072724017+1071478770+1068314172+1065066114+1064076402
1025+1065344812+1066081380+1064045095+1060736217+1059614255+1061570965
1017+1063977849+1064465682+1064157919+1064984223+1065762708+1064472780
1008+1062383521+1062131572+1063629888+1064952244+1065332035+1065131193
1000+1064732499+1064225614+1062910580+1060059349+1056588482+1054050767
991+1052292432+1049681792+1045346889+1040405875+1037124269+1036672077
983+1037563386+1037057023+1034206240+1030431048+1027308740+1024995477
974+1022463963+1018783289+1014454064+1011268994+1010261499+1009970548
965+1007623063+1002197803+995221701+988566286+982945191+978570837+975728123
955+973992279+971847056+968176917+963799201+960517520+959036240+958566937
945+958241392+958192003+958842795+959616050+959169387+957182043+955183790
935+955130366+957564897+961063707+963010555+961426014+956739937+951450888
925+947985551+947194737+948429823+950356870+951918920+953010547+953923748
915+954157839+952862905+950734568+949699353+950030203+949705330+947563246
905+945075666+943995396+944385721+945453663+946434035+946493660+945126250
895+942974227+941398877+940939437+940860759+940133307+938453426+936432758
885+935019396+934826250+935772551+936927465+937031546+935779948+934099545
875+932731387+931392295+929980950+929475633+930275338+930747555+929281292
865+926855056+925654864+926196418+927337434+928128546+928476208+928483979
855+928112183+927449361+926682383+925849877+925015952+924717753+925714189
845+928049121+930765039+932762993+933419762+932504917+930532591+928979283
835+929448511+932462552+936707570+939638002+939627467+937462892+934914044
825+932617965+930732536+930537598+933608201+939628289+946073074+950195778
815+950803234+948784359+946660953+946638090+948599582+950333782+949685754
805+946475354+942511126+939683132+938467772+938913464+941702381+946611266
795+951209773+952953164+951736310+949153913+946715124+945370726+945328735
785+945845408+945829269+944859432+943317630+941847557+940739343+939602063
776+938020885+936542967+936709064+939931419+945541307+950013990+949913046
766+945756943+941183989+939019862+939441943+940790898+941356363+941019908
756+941142595+942700088+944968520+946184851+945484746+944078930+943720808
746+944005707+942763822+939704352+937339832+937417389+938972566+940336315
736+941102546+941289864+940687040+940201599+941421068+944015270+945954571
726+946889515+948542422+950968286+951517461+948953893+945860651+945174368
716+946546635+947525364+946837586+945361835+944481958+944477550+944524472
706+943583177+940980607+936411912+930285948+924337439+920736041+920007169
696+920810609+921740995+922085220+921227684+918961642+916086277+913609680
686+911544555+909017524+905557043+901437626+897241400+894180734+893851677
676+896633122+900262913+899973531+892124276+879047090+870034927+872483579
666+879421352+881598031+879228132+876755271+875973349+874876193+872048946
656+869094006+868076499+869272880+871004017+869937794+864077153+856558599
646+853171492+856017717+861210978+863231049+862030110+862853948+867611904
636+870739890+866866295+859823469+856782379+857934677+858441114+855819640
626+850740772+843961252+836264794+828764920+821891853+816082917+812809081
616+813331508+816382610+818996089+820522499+823231244+828109196+831844115
606+830790221+827092885+824701168+824470215+825918545
##END=
