##TITLE=<SNM>
##JCAMP-DX=4.24
##DATA TYPE=INFRARED SPECTRUM
##DATE=2/5/2025
##SAMPLING PROCEDURE=Instrument type and / or accessory
##ORIGIN=Admin
##XUNITS=1/CM
##YUNITS=ABSORBANCE
##RESOLUTION=4
##FIRSTX=4497.3318
##LASTX=599.83466
##DELTAX=-1.4281778
##MAXY=1.8565176
##MINY=0.38371319
##XFACTOR=1
##YFACTOR=1.7290167e-09
##NPOINTS=2730
##FIRSTY=0.3992981
##XYDATA=(X++(Y..Y))
4497+230939412+231942994+232887231+232875768+232383113+232167362+232066994
4487+231638044+231225556+231645232+233066750+234691693+235532217+235310383
4477+234577949+234130987+234342170+234966909+235545610+235870209+236028630
4467+236200445+236418866+236446118+236118381+235743503+235738625+236052762
4457+236311172+236214768+235563450+234246317+232402366+230466992+229094150
4447+228806472+229395394+230087580+230594853+231266217+232010096+232129959
4437+231493326+230765529+230349955+230170971+230481953+231792553+233783257
4427+235149841+235015689+233876937+232709315+231804998+230959854+230245760
4417+230030010+230459253+231350211+232489531+233703865+234681868+235040630
4407+234667717+233838638+232931649+232208213+231950009+232429444+233412808
4397+233975720+233337812+231786296+230322239+229617349+229621762+229850508
4387+229780269+229185142+228215309+227132577+226185823+225724504+226034400
4377+226992736+228108770+228959584+229509724+229913405+230093044+229687123
4367+228506090+227034897+226234103+226603655+227500612+227745009+227035880
4357+226259044+226206283+226667138+227064303+227291722+227439474+227235203
4347+226442183+225578355+225547053+226432720+227280018+227364357+227007387
4337+226741496+226537984+226294069+226241946+226382717+226119894+224994845
4327+223467495+222467757+222324073+222574279+222748523+222898240+223337669
4317+224228835+225399474+226292863+226273851+225265856+223960030+223235388
4307+223372918+223872193+224115832+224119245+224356661+224941498+225366052
4297+225058241+223979284+222693022+221925667+222004472+222746231+223887654
4287+225323254+226833074+227915272+228121146+227450040+226371255+225568444
4277+225450753+225757995+225952268+226033039+226442252+227163671+227650467
4267+227647847+227438181+227275296+227040706+226495030+225688669+225076616
4257+225094679+225620102+226083766+226078871+225730106+225548294+225930515
4247+226683702+227212503+227289033+227248303+227327936+227381835+227352791
4237+227378077+227319611+226750700+225650835+224656388+224353403+224738744
4227+225539555+226550911+227411275+227580107+226897487+225847521+225095989
4217+224959786+225404679+226265543+227173807+227476860+226757716+225455906
4207+224575410+224804605+226053826+227568541+228455725+228467584+228124300
4197+227814973+227325351+226548119+225898559+225662780+225590317+225354193
4187+224889943+224244055+223558263+223124556+223123695+223511449+224307209
4177+225574546+226945836+227677218+227498544+227042050+227126699+227849222
4167+228659375+229194726+229585858+229828721+229506432+228524723+227500043
4157+226980361+226826472+226641179+226334696+226068701+225941892+225893405
4147+225868153+226005563+226462505+227027640+227165895+226511595+225273474
4137+224186829+223942949+224532612+225336750+225928930+226403228+226901331
4127+227309648+227482134+227398830+227083142+226677393+226548757+226938252
4117+227531603+227770364+227596344+227446420+227494045+227386196+226794240
4107+225895680+225271975+225443134+226386716+227473154+228017158+227818627
4097+227057822+226013165+225127722+224973886+225796829+227175272+228232184
4087+228204536+227050548+225610363+224909042+225231883+226037916+226706178
4077+227124820+227492304+227791962+227739166+227208297+226449974+225842678
4067+225654575+225971228+226518455+226742168+226420896+225903471+225544882
4057+225408178+225572460+226093763+226670481+226942940+227050582+227401484
4047+228034980+228599599+228815245+228669252+228245025+227632299+226964848
4037+226354880+225917036+225918381+226594089+227711450+228644621+228970151
4027+228789494+228578622+228827242+229571138+230313810+230651544+230705236
4017+230715578+230588975+230094923+229267464+228455156+228032205+228102255
4007+228530170+229166303+229819121+230171678+230111125+230002035+230251690
3997+230759221+231089508+231020975+230673762+230245950+229889601+229767083
3987+229983713+230445653+230886065+231023285+230719818+230163404+229933933
3977+230614468+232142145+233678820+234339274+234068350+233594654+233498646
3967+233729185+234200795+235206722+236703184+237794828+237676550+236665574
3957+235657113+235075965+234953654+235620606+237533125+240174785+241847042
3947+241559795+240519671+240353890+240747659+240209327+238542585+236969144
3937+236414919+237099763+238992597+241575722+243519162+243681445+242566532
3927+241806088+242172434+242803121+242734571+242579097+243650143+245912168
3917+247545023+246714375+243563098+239948244+237671362+237530022+239709173
3907+244394418+251340188+258724491+263567675+264403839+261936613+257077020
3897+251086604+246531891+245701106+248280524+250938042+250881334+250132991
3887+252184418+256375457+258844354+258796488+258520669+257403377+253506860
3878+249319666+248945270+252767359+258312779+263675714+267380250+267653329
3868+265782196+265257273+266310824+265644993+261705591+257178216+255485222
3858+258509172+267057306+279503921+287268221+282098801+270432261+260975726
3848+256518469+256896966+260690219+265991568+271466162+276547177+280211034
3838+280703121+277908711+274054734+270746415+267814629+265010394+263172716
3828+263056766+264478559+267666929+273485323+280272121+283139717+281251847
3818+278753010+276391048+271724608+265547520+261495650+261833935+266458628
3808+272735739+277176656+280097635+284303203+288687515+289018750+285768002
3798+282748413+280405290+277455458+274803956+274287858+276074360+279239615
3788+283258995+287678848+291553354+294927241+299532577+306037901+312076941
3778+315459619+317940892+323106831+333006381+347368376+363521182+377681750
3768+388396418+396616919+402963321+408581513+415726348+424468083+431330928
3758+433953162+434864322+437967009+444865085+453864748+460636549+463862132
3748+467910521+476151981+486291085+492404725+494399582+498083279+507212803
3738+521771295+537978154+549310822+552040061+549445405+547575168+549758800
3728+555753405+563067020+568903014+572353224+574086223+574523619+573823366
3718+572590537+572385629+575557882+582587818+588339594+585538444+575437502
3708+565435325+559618568+558158251+559459095+561016144+561248976+560837159
3698+560907071+561897071+564757997+571016631+580520602+589549670+592709272
3688+589161847+583358914+578791567+576865345+578278330+582909108+590474171
3678+600609345+609359594+610217838+605237020+601859548+600210766+594383357
3668+583370083+572452438+565185774+561886453+561721568+563766618+566821629
3658+568884364+568450554+567495613+570069654+577535848+586723217+590375233
3648+583739635+571135977+559933205+553672881+551410616+550303683+548941408
3638+547960405+547889115+548496394+550521346+555976101+564680708+570449065
3628+566713624+557750917+551486284+550668685+554998822+562715291+569397255
3618+571054896+569837477+570194757+573026416+576740035+580427662+583183238
3608+582639735+578461659+574600459+574826258+578673393+582588715+584376699
3598+584931785+585333466+585559679+586658959+590759126+598107973+605910073
3588+610143307+609184609+605170693+600878373+597704775+595799307+594439962
3578+593205547+592872330+594226573+596953812+600951525+607244184+615437003
3568+621282545+620572536+615412182+610753619+608017486+606231708+605262461
3558+605571754+606379184+605980950+604091960+602864440+604730195+609508725
3548+614250093+615715684+612999062+608002593+603544733+601303634+601142575
3538+601798117+602080314+601553495+600530263+599838111+599990069+600201665
3528+599499171+598597354+598644858+598863762+597562815+594912588+592811381
3518+592389913+592865228+592776770+591940865+591394949+591224927+590193215
3508+588248585+586895789+586375659+584973567+581826720+578757714+578090865
3498+579931662+582296658+583456404+583573543+583629597+583768317+583363188
3488+581944618+579761296+577713247+576377722+574993557+572278521+568617369
3478+565971073+565604003+567070697+568963514+570014221+569938380+569529908
3468+569485472+569482611+569027462+568411358+567994646+567371889+566105449
3458+564759514+564394443+565052432+565365655+564073843+561430029+558705995
3448+556857442+556024053+555716208+555148573+553935119+552564914+551837497
3438+552044060+552830565+553411713+553098352+552177471+551649894+551584602
3428+550870284+549098778+547323617+546572275+546739194+546937622+546222407
3418+544331348+542153714+540810434+540250417+539798095+539649516+540330533
3408+541242934+541300159+540571604+540025618+539990593+539759244+538623905
3398+536794105+535003191+533412600+531629649+529985039+529637860+530832009
3388+532144643+532155537+531129719+530442945+530827045+531653470+531988756
3378+532035777+532682011+533679353+533608201+531934460+529850214+528689572
3368+528469875+528317917+527763796+527228980+527316541+527855943+527858769
3358+526662586+525047829+524543142+525524145+526832159+527368768+527094327
3348+526334470+525345987+524729573+525166313+526498011+527595360+527370319
3338+526033347+525074822+525491154+526504423+526784483+526232740+525579095
3328+525106123+524823271+525003841+525612465+525859706+524988742+523103647
3318+520922738+519174432+518354523+518575082+519411746+520195803+520587280
3308+520654227+520554979+520460005+520586556+521052943+521681182+522003057
3298+521617337+520686838+519873513+519718350+520397471+521708864+522868885
3288+522868644+521672874+520533260+520562252+521680734+523294353+525094471
3278+526856497+528275412+529174747+529293783+528154721+525865532+523565587
3268+522396948+522378091+522683144+522648705+522050941+520898952+519592695
3258+518799192+518620070+518413334+517759379+516828673+515680683+514250357
3248+512988020+512578065+513245706+514950921+517483456+519702768+519913640
3238+517824050+515046997+513276112+512926071+513493396+514296000+514779692
3228+514645626+513789279+512110678+509711588+507288574+505802403+505533064
3218+505916474+506497174+507316429+508071908+507937807+506753344+505409581
3208+504563645+503881145+502903866+501796037+500948825+500405735+499858164
3198+499069384+498179942+497418154+496572632+495264031+493753935+492770864
3188+492450643+492122735+491231156+489919073+488626089+487569487+486745062
3178+486138645+485752890+485465591+485024369+484276130+483303883+482298336
3168+481362804+480484049+479655487+478934929+478336407+477804451+477346062
3158+476926524+476242128+475041739+473672018+472715698+472161094+471577326
3148+470916648+470468394+470226323+469864011+469176788+468211230+467134737
3138+466135257+465272050+464380229+463301496+462232277+461649646+461757064
3128+462157677+462244997+461745688+460761514+459592151+458668408+458274863
3118+458186991+457868149+457058340+455956268+454878327+453980750+453305145
3108+452879333+452667358+452461898+452004405+451226001+450221281+449135067
3098+448171577+447398758+446527587+445312409+444118121+443623328+444031869
3088+444875875+445489256+445574163+445376425+445322957+445550997+445846432
3078+445879733+445374736+444197857+442495263+440770330+439654159+439369514
3068+439445596+439281676+438851969+438428501+437996690+437449084+436865661
3058+436196537+435238011+434181754+433557445+433490705+433481225+432938962
3048+431749225+430357751+429344620+428880060+428668360+428419085+428174153
3038+428044844+427839419+427258512+426378171+425592080+425013310+424295511
3028+423211882+422070579+421366396+421299070+421699924+422092332+421828302
3018+420606781+418936729+417725929+417308562+417152813+416602794+415585422
3008+414490865+413736938+413518343+413652065+413692984+413453948+413213670
2998+413195778+413203948+412973047+412522345+411984495+411290551+410175758
2988+408587477+407026568+406142745+405958693+405898124+405570284+405057875
2978+404487896+403821909+403065258+402344494+401748488+401233424+400681854
2968+400004146+399219469+398509356+398157455+398257392+398478779+398363052
2958+397798761+396945827+395864404+394635954+393704593+393536812+393961797
2948+394282156+394020436+393216350+392118552+391037888+390408477+390502693
2938+391012240+391209944+390645997+389563885+388589743+388150038+388198542
2928+388310718+387996012+387117119+386032284+385122917+384320727+383401431
2918+382489720+381863240+381509580+381251893+381072012+381057120+381206733
2908+381374479+381328423+380927776+380230454+379370969+378490249+377822160
2898+377570506+377606323+377493527+376880077+375811755+374734952+374185277
2888+374273011+374456409+374063380+373084274+372194005+371934215+372166495
2878+372381366+372200762+371502922+370424740+369360278+368691981+368492727
2868+368611590+368873517+369036575+368827875+368246106+367598666+367070227
2858+366498110+365686061+364699060+363765045+363063068+362615469+362273909
2848+361860369+361361750+360888606+360510573+360289704+360322729+360555871
2838+360709794+360529947+359981204+359175773+358309325+357612588+357135376
2828+356666059+356036579+355359734+354819608+354419444+354080366+353814268
2818+353632457+353404072+352985430+352455440+352049898+351835441+351598714
2808+351095923+350315485+349499023+348959518+348789049+348704107+348355204
2798+347785639+347292914+346884476+346277404+345429296+344656891+344180162
2788+343882555+343576192+343241940+342933199+342629146+342288413+341944750
2778+341653039+341376254+340997049+340465680+339933484+339660112+339686794
2768+339682037+339262843+338420630+337489751+336755749+336229275+335772609
2758+335337041+334990241+334711147+334330253+333774063+333181746+332690193
2748+332293235+331936679+331550649+330997424+330203645+329345540+328715991
2738+328386186+328120330+327664457+327031357+326436558+326021536+325739993
2728+325498371+325294083+325148538+324961831+324549015+323843315+322991208
2718+322236936+321762344+321570260+321434056+321040304+320294581+319453815
2708+318880148+318665587+318577887+318395869+318159866+317975124+317736087
2698+317284317+316741709+316416490+316384223+316363194+316063726+315530633
2688+315028153+314660359+314266158+313697351+313040673+312500030+312165296
2678+311972522+311849212+311786988+311711698+311432431+310902234+310397651
2668+310199982+310221597+310174954+309962427+309667613+309327811+308940816
2658+308576297+308318300+308154380+307970535+307626596+307102156+306583128
2648+306257978+306036488+305665453+305108333+304605887+304358025+304299524
2638+304187831+303850752+303374196+303027982+302968309+303057801+303025465
2628+302769433+302449833+302253026+302127543+301885438+301516024+301174292
2618+300880443+300505444+300047123+299658266+299403096+299184226+298903856
2608+298578567+298311401+298175852+298103562+297949846+297699364+297477909
2598+297319677+297112700+296836122+296647347+296624492+296567645+296193612
2588+295496323+294801414+294422037+294360330+294419831+294465680+294429759
2578+294225057+293853919+293469647+293192483+292988643+292781391+292539941
2568+292275118+292050974+291914977+291786220+291578313+291403258+291406395
2558+291449659+291239752+290743476+290238686+289990548+290040259+290234067
2548+290337728+290201455+289884716+289566494+289358690+289270335+289263372
2538+289256546+289162848+288975469+288751618+288538488+288388168+288358624
2528+288414574+288425692+288329943+288203047+288123983+288072066+287995639
2518+287890737+287776597+287668920+287608144+287639445+287713459+287658423
2508+287323482+286773911+286299112+286163685+286335430+286505641+286407065
2498+286094032+285875541+285961603+286216928+286325053+286162151+285894277
2488+285724186+285682543+285676665+285628420+285532792+285419375+285277173
2478+285060337+284793067+284594432+284529709+284491272+284313011+283991377
2468+283723175+283703784+283927998+284216141+284408760+284480223+284464882
2458+284363583+284191597+284034330+283951974+283884389+283737258+283511734
2448+283300966+283189945+283163176+283120326+283033713+283014597+283111536
2438+283166365+283024715+282770320+282605935+282612761+282751929+282999688
2428+283328251+283582232+283557911+283275766+283011736+282969351+283067496
2418+283118223+283065187+282984830+282962008+283016786+283116913+283229055
2408+283337369+283428068+283493015+283542295+283603192+283720073+283920396
2398+284167414+284404951+284627320+284831832+284963002+284972793+284873493
2388+284697955+284433288+283957851+283025560+281386724+278956453+275860368
2378+272350106+268653722+264831202+260813288+256642399+252575792+248895525
2368+245756607+243273645+241571412+240680023+240557747+241289646+243153402
2358+246455395+251334862+257800421+265853331+274998126+283556205+289298362
2348+290912154+288894182+285488890+283043675+281882551+280862801+279432613
2338+277914502+276572738+275306557+274054079+273034811+272482931+272329956
2328+272289295+272133080+271826648+271566634+271707940+272482810+273759471
2318+275120264+276179227+276853022+277339352+277854726+278485274+279262833
2308+280180732+281110645+281860488+282332770+282567153+282668332+282712061
2298+282707734+282678932+282732141+282944772+283231175+283403127+283332802
2288+283058671+282782265+282699961+282788815+282842800+282722765+282460596
2278+282135618+281777683+281398910+281028513+280684626+280354322+280044581
2268+279830037+279797942+279933181+280071039+279988751+279604031+279093639
2258+278728551+278601397+278635473+278795774+279097224+279445334+279662963
2248+279677476+279572316+279469120+279422375+279416014+279417979+279413584
2238+279410344+279431338+279481962+279534912+279598446+279738821+279946280
2228+280076192+280027396+279885970+279817058+279882419+279983339+279955692
2218+279759919+279551322+279490701+279557165+279624491+279634040+279620750
2208+279630524+279663721+279685267+279673874+279639935+279601118+279570333
2198+279542083+279481651+279390522+279359513+279461192+279638073+279775466
2188+279812214+279746422+279628748+279535550+279465897+279353256+279246786
2178+279320524+279620233+279958087+280130039+280115647+280029378+279975290
2168+279977616+280006695+280063075+280197883+280400085+280537443+280514312
2158+280414753+280381745+280436678+280518259+280603149+280691538+280765552
2148+280831740+280920974+281014500+281062486+281079826+281125400+281206429
2138+281293456+281396617+281535475+281671989+281752656+281785423+281824274
2128+281897064+281976318+282019254+282044626+282148666+282395270+282701185
2118+282896699+282925932+282929793+283080596+283377289+283686444+283949923
2108+284217141+284478947+284631974+284654088+284682546+284852102+285143865
2098+285449298+285703020+285894760+286032480+286153360+286295786+286436505
2088+286538201+286636622+286772032+286909511+287036269+287221355+287481627
2078+287721819+287874794+287978144+288088234+288213561+288351712+288564222
2068+288967868+289559600+290084867+290248511+290046223+289739618+289568838
2058+289602346+289757131+289881062+289909537+289967865+290230792+290684458
2048+291107513+291312421+291363338+291472377+291686455+291835448+291827760
2038+291792770+291860786+291990784+292069383+292052318+292008882+292085999
2028+292365197+292737024+293017532+293192966+293464545+294041384+294887390
2018+295646316+295890903+295532555+294912797+294463094+294363191+294479435
2008+294544934+294443514+294321720+294375877+294643768+295058997+295497392
1998+295777107+295942785+296436303+297512761+298646997+299052470+298612248
1988+297780721+296946643+296335503+296098983+296188751+296408793+296644900
1978+296867734+297036135+297136969+297209984+297370697+297887967+298939019
1968+300115036+300609070+300204804+299573428+299322843+299356937+299389238
1958+299498242+299832114+300201149+300320806+300238070+300286712+300718281
1948+301572353+302911532+304786319+306603502+307079094+305700064+303636916
1938+302333762+302075489+302333624+302666083+302933939+303129609+303290185
1928+303584137+304434865+306080407+307868666+308873869+309327570+310028892
1918+310521272+309662718+307841571+306690960+307023523+308257799+309282548
1908+309436574+308924476+308418410+308286205+308375835+308475428+308710397
1898+309366283+310343666+311100972+311562188+312518611+314261987+315543009
1888+315116370+313605308+312426430+312033781+312097487+312320322+312560289
1878+312755890+312964556+313370684+314524983+317378635+322190225+327026910
1868+328543694+325838690+321634897+318740393+317797967+317975090+318313857
1858+318387526+318284969+318284658+318551998+319192302+320386693+322332254
1848+325314767+329480468+333568534+334670917+331833122+327975853+325928561
1838+325849273+326347927+326682420+327800005+330976188+335458559+338433109
1828+338644188+337765226+336833383+335046743+332407893+330424308+329970607
1818+330444819+330982531+331678234+333282580+335833524+338038598+338565107
1808+337699038+336948385+337595825+340036420+343546407+346369275+347061289
1798+346261064+346316393+349094171+354042928+357491691+355932677+351146253
1788+347628338+347196148+348678252+350505536+352262908+353730360+354362495
1778+354617768+356304332+360914116+367745211+373126779+373517912+369899507
1768+365326920+361694450+360463276+362379087+365740770+367557987+367521928
1758+367425093+367637793+368084116+370386509+375953543+382963278+387095298
1748+386577132+383805629+381592143+381108554+382251821+383916770+384692175
1738+385261775+388544170+395409255+400821608+399081059+392940496+387141182
1728+383032431+381004134+381172398+382739788+385507258+391131724+400930026
1718+412059612+417227654+413454396+405915877+399750148+396925315+397960337
1708+402517032+408639118+413605526+417652949+423964534+433011942+439513543
1698+439775263+435936437+429311939+421620946+416920016+417060183+420621639
1688+426312638+435211605+446885280+453706137+449660196+441314661+436062678
1678+436009313+440025262+444802413+447844978+450618308+454677211+457053135
1668+454378329+449960078+448984143+451735548+454173593+453402256+451650676
1658+453068659+460438501+474608963+490557240+494944396+488757363+486077869
1648+489693688+492326609+487363441+479064617+474171913+474500959+479764595
1638+489352266+499943554+503754008+498135437+491019835+488625641+491029177
1628+495341975+499355959+503038553+505980801+506554434+505688159+507017098
1618+511900047+516568228+516360148+513190343+511584342+512739675+515176823
1608+517195122+518423401+519502617+520898538+522403429+523642359+524754049
1598+526261215+528315642+530418228+532045119+533248094+534330206+535304796
1588+536070893+536807550+537822577+539211604+541044989+543942629+548994186
1578+556232478+562368525+562866938+559956164+559827924+563785751+567598826
1568+567487650+565562600+565440979+568601684+576620724+591715204+610230179
1558+616650596+607826367+597908925+592574551+590891916+591319590+592724854
1548+595384043+601342864+611973693+625981511+640532695+651110710+650658905
1538+641326887+634585112+635199837+639989605+643342807+644615487+648080590
1528+655863661+665922097+675720468+685665419+696110024+704011545+707452516
1518+708689964+709012013+708016083+707215617+709603089+717095345+729830000
1508+744586920+751330212+743607814+732196444+726789814+728219415+733992426
1498+740163877+742647392+741210482+740261712+743599402+750823319+757202919
1488+757866527+753595994+748816361+746412480+746514244+747902409+750115378
1478+754116125+760884099+769951364+778373636+781013659+776449897+770584222
1468+768978532+771719423+774790222+774903018+774225896+777401700+786170359
1458+796693286+799911285+793289615+784718074+779166725+776676316+775859234
1448+774991821+772998928+770480527+768568095+767608707+768002528+770789613
1438+775782841+779623701+779128529+776585100+775722376+776593650+776930039
1428+776032082+775589378+776838478+779388526+782717873+786687869+789657593
1418+788537147+783309708+777523804+773766852+772257549+771950048+772095732
1408+772945426+774445145+775174115+774361376+773890128+775978856+780373837
1398+785030401+788250055+789096784+787501643+785276677+784745377+786183252
1388+787694899+787284393+785402435+784686083+786926837+791509353+796828766
1378+802482017+808918567+815097740+818577391+818987345+818857382+820054910
1368+822265052+824820202+827703398+830555981+832454555+833066523+832854996
1358+832127198+830749031+828629898+826284621+824758770+824625773+825381907
1348+826182029+826692645+827046408+827703329+829412783+832411188+835549899
1338+837119255+836764388+835685792+835017910+834862574+834888428+835251431
1328+836376427+838069886+839602700+840776442+842317253+845003608+848761663
1318+852807225+856484544+859634149+862186954+863952324+864997825+865682186
1308+866234929+866846827+867929766+869770632+872201334+874823086+877229725
1298+879002058+879879951+879954344+879467032+878605755+877517576+876157334
1288+874151411+871234638+867800492+864692600+862533064+861449298+861179580
1278+861062785+860281279+858735503+857347131+856997849+857620986+858602643
1268+859474400+860085747+860647797+861491079+862509967+863287957+863719699
1258+863866968+863626966+863206808+863270997+864134204+865552360+867408877
1248+869655975+871707265+872899898+873567091+874804815+877143059+879998677
1238+882560376+884815196+887231488+889762851+891932384+893633633+895018695
1228+895900725+896034343+895770761+895921892+897242075+900069356+903801625
1218+906920135+908520723+909574223+911588351+914514845+916996015+918271315
1208+918810475+919359908+920346805+922094042+924726411+927859675+931044856
1198+934204665+937221616+939819375+942116183+944491589+946867754+948853407
1188+950549141+952597053+955308573+958034571+959606271+959588069+958913843
1178+958895779+959984372+961904733+964494080+967795505+971310455+973601127
1168+973659318+972466340+971849822+972230682+972986609+974260736+976346017
1158+978061332+978001279+976995491+977729010+981986513+988569229+993816800
1148+994861336+992363964+989194848+987438441+987892107+990944980+996144220
1138+1001491281+1004584763+1004404055+1001743486+998552307+997268527+999578090
1128+1004666602+1009410521+1011169685+1010177962+1008551174+1007632741
1120+1007638670+1009336266+1013760411+1019628085+1023611319+1024634896
1111+1025029062+1026169158+1026912192+1026801671+1027044017+1028618268
1103+1031080547+1032862257+1032601433+1030417146+1027919359+1026404265
1094+1026029886+1026565185+1027524780+1028975548+1031517873+1034421684
1085+1036364729+1038701318+1043804309+1050012440+1052912321+1051806560
1077+1050391369+1050881922+1051987544+1051988303+1051377508+1052515053
1068+1056265179+1060768613+1063707862+1064033634+1062217519+1060436361
1060+1061428705+1065397874+1068636557+1067475295+1063432629+1061182773
1051+1062646227+1065918280+1068415377+1068694265+1066030042+1061508200
1043+1058781788+1060295297+1063664771+1064500055+1062470345+1061033091
1034+1061537916+1061854655+1061302051+1062581280+1067270662+1072467696
1025+1073741823+1070393515+1065282251+1060604866+1056620459+1053715752
1017+1053037459+1054360952+1055490223+1054733193+1052889155+1052337171
1008+1054750153+1059414163+1063414703+1063707725+1059741658+1054279802
1000+1051131990+1051895225+1054690722+1056421549+1056222777+1055001463
991+1053088134+1050416258+1047894548+1046545889+1046029137+1045302788
983+1044095676+1042763358+1041301283+1039323352+1036684088+1033818887
974+1031830683+1031466922+1031597644+1030093236+1026797328+1023687160
965+1021697991+1019780457+1017225859+1014797639+1013326670+1012493523
957+1011248629+1008998980+1005975065+1002385859+998002116+993217105+989521377
947+987969603+988035240+988308129+987416723+984618951+980790088+978156546
937+977639036+977401998+975171034+970934629+966713186+964828677+966454706
927+970356928+973068793+971790529+967248554+962831027+961307107+962658316
917+964388937+964230016+962816066+962367087+963037797+962804896+960925696
907+959187560+959365924+961202102+962925414+962975883+961458720+959935765
897+959525604+959731684+959228721+957295398+954776652+953618906+954545406
887+955868417+955682055+954007970+952055618+950794590+950645735+951421381
877+952014664+951029835+948120646+944568120+942386245+942564058+944465390
867+946854654+948904703+950460614+952049137+954132556+955760309+954940400
857+951056379+946040054+942641347+941893141+942589913+943440503+944733177
847+946731378+948040324+947770744+947311424+948041565+949353337+949893531
837+949037218+946707178+943305989+940343780+939795175+941913067+944489176
827+945334733+944792885+944318948+943952016+943134657+942971737+945615276
817+951006600+955423368+955572086+953695505+954401102+957625237+959098619
807+957057051+953985149+951923586+950941653+951713162+955207222+959233961
797+959250232+954441091+949620297+949054662+951535556+953274313+953135041
787+952583402+952477638+952309478+951824027+951835472+953107600+954888276
777+955656890+955593735+956587458+959063595+960732647+959785738+957617722
767+956964249+958932045+962350127+965372456+967487522+969236758+970235445
757+969252064+966443468+963725398+962561654+962701063+963781314+966153756
747+968748480+968951941+966400376+964518005+966295026+970585072+973808586
737+974036799+972517981+971798871+972689037+973232264+971348928+968215456
727+967057297+968756478+970969516+971332380+970349068+970178426+970652708
717+969281780+965340741+961140878+958955211+958835176+960127367+962708371
707+965697262+967016825+965511866+962454856+960172596+958973827+956792366
697+952907518+949700964+949391602+951212681+952151384+949669249+944380861
687+939539315+936890123+934568287+930171789+924125268+919032413+917389561
677+919678577+922798328+921822187+915049661+905222126+896194919+892199137
667+895522003+902543631+909330153+913883986+913340207+907324988+901190423
657+900468417+905022389+909661784+910138134+907472671+905815133+906949851
647+908104977+906679513+903741435+900961866+898525855+896200917+893674794
637+891432316+890780980+892372606+895807027+898991656+898351145+893241605
627+888403230+887470249+887659644+885267759+883013491+885027757+887938739
617+885505348+879268536+876232555+879225513+883837331+885106908+884719360
607+886415094+887836078+885138485+881378982+880559900+878578245
##END=
