##TITLE=<SNM>
##JCAMP-DX=4.24
##DATA TYPE=INFRARED SPECTRUM
##DATE=3/5/2025
##SAMPLING PROCEDURE=Instrument type and / or accessory
##ORIGIN=Admin
##XUNITS=1/CM
##YUNITS=ABSORBANCE
##RESOLUTION=4
##FIRSTX=4497.3318
##LASTX=599.83466
##DELTAX=-1.4281778
##MAXY=1.7588314
##MINY=0.19383645
##XFACTOR=1
##YFACTOR=1.6380394e-09
##NPOINTS=2730
##FIRSTY=0.21436362
##XYDATA=(X++(Y..Y))
4497+130865975+130576938+130446815+130228161+129927998+129686255+129504726
4487+129325443+129309360+129667261+130252695+130682417+130788396+130739955
4477+130849664+131268952+131740055+131836592+131558617+131365261+131487169
4467+131543379+131054637+130150737+129518608+129655844+130344038+130950204
4457+131106380+130881040+130411919+129738272+129068445+128876718+129483393
4447+130580558+131321896+131027883+129844688+128574490+127874334+127831669
4437+128244662+128927160+129625442+129933984+129583260+128835045+128334594
4427+128345929+128363932+127821144+126906664+126228796+125959708+125771665
4417+125451416+125195865+125283423+125706022+126202651+126440919+126145195
4407+125402165+124822908+124943261+125550691+126009141+126036468+125788631
4397+125455346+125134924+124872104+124600724+124261453+124020794+124130412
4387+124517651+124695860+124228659+123248863+122348138+121936282+121830275
4377+121593154+121268748+121463295+122427590+123479971+123858249+123729964
4367+123728709+123895338+123677957+122702182+121210355+119887704+119266974
4357+119257986+119473529+119861869+120542275+121262353+121614332+121595001
4347+121505524+121530540+121699170+121982568+122258178+122401737+122411898
4337+122196628+121441208+120132002+118977236+118736912+119334855+120155372
4327+120896410+121483454+121502676+120573059+119173448+118334427+118444782
4317+118976617+119424651+119797380+120080514+120033446+119742389+119646334
4307+119860477+120114500+120321010+120614468+121017690+121495853+121961736
4297+121966093+121028443+119577007+118860522+119545531+120946361+121963646
4287+122263290+122150079+121831394+121378576+120982622+120714389+120416018
4277+120196500+120493852+121300160+121907217+121751942+121055161+120428163
4267+120261534+120616861+121330080+122038450+122365085+122307747+122334392
4257+122924911+124059574+125222191+125830441+125676529+125072583+124511210
4247+124151963+123825373+123541130+123633491+124284332+125157830+125651167
4237+125474859+124992557+124917971+125562817+126490752+127058683+127100084
4227+126854330+126483083+125985562+125473385+125194446+125209874+125265502
4217+125158203+125126155+125546579+126293803+126815904+126854866+126660019
4207+126534017+126564201+126702884+126864500+127049450+127388448+127895812
4197+128366270+128676012+128839875+128728856+128239713+127668170+127343227
4187+127073057+126500404+125779034+125375939+125415174+125694778+126188460
4177+127046412+128100148+128832807+129035305+129113239+129449689+129802287
4167+129751399+129481829+129547327+129951441+130109464+129810647+129568732
4157+129794582+130190299+130237458+129848090+129280923+128751844+128354598
4147+128147479+128147397+128305184+128507482+128557879+128274554+127770329
4137+127518607+127874971+128607803+129201388+129513432+129764025+130016238
4127+130105743+130016056+129951577+130069091+130367653+130747333+131029666
4117+131084175+131032959+131134108+131437036+131751281+131929472+131950086
4107+131773905+131410446+131147298+131397428+132163746+132899489+133101041
4097+132859808+132587300+132341464+131803334+130897614+130038971+129705878
4087+130062815+130957845+131997872+132693243+132773278+132342192+131686529
4077+131094827+130764226+130611151+130309551+129713683+129049032+128631164
4067+128655344+129194956+130101404+130951132+131290266+130952405+130184614
4057+129512886+129346375+129639843+130025062+130233346+130268806+130270125
4047+130386620+130696872+131041428+131052926+130607758+130092634+129905037
4037+129881148+129660311+129443813+129823356+130890828+131993451+132441421
4027+132188872+131737590+131517007+131491163+131375459+131086012+130844797
4017+130898597+131190554+131341527+131053527+130524912+130266068+130472587
4007+130831625+131027027+131158469+131497394+132035470+132465801+132541806
3997+132314491+132023789+131862682+131918583+132245864+132790025+133282807
3987+133452238+133323225+133118480+132963777+132875309+132938961+133357666
3977+134255962+135346023+135921441+135546674+134649706+133975303+133659384
3967+133421363+133393471+134006242+135178011+136288657+136925726+137145472
3957+137074461+136779765+136568598+137021808+138440295+140183862+140942984
3947+140284029+139440405+139630476+140270292+139887538+138403107+137191066
3937+137284992+138733854+141124669+143702753+145196499+144710049+143079548
3927+142255128+143154707+144650382+145111534+144732801+145077930+146580127
3917+147635000+146553373+143771317+141164795+139946150+140087289+141409449
3907+144479232+149777532+156087913+160743459+162190802+160774152+157093017
3897+152196975+148469600+148039478+150503441+152713054+152373929+151620237
3887+153391832+156564757+157788096+157219628+157375695+157596406+155772940
3878+153466645+153742956+156842814+160998665+164970083+167467596+166922944
3868+164655620+163731388+164233412+163347333+159924661+156374667+155625151
3858+159138429+167225617+177950338+183791417+178384627+167863186+159715576
3848+156105470+156631947+159900572+164274603+168771880+173095460+176381333
3838+176947454+174622474+171398061+168601877+166001405+163576904+162271291
3828+162507103+163819610+166666173+172186712+178629990+181151118+179265939
3818+177161706+175320756+171121222+165473472+162058950+162922196+167653247
3808+173430137+176934155+178767845+181778608+185218837+185733616+183913680
3798+182668726+181734688+179714073+177636457+177483629+179659965+183403086
3788+188018824+192910454+197487475+202157521+208476244+217046079+226122797
3778+233919174+241333078+250415636+261944164+274974379+286967615+295245494
3768+299701925+302006583+303417538+305609939+310476298+317656702+324472282
3758+329847451+336620493+348419564+366474098+388103259+406515630+417932229
3748+426861976+437655325+448704552+455213820+458426753+464577055+476720209
3738+493782192+511919326+526463820+535117311+539596430+543272871+547876583
3728+553171189+558283093+562350957+564644298+564476878+561894581+558454515
3718+555830082+554673860+555250970+556852761+556414543+551478320+544356573
3708+538721777+536266401+537473675+541401556+545442749+547776880+549089133
3698+550484314+552256727+554974969+559878188+567870840+577348588+582781978
3688+580433546+574550476+570837428+571051716+574304567+579480331+586870511
3678+596485477+603624253+602052009+595698045+592208819+590173395+583662599
3668+573308997+564560242+560231623+559853626+561150924+562110761+562640750
3658+563179726+563251228+563694431+567734168+577330867+589154900+594288964
3648+588441736+578427304+571170195+568001509+567412645+567790678+568538193
3638+569791861+571463699+573176618+575480548+580001441+586869273+591834243
3628+590110262+584620689+581149767+582123431+587721294+596457131+604281489
3618+607382348+607155398+607856736+611410696+616665530+621433424+623900152
3608+623261983+620795036+618955051+618914369+620242742+622450608+625820045
3598+630651108+636166624+640500775+642378822+642934827+644560853+647532862
3588+648784093+645813757+640583812+636210654+633329468+631456515+630905458
3578+632203993+634978999+638097070+640325240+641513302+643023541+645876126
3568+648756511+649304584+647642244+645666678+643619136+639808097+633418400
3558+626697501+623135426+623707806+626137638+628158252+629958939+632253626
3548+634138878+634237998+632542691+630201427+628412821+627734262+627713739
3538+627340837+626072795+624133325+622083237+620591992+620225858+620809518
3528+621497248+621840749+621868403+621261455+619830832+618592264+618580693
3518+618879873+617548444+614125153+609797079+605678053+602363852+600663997
3508+601276767+603537432+605463874+605575076+604311073+602960321+601796203
3498+600332940+598831689+598206911+598486332+598804616+598955116+599236722
3488+598732387+595986891+591835553+589226584+589821743+592375038+594454273
3478+594664668+593299288+591732139+590959043+590651567+590166044+589635401
3468+589224146+588726034+588451924+588732110+588733347+587436887+585247142
3458+583327103+582113497+581359979+580874966+580684185+580752703+580681165
3448+579815936+577964197+575719143+573697509+571972327+570562446+569944654
3438+570562992+571844424+572159907+570456048+567684681+565560361+564421459
3428+563547461+562915659+562990436+563464205+563809125+564325250+565430129
3418+566680013+567318328+567087157+566096353+564542449+562718911+560894281
3408+559081768+557034991+554659814+552510860+551658949+552708264+554958012
3398+556833876+557322782+556669912+555553062+554224179+552664635+551017177
3388+549677815+549187708+549750991+550613709+550672257+549944065+549441331
3378+549611225+550026774+550408373+550664543+550140704+548226379+545692223
3368+544220446+544368071+544888853+544419596+543090750+542103695+542302918
3358+543415912+544323496+544125729+543299034+543342117+544803742+546326717
3348+546400111+545345266+544406533+543710216+542571606+541237775+540864254
3338+541834462+542939232+542533217+540502414+538602789+538387409+539289681
3328+539506916+538473466+537344026+537206516+537795162+538093432+537659362
3318+536804067+535748348+534364702+532901403+532161457+532539708+533439979
3308+534011413+534081823+534117556+534504249+535080523+535399098+535325449
3298+535125098+535037731+535159812+535660362+536575988+537380231+537377939
3288+536762985+536625221+537451734+538364085+538377112+537762704+537504278
3278+537850216+538136770+537821797+537079013+536353586+535776039+535295283
3268+535003053+534878425+534476740+533337875+531751512+530585793+530178723
3258+530099434+530022073+530094194+530261177+530037028+529378992+529006162
3248+529384668+530109258+530647325+530953928+531210644+531373698+531004653
3238+529749419+528050764+526934241+526728723+526463165+525092946+522934640
3228+521133517+520114731+519355063+518447406+517612633+517039198+516502005
3218+515918599+515562363+515492717+515410226+515049732+514148406+512405103
3208+510134177+508380940+507804848+508011531+508211227+507905133+506863860
3198+505139115+503287413+502109248+501963624+502528436+503300185+503999849
3188+504257475+503435984+501407364+499116607+497704760+497295616+496983627
3178+495807792+493652615+491368444+490006303+489853693+490186386+489902416
3168+488430348+486159531+484053769+482843038+482501575+482307737+481409504
3158+479572794+477474710+475995546+475234859+474664917+474131290+473999457
3148+474295762+474363808+473513170+471706734+469595441+467899625+466653743
3138+465344655+463953768+463200541+463387101+463771283+463583668+462946554
3128+462334438+461767699+460977501+460009040+459272660+458988580+458845140
3118+458396151+457559632+456498491+455374399+454438432+453884974+453501846
3108+452965490+452439978+452335181+452526726+452329359+451320871+449846328
3098+448577631+447814143+447315448+446655992+445670792+444599827+443757558
3088+443130633+442574227+442241643+442421289+443022270+443495202+443309079
3078+442485004+441634294+441257498+441118315+440608922+439575691+438481218
3068+437839883+437739490+437778206+437368516+436295294+434949710+433856184
3058+433088583+432324803+431353613+430295019+429355195+428647234+428236380
3048+428014596+427565170+426510761+424967555+423446872+422431471+422051655
3038+421930338+421532619+420933676+420790599+421251815+421511296+420811813
3028+419355101+417904210+416902090+416193583+415436135+414649649+414149317
3018+413843223+413116377+411793280+410601834+410173368+410218816+410114056
3008+409679695+409048730+408273379+407299569+406108123+404893389+404089437
2998+403960588+404245213+404450040+404272759+403563161+402222561+400384723
2988+398544919+397332332+397004515+397137512+397019507+396362379+395386750
2978+394377170+393510340+392914126+392561383+392265477+391933657+391614791
2968+391238723+390585707+389630600+388687538+388017711+387466254+386766553
2958+386073511+385792270+385906382+385909293+385449934+384636557+383661073
2948+382567765+381478315+380640740+380118794+379708740+379196945+378478614
2938+377519723+376459637+375623991+375232313+375220450+375398496+375550306
2928+375370186+374646542+373574376+372562577+371699640+370743150+369637362
2918+368685566+368175627+368117007+368325873+368547547+368565050+368310007
2908+367791227+366978614+365914562+364821873+363922003+363217390+362585115
2898+362005530+361544279+361151291+360664749+360075231+359594693+359337796
2888+359153091+358897867+358620738+358370098+358079578+357697943+357216278
2878+356581929+355797663+355073546+354654613+354467471+354149114+353505305
2868+352727807+352048264+351468934+351012267+350875522+351055169+351134894
2858+350765449+350098606+349505012+349108676+348765503+348295736+347668702
2848+347053020+346595007+346165631+345572801+344920259+344392890+343875965
2838+343191475+342466266+341889883+341394354+340866695+340381572+340004704
2828+339601454+339018486+338344256+337857533+337698991+337675048+337445878
2818+336832088+335908202+334937376+334227086+333881839+333671299+333246253
2808+332466535+331495308+330661591+330222827+330139099+330083680+329747275
2798+329094805+328312723+327601123+327028270+326488202+325797889+324938955
2788+324165496+323701443+323373261+322795132+321936125+321217284+320952817
2778+320928874+320638027+319792010+318526370+317191120+316023908+315024518
2768+314113403+313356173+312937241+312895031+312987856+312883678+312435307
2758+311704968+310800549+309833252+308972754+308312788+307691903+306883840
2748+305951257+305179453+304709741+304430993+304113946+303527993+302626449
2738+301700834+301132766+300947625+300800200+300408886+299847167+299373926
2728+299081568+298801309+298348172+297739932+297094976+296416580+295614284
2718+294720163+293952435+293464948+293114388+292645385+292052574+291533320
2708+291120100+290625590+289970955+289342629+288959920+288808492+288662923
2698+288305577+287676595+286892074+286192373+285777207+285605020+285443694
2688+285158905+284819353+284503598+284174106+283763633+283231498+282518989
2678+281608166+280660064+279947390+279577126+279383343+279148405+278828484
2668+278514730+278273861+278095834+277974753+277960562+278027006+277940130
2658+277459884+276658152+275815101+275065785+274398160+273881963+273604106
2648+273449985+273204404+272833940+272467387+272131473+271730571+271292516
2638+270979618+270807867+270609263+270313612+270021163+269763083+269429134
2628+268968846+268482469+268061444+267674969+267311036+267121256+267247576
2618+267539206+267623771+267289841+266704397+266236814+266075707+266027712
2608+265775053+265302594+264900436+264782685+264903456+265098586+265231874
2598+265224669+265062125+264785177+264450719+264094683+263734207+263401750
2588+263149328+263005323+262959220+262981234+263012910+262980561+262878093
2578+262777171+262707507+262590502+262349597+262033278+261742703+261470085
2568+261155786+260922067+261042511+261583634+262280041+262868232+263328974
2558+263692343+263830343+263616274+263167230+262751391+262456395+262091480
2548+261500124+260843633+260408926+260235466+260140803+260022124+259887598
2538+259672146+259290329+258824092+258448406+258228060+258137818+258182321
2528+258353743+258542087+258587135+258396299+257994523+257505253+257102931
2518+256934237+257012835+257173869+257207255+257092779+257034067+257183821
2508+257397399+257381443+257078952+256751225+256614880+256556314+256325670
2498+255906719+255533944+255371800+255322040+255178963+254857440+254410107
2488+253954695+253653131+253601315+253664302+253580483+253267657+252874251
2478+252556622+252354760+252231005+252112290+251919180+251595674+251122888
2468+250561206+250058727+249723177+249513328+249323165+249096378+248804876
2458+248436813+248072080+247849714+247798262+247788892+247690190+247484872
2448+247224681+246963362+246759027+246670095+246695111+246720201+246581181
2438+246234151+245824260+245514273+245305571+245117828+244957448+244885437
2428+244882508+244863313+244808349+244809168+244950535+245171227+245294290
2418+245224535+245061918+244969857+244983029+245025566+245076746+245188820
2408+245337919+245404982+245339975+245231085+245194333+245288923+245509979
2398+245771862+245939737+245964990+245961242+246075591+246301887+246495615
2388+246576651+246596973+246548596+246238081+245453596+244167597+242516664
2378+240694491+238921877+237401559+236196722+235200970+234288255+233454756
2368+232791971+232405514+232373311+232661248+233123027+233775824+235003512
2358+237241343+240532583+244718071+249940102+256287117+262916318+268340156
2348+271562023+272691937+272805812+272941611+272944741+271895863+269436138
2338+266066865+262465546+258946428+255582267+252554602+250117784+248289497
2328+246819176+245454779+244139196+243023437+242319406+242088453+242208951
2318+242506348+242820939+243044033+243197662+243410913+243766603+244221251
2308+244666292+245009956+245210708+245293635+245358351+245514018+245744753
2298+245890213+245827626+245632096+245493987+245507723+245594071+245651764
2288+245730307+245929730+246163577+246230694+246122513+246027905+246029560
2278+246009365+245855499+245583901+245250152+244879488+244499872+244151532
2268+243850477+243605860+243454905+243415206+243439932+243475774+243518548
2258+243579297+243628857+243577550+243342176+242991561+242725730+242625173
2248+242574375+242497870+242467031+242514445+242542263+242480531+242407392
2238+242449365+242622498+242846902+243096849+243418354+243797551+244152532
2228+244471690+244851887+245387479+246076355+246843592+247642759+248490285
2218+249387517+250299304+251248953+252322320+253541512+254840738+256193454
2208+257667415+259313472+261072167+262851548+264633386+266424011+268169807
2198+269793758+271264025+272632079+274040523+275606817+277281347+278915651
2188+280406586+281691858+282738516+283583969+284303119+284981442+285716785
2178+286504835+287174407+287534792+287504954+287137037+286610942+286074804
2168+285478700+284719978+283827567+282841585+281689202+280301771+278765988
2158+277296667+276030280+274908463+273849996+272844274+271829455+270829045
2148+270100197+269831928+270215492+272058752+276374982+283081799+291020488
2138+299290489+307708896+316198170+324568455+332741518+340849228+349239854
2128+358232916+367728712+377294846+386568094+395363352+403559449+410951921
2118+417162882+421897771+425305524+427911509+430373399+433468181+438109553
2108+445119590+454864569+467092179+480959351+494849919+506485572+514144913
2098+517623331+517595859+515001554+510987034+506121440+499986566+492042855
2088+482013541+469653334+455050074+438599515+420678561+402059944+383909711
2078+366997645+351736676+338573426+327555747+318258156+310478772+304242213
2068+299297129+295233395+291708199+288462226+285563993+283256861+281396225
2058+279698516+278278719+277297031+276699052+276643924+277462650+279276017
2048+282194755+286507965+292520448+300639730+311360885+324911046+341386094
2038+361000099+383415055+407159876+430230176+450783387+467362250+479344497
2028+487066096+491318047+493064625+493150500+491941406+489565611+486116739
2018+481418819+475255236+467794318+459350057+450067129+439970971+429005508
2008+417177218+404778768+392246519+379897047+367956937+356625122+345995919
1998+336129913+327287424+319854670+313812003+308471839+303135332+297843546
1988+293052874+288953443+285497603+282653624+280343362+278420540+276774666
1978+275313077+273956049+272683822+271488774+270438877+269800035+269731225
1968+269835222+269418381+268295545+266994972+266099396+265701222+265563421
1958+265524869+265536349+265504764+265369129+265217137+265173526+265278323
1948+265579105+266263796+267453931+268671103+268875348+267632632+265807784
1938+264494675+263953753+263868114+263943400+264033624+264088988+264144261
1928+264371921+265160863+266714968+268449793+269551360+270186673+270960241
1918+271405410+270580898+268955183+268021890+268438148+269576650+270438095
1908+270569291+270233140+269924044+269867024+269998712+270248732+270701797
1898+271496670+272519768+273342114+273839080+274531158+275610001+276159221
1888+275344734+273797125+272698213+272378110+272466641+272611956+272673961
1878+272674107+272722684+272944577+273744927+275943768+279825218+283759867
1868+284857050+282335121+278553338+275921626+274953875+274925456+275053050
1858+275011713+274900148+274944014+275219851+275771054+276805977+278593819
1848+281415547+285317392+289027729+289886554+287158124+283573198+281629999
1838+281401538+281722296+282121234+283486031+286712937+290816426+293278533
1828+293266980+292365654+291373814+289628328+287319922+285764216+285545908
1818+286058121+286633666+287441494+289082256+291442932+293342776+293760944
1808+293092828+292621515+293381219+295719736+299047618+301845931+302832859
1798+302488739+302782607+305350239+309776924+312931528+311806781+307914997
1788+305095397+304930615+306508936+308572852+310700046+312548255+313626426
1778+314459852+316706762+321588549+328229504+333117804+333217616+329840173
1768+325997513+323364018+323037074+325469125+329058527+331248854+331963074
1758+332824700+333935365+334989447+337507264+343007280+349991008+354548434
1748+354995567+353423723+352379830+352982376+355115101+357613960+359078423
1738+360204335+363693306+370120300+374696175+372644194+367015621+362151555
1728+359022204+357647764+357926822+359226958+361658755+366916282+376163331
1718+386666269+391667007+388437226+381774693+376467388+374368649+375990125
1708+380987734+387392132+392564294+396774508+402918114+411214969+416994915
1698+417474179+414674284+409579410+403680620+400494396+401441970+405234670
1688+411086083+420225861+431868428+438468446+434890361+427805221+423944512
1678+424910535+429514137+434864890+438792807+442424819+446941527+449698048
1668+447950233+444918365+445367500+449601038+453860412+455234961+455633153
1658+458954922+467758767+482690864+499141423+505087444+501131399+499924889
1648+504329013+508253910+505998667+500983010+498965525+501688642+509039850
1638+520446879+532797370+538966921+536442227+532489129+533178714+538927150
1628+547063934+555302059+563656988+572190654+579432408+585502002+593430321
1618+605038428+616841065+622668644+622845852+622196840+622843305+623965359
1608+624289938+623913616+624094973+625815460+629201782+634113916+640490004
1598+647986764+655868870+663364611+669938212+675413193+680006497+684191458
1588+688478813+693060328+697518998+701249548+704353354+707992206+713838124
1578+722724898+732527771+738787636+741837006+746909465+756310180+767206215
1568+775863163+783363998+792980274+805778590+822264736+844857265+873007593
1558+892878532+895490594+892289850+890610554+889878140+888253352+885269844
1548+882489525+882458159+886104070+892159873+898534215+900606354+891603067
1538+875600587+863580242+858084156+855108144+850685062+845802183+843775456
1528+845116055+847668368+849891881+852315744+855093007+856944418+857481356
1518+856986482+854427110+849681050+845512827+845028069+849517086+858671092
1508+869234760+872024758+861950869+849394532+842908989+842707328+845929177
1498+848434622+846376819+840544583+836410857+837859673+843742197+848397288
1488+846763185+840371741+834230936+831061632+830486050+831044675+832464382
1478+835872972+841942238+849441400+854917399+854265184+847921409+841613074
1468+839361179+840589704+841897409+840868216+839475364+841484917+847998696
1458+855134270+855186014+847320355+839037473+834305386+832652215+832435417
1448+832009534+830501842+828245435+825928988+824033766+823417866+824979994
1438+827855722+828820726+826030146+822128937+819850042+818864661+817654694
1428+816085797+815215183+815303751+815852333+817234633+820297758+823687063
1418+823625931+819000678+812932868+808131498+805119097+803280859+802048258
1408+801481337+801697917+802117759+802235656+802690867+804222211+806319094
1398+807904365+808422454+807439402+804818971+802030428+801097009+802082536
1388+802716775+800892655+797963510+797602616+801324942+807220056+812719708
1378+817388408+822305272+827696998+832428358+835582379+837380082+838385331
1368+839074662+840195988+842349272+844933898+846309866+845614859+843762720
1358+842066903+840973304+840444808+840644577+841564242+842412005+842302842
1348+841374007+840468533+840233176+841286676+844375490+849329252+854361612
1338+857446133+858355246+858573718+859697300+862396256+866197908+869910263
1328+872687307+874874869+877573970+881442575+886332222+891882889+897626412
1318+902648874+906203452+908827813+911981980+916287894+920711340+923755543
1308+925062156+925560305+926410324+928210210+930771329+933344383+935366817
1298+936793073+937358685+936276220+933327062+929579774+926497946+924615314
1288+923320200+921859521+920271921+919139387+918783515+918969092+918927465
1278+917773098+915548057+913373886+912117561+911704123+911907094+912789498
1268+914279142+916201218+918558856+921145592+923349528+924812172+925940558
1258+927507052+929622639+931230325+931195538+929856467+928536754+927560470
1248+925765823+922180970+917554553+913692498+911320960+909252750+906194574
1238+902642033+899928158+898158256+896374817+894208579+892252735+891103099
1228+890701596+890484725+889917002+888995226+888174900+887708627+887418907
1218+887284199+887743923+889062398+890809376+892349745+893466413+894285066
1208+895190322+896772463+899088401+901263227+902694504+904124618+906605829
1198+909998627+913257081+915757214+917838960+920340840+923707511+927296149
1188+929854284+931084118+932157849+934222493+937093054+939834074+942043322
1178+944115244+946514000+948968284+950631716+951275780+951715126+952794243
1168+954756273+957522255+960514714+962447125+962546682+961860190+962345166
1158+964885398+968693745+972294027+974769416+976201348+977232360+978327269
1148+979150725+978857658+977695795+977498209+979788312+984208192+989209040
1138+993534894+996342867+997025721+996025566+995092001+995894133+998594399
1128+1001981521+1004779378+1006824373+1008927660+1011293449+1012663886
1120+1011983653+1009953578+1008185567+1007691494+1008574844+1010767936
1111+1014068674+1017419917+1019514399+1020203220+1020270100+1020673495
1103+1022422730+1025413515+1027868891+1028390110+1027906371+1027995230
1094+1028593955+1028772691+1028552764+1029095087+1031745938+1036872324
1085+1042865030+1047135648+1048693773+1048402598+1046825842+1044234012
1077+1041999146+1041362069+1042081747+1044035262+1047486936+1050959714
1068+1052062992+1050586084+1048575440+1047452804+1046995846+1046669375
1060+1046912154+1048991134+1053316625+1058492207+1062660574+1064869386
1051+1064725655+1062486131+1059979158+1059501531+1061512030+1064912178
1043+1068859527+1072489064+1073741823+1070850594+1065456322+1062142339
1034+1063877892+1068631448+1071045560+1068442523+1063788087+1061165691
1025+1060860324+1060431239+1058941887+1057664239+1057293156+1057199785
1017+1056616488+1054831230+1051818175+1049248251+1048906060+1050317178
1008+1051583983+1052087663+1052738059+1054162859+1055988799+1057139163
1000+1056376838+1053590843+1050804484+1050259977+1051838479+1053171292
991+1051588641+1046560502+1040660003+1037636613+1039015420+1042292941
983+1042925725+1038899634+1032872286+1028682886+1027035538+1026010421
974+1024396622+1022547758+1020625755+1018031596+1014140430+1008772502
965+1002941212+998766368+997264643+996897199+995356758+992100851+988066172
955+984028582+980458211+977979984+976802911+976102446+974491922+971356531
945+967697957+964948931+963293723+962058940+960944163+959750935+958051333
935+956129985+955087111+955575726+957303782+959377232+960524394+959815632
925+957613734+955287171+954157839+954869439+956970325+958992249+959737689
915+959347103+958525976+957354798+955518015+953276017+951416164+950237199
905+949194034+947863696+946889376+947245176+948683149+949684760+949089892
895+947323410+945618278+944392664+943064146+941327793+939926717+939694490
885+940097740+939577976+937832890+936795256+938187016+940842307+941814953
875+939879777+936500515+933578356+931750888+930778970+930629344+931713409
865+933896750+935782729+935895822+934352907+932675721+932186960+932892883
855+933766554+933942817+933608122+933349914+933046148+932261045+931408843
845+931468883+932580385+934048778+935756239+938188909+940713858+941541171
835+940203555+938265032+937160371+937173689+938453157+941102334+944046252
825+945850359+946377837+946012503+944493094+941794066+939080119+937893221
815+939019205+942025783+945413124+947973587+950151834+952731801+954545515
805+953615006+950282902+946909463+945170344+945434665+947364601+949843920
795+951615569+952630206+953721113+954896366+955036677+953425134+950933953
785+949059909+948051239+947385852+947614876+949208444+950324967+948878333
776+946169044+945220632+946586266+948443063+949772600+951064876+951977773
766+950959206+948233178+946609845+948119211+951771382+955022777+956053061
756+954830940+953149169+952926112+953903197+954408478+954071454+953915642
746+954611231+956228596+958490534+960310870+960256579+958075640+955429301
736+954488895+955691221+957079124+956286307+953586987+951343898+950682877
726+950704637+950203140+949045281+947717053+946466405+945443107+945186937
716+945742506+945982811+945889440+947235934+950378020+952911702+952529703
706+949610820+946374853+944403799+943833456+943785861+942583099+939185425
696+934733669+931022405+928152717+925394377+922636255+919321545+914646295
686+910152984+908599807+909618156+910094618+909023070+908329519+909168257
676+910946165+913026019+913955727+909849364+897432756+882710617+880128248
666+890311664+900416701+903239011+900307465+895700624+891177475+886648796
656+881906592+877406659+874836080+875895692+879458785+881623714+880174970
646+876925394+874936000+875119395+875468936+874069825+871641231+869616832
636+867287722+863042430+857466510+852362539+848739697+846836543+845453734
626+842981110+840698867+842320672+848623620+853872997+851681360+843813445
616+836944811+834244400+834683237+837302649+843380794+853491580+862702423
606+863693554+858197250+854177417+853029891+848612558
##END=
