##TITLE=<SNM>
##JCAMP-DX=4.24
##DATA TYPE=INFRARED SPECTRUM
##DATE=2/5/2025
##SAMPLING PROCEDURE=Instrument type and / or accessory
##ORIGIN=Admin
##XUNITS=1/CM
##YUNITS=ABSORBANCE
##RESOLUTION=4
##FIRSTX=4497.3318
##LASTX=599.83466
##DELTAX=-1.4281778
##MAXY=1.7150581
##MINY=0.29105008
##XFACTOR=1
##YFACTOR=1.5972723e-09
##NPOINTS=2730
##FIRSTY=0.30237824
##XYDATA=(X++(Y..Y))
4497+189309133+189146004+189963627+190754700+190815918+190366273+190079607
4487+190380173+191144098+191958214+192510368+192639838+192310202+191803724
4477+191689274+192296582+193290059+194008029+194261315+194411160+194585055
4467+194404592+193725077+193155869+193339784+193925840+193821726+192573582
4457+191029051+190343174+190658274+191080474+190829651+190113155+189779023
4447+190222007+190931730+191203040+190904713+190356832+189808447+189422538
4437+189518068+190223182+190965333+190928763+190127522+189512956+189884087
4427+191040825+192001949+191850239+190526566+188903017+187880171+187547364
4417+187517772+187674315+188042909+188313267+188145119+187709840+187391959
4407+187175300+186816893+186468058+186606745+187408565+188518993+189294747
4397+189235619+188498077+187774883+187438101+187199126+186861916+186796444
4387+187261090+187837799+187864909+187144066+186092691+185227060+184535529
4377+183714976+182982658+182844120+183032774+182781802+182216942+182316707
4367+183429523+184817642+185706055+186044441+186129821+185993150+185430920
4357+184540063+183876967+183870306+184350159+184796726+184832960+184514352
4347+184291404+184566576+185200733+185661966+185691837+185502344+185280031
4337+184901604+184314261+183801662+183542723+183276097+182822160+182519933
4327+182677241+183031636+183179484+183127260+183148194+183393438+183697624
4317+183726955+183539402+183708632+184439663+185093262+185176011+185198028
4307+185883290+187032713+187738481+187502659+186843033+186665649+187135073
4297+187525049+187252918+186580474+186127620+186140587+186364915+186420666
4287+186265262+186268415+186622959+186760956+185858922+184143687+183103190
4277+183834837+185718668+187409573+188545656+189495044+190075521+189744897
4267+188649265+187549696+186959797+186883727+187117515+187418025+187526336
4257+187344325+187190879+187640543+188845177+190121383+190543209+189935192
4247+188960429+188283787+188069534+188198836+188451562+188492069+188132114
4237+187634890+187473403+187792571+188215423+188166371+187488740+186738659
4227+186670967+187495494+188733675+189607497+189647762+189194571+189022337
4217+189301744+189550701+189558463+189523572+189446103+189240135+189149959
4207+189378094+189706629+189850465+189767249+189528162+189264502+189174029
4197+189307025+189375053+188984442+188261770+188022217+188774574+189778183
4187+189916012+189258028+188768137+188753583+188644563+188173255+187854330
4177+188213762+189167088+190246748+191058270+191496273+191765866+192129254
4167+192494378+192485366+192023593+191464293+191104860+191030264+191418822
4157+192410677+193586782+194099828+193560119+192491635+191710712+191533963
4147+191797324+192281263+192792369+193148574+193353330+193500357+193451808
4137+192985482+192212097+191495303+191119115+191294372+192204018+193712202
4127+195137880+195630514+194985535+193962354+193479273+193611448+193789093
4117+193747709+193672666+193590569+193250784+192560316+191763944+191206137
4107+191040620+191194140+191647162+192554252+193851095+195047686+195710819
4097+195852286+195708021+195534051+195586723+195821873+195774425+195175103
4087+194416179+194054320+194211180+194693739+195244195+195490260+195187922
4077+194709319+194711651+195174712+195411727+195116199+194706016+194583301
4067+194732996+195057370+195522576+195950839+196047023+195692273+195159860
4057+194979061+195423930+196215171+196873919+197153532+197005721+196556636
4047+196241983+196493160+197199991+197782017+197829801+197472514+197132168
4037+197098061+197425868+198125627+199203254+200474702+201517718+201943704
4027+201758708+201411813+201329232+201411627+201230978+200723473+200405144
4017+200797583+201780799+202628556+202680333+201948462+201029655+200485188
4007+200471269+200961216+202036977+203658417+205235861+205911085+205508664
3997+204822730+204657269+204929437+205068944+204947516+204864580+204898874
3987+204932385+205121710+205686178+206355972+206594836+206314439+205990569
3977+206096175+206649486+207359414+208023834+208549960+208689524+208239524
3967+207635463+207767171+208882767+210131677+210557122+210178248+209701716
3957+209551722+209666396+210024560+210980460+212902913+215327218+216792732
3947+216475504+215601719+215760127+216555231+216421115+215137333+213809947
3937+213157561+213517125+215446202+218809503+221789526+222397132+221060846
3927+220091027+220740819+221901307+222024974+221596562+222263016+224087141
3917+224892189+222747459+218559986+214985642+213605695+214342641+217113224
3907+222763244+231515535+240993614+247233739+248418576+245460906+239477855
3897+232102711+226539788+225510785+228429944+230921102+229498932+227068563
3887+228502917+233634125+238094027+240085759+241011732+239710523+234719047
3878+229873982+229865399+234575789+240899931+246713547+250220721+249319602
3868+246077916+245160228+246928564+247104064+243254585+238278931+236200401
3858+239192607+248207607+261659970+270127797+264048582+250512984+239473283
3848+234112970+234385773+239048901+246128871+253758682+260761015+265585854
3838+265969767+262006584+256859311+252637152+249132105+246164621+244708847
3828+245112276+246561444+249702469+256752829+266176631+270779997+268231017
3818+264265726+260995736+255471921+248080581+243288692+244136729+250211485
3808+257368794+260932279+262393183+266520447+272372629+273903800+270437319
3798+266558808+263214781+258877277+254376457+251849177+251850296+253848223
3788+257579166+262418857+266820434+270315686+274550383+280219808+284918946
3778+286474765+286551470+288410802+294016882+303522799+314638047+323546433
3768+329121223+333558120+338643802+345409586+355273760+368263006+381368008
3758+391665054+400857904+413298523+431582797+453741944+472223025+482500294
3748+490497970+501844767+513782845+519143885+518871586+520571466+528471970
3738+542901298+560656275+574413234+577846055+572753059+566280472+563598309
3728+565803529+571188191+576778616+580165688+580348912+577690072+573869010
3718+571092549+571398059+576665435+587480397+600195031+607973063+609090096
3708+608206776+609512481+614145514+620137540+623116741+620938539+617004780
3698+615570147+617584604+622316339+630032276+641140210+652475626+656730828
3688+651378147+643256505+638171755+637083083+639400738+644429960+651677500
3678+660312095+667052876+668718313+669439940+674025095+677797795+672535793
3668+661212916+653353161+651977898+654147779+656325720+657786363+659713165
3658+662439211+665455729+670316878+680528917+697354339+715931099+723745552
3648+714139384+698150001+687387917+683979426+684863529+686905340+688958047
3638+690625125+690978513+689829015+689621759+694304459+704669272+713954220
3628+713854883+708230015+705874894+709214200+715598908+720692240+721443272
3618+719600582+720316686+725692579+732975868+738285561+739654182+736175536
3608+728198159+719423030+714977662+716799007+721730758+724505018+724377992
3598+725478233+729319968+732096019+730819495+727641770+726423311+728956804
3588+733435757+735476597+733468670+729971515+727843876+728142184+729797023
3578+730592163+729593125+727775736+726163289+725777810+728536844+735075071
3568+741963626+744439876+742174838+737925606+733733617+731451488+731963695
3558+733172750+732736445+731942350+733452325+737144422+740903091+743966479
3548+746547961+747710371+746932694+746063742+746746485+747885236+747711341
3538+746507883+745178370+742996622+739514469+736990305+737776041+740339238
3528+740657100+737835748+735182692+735159258+736681249+737427356+736123890
3518+732946089+729586931+728621030+731686209+737826792+743660782+745923954
3508+744631235+742273279+739964282+737038816+734152906+733541661+735906260
3498+739317736+740941005+739001217+734103797+729228692+727486906+729616038
3488+733850940+737826941+740017570+739614999+736562135+732623003+730944207
3478+733027962+737067624+740280353+741859513+742422247+742179465+741026609
3468+739201831+737408473+736631842+736843427+736560418+735016559+733848403
3458+735133658+738595736+741715546+741866529+738324072+733236636+730731802
3448+733679135+740593886+746048815+745766852+741753161+739676795+741813614
3438+745376595+747040912+746493180+744775874+742113863+738855086+736817081
3428+737723873+740512835+742301565+742185660+741928922+742221110+741283645
3418+738283173+734965809+733121029+733016618+734249481+736233451+737745442
3408+737433998+735505256+734470469+736922612+741958626+745120604+743616151
3398+739967864+738212719+738721119+738430349+735450700+731243859+728091434
3388+727041870+727918808+729398781+729653354+728399071+727490787+728659317
3378+731647549+734699070+735995148+734941553+732799585+731440666+731246546
3368+730630301+728120242+724764144+723166922+724184170+725988947+726427938
3358+725298516+724379112+725804454+730057716+735149406+738131817+737428998
3348+733633833+728984866+726085895+725907373+727339506+729399602+732444331
3338+736240840+738617454+737877393+735842001+736073885+739198174+741766819
3328+740086606+734753552+729643577+727529895+728518036+730986076+732660767
3318+732065718+730115109+729210930+730205266+731651803+732769209+734651156
3308+737301972+738837025+738585063+737928890+737428998+735774159+732209536
3298+728083224+725402853+725143503+727028436+729997413+732659797+733900646
3288+733761978+733239770+732715996+731790919+730910399+731184451+732450004
3278+733500762+734015805+734573836+734982676+734348817+732843991+731790471
3268+732084078+733303806+733938858+732634347+729727838+727150461+726387935
3258+727143072+728429074+729747541+730749863+731027423+730541338+729590513
3248+728595655+728205473+728963596+730421403+731279384+730876814+730010846
3238+729961663+730959283+732516054+734792585+737664166+739171754+737293613
3228+732959075+729242052+728034340+728577743+728770669+727812680+726928726
3218+727112995+727426752+726368605+723947509+721550520+720258472+720025543
3208+720406992+721264078+722183856+722282371+721511039+720713286+720100773
3198+719328022+719261897+721608211+725900506+728500796+726289419+720920244
3188+717182770+717455255+719902025+722028619+723399105+723952286+722842044
3178+719993301+716583467+713803909+712370954+712753747+714954302+718065978
3168+720370944+720550586+718905674+716522790+713856898+711297880+709856716
3158+709451310+707850132+703838830+700068966+699857008+702657240+705212228
3148+706288361+707542122+709754320+711052338+709657969+706517112+703788453
3138+701888445+699557282+696423963+694057275+694021376+695913772+697827736
3128+698298223+697691232+697604583+698821400+700406606+700981504+700229427
3118+698910811+697870949+697313141+696948633+696772126+697115886+697581447
3108+696955052+694800247+692262649+690905969+691138451+692011359+692429603
3098+692139056+691359589+690137324+688581673+687331420+687038187+687392320
3088+687222082+685771515+683741944+682687827+683298325+684692246+685559333
3078+685528659+685017646+684309752+683474160+682874260+682986657+683756796
3068+684569848+684770984+683990770+682242790+679971781+677756001+676058024
3058+675286841+675419688+675630079+675088989+673942028+672690059+671169710
3048+669248357+667858242+668006687+669222459+670076559+669826763+668769138
3038+667614415+667209083+668159162+670057901+671554368+671623031+670292622
3028+667969594+664970689+661961112+659841832+658812195+658200428+657501414
3018+656980924+656904499+656830762+656092716+654784473+653976048+654559231
3008+655777093+655535729+652825505+649246403+647388936+648233707+650412246
2998+651626302+650784068+648722330+646910911+645935756+645265253+644223674
2988+642971406+642176564+641868554+641317986+640161472+638821138+637692164
2978+636794030+636255254+636247119+636376980+635861042+634513244+633178805
2968+632740933+632833926+632201262+630532467+628961814+628407813+628554393
2958+628664999+628467818+628091892+627626555+626932094+626074113+625821741
2948+626717599+627573491+626408245+623149319+619814117+617981801+617521913
2938+617646289+618042217+618762351+619686084+620370133+620172393+618644207
2928+616080077+613547218+611967871+611191949+610399085+609272611+608191663
2918+607371894+606439541+604943185+603040006+601436141+600662831+600733583
2908+601424424+602319909+602632434+601808113+600300152+599040906+598306629
2898+597571232+596235189+594312604+592563542+591814898+591998756+592135335
2888+591480355+590362651+589638374+589546800+589497990+588996157+588168365
2878+587118800+585576471+583626758+581944305+580932766+580400520+580198377
2868+580370966+580556317+579961529+578239334+576076058+574604145+574229711
2858+574367260+574354013+574168139+574079736+574003200+573525847+572418106
2848+570831072+569038573+567261523+565699379+564493719+563691526+563277984
2838+563123979+562989602+562666889+561940262+560570036+558668909+556903166
2828+555946781+555832294+555929914+555472749+554225594+552576017+550787660
2818+548675433+546391139+544705328+543955639+543502915+542660980+541489988
2808+540447999+539813730+539510719+539168303+538419510+537256093+536023192
2798+535181443+535068412+535523487+535744176+535012213+533492759+531897478
2788+530652748+529704722+528699004+527243212+525505382+524318380+524108587
2778+524231134+523894838+523057418+522025765+520942541+519845921+518705715
2768+517520467+516528855+515910446+515417271+514756246+513929237+512869150
2758+511400409+509821323+508834823+508679101+508764556+508332020+507219018
2748+505818678+504493830+503328248+502318538+501424695+500529509+499628091
2738+498895419+498412506+498034153+497618597+497146319+496557427+495734448
2728+494660665+493404703+492033732+490740714+489856089+489433143+489055538
2718+488355554+487414917+486388488+485173351+483750546+482439057+481569545
2708+481132009+480777017+480100580+479090422+478204229+477743445+477362219
2698+476532263+475272531+474047691+473132653+472435506+471850868+471445461
2688+471221226+470959040+470408845+469498509+468345093+467164398+466156068
2678+465435038+465030192+464830660+464551980+463970216+463168433+462389488
2668+461793655+461465046+461380412+461256484+460682556+459498204+457937702
2658+456468700+455478916+454954134+454548242+454070255+453666490+453441770
2648+453222573+452798769+452158306+451427126+450710760+450001485+449198023
2638+448252609+447346527+446860629+446998103+447422056+447514638+447028814
2628+446143181+444962785+443522778+442215841+441567094+441524739+441499924
2618+441165605+440758333+440533426+440405393+440224221+439936697+439380905
2608+438437991+437457761+436932606+436721917+436221092+435263326+434263355
2598+433542101+433006161+432461937+431920736+431507493+431214446+430922481
2588+430651302+430540248+430537562+430415462+430095547+429660138+429116548
2578+428437500+427752630+427283748+427136235+427213369+427249043+426944093
2568+426194702+425199060+424274469+423591315+423114335+422721840+422300313
2558+421802473+421290416+420843252+420410268+419904630+419406641+419051275
2548+418763378+418355136+417849422+417491669+417447896+417586602+417552607
2538+417087755+416312504+415596848+415136810+414810477+414465635+414145161
2528+413963131+413904245+413811775+413523281+413012418+412429011+411994274
2518+411836649+411867211+411791160+411364557+410700398+410157778+409913579
2508+409881860+409970636+410061800+409871150+409247479+408471930+407902704
2498+407529912+407171076+406846572+406678386+406637636+406636442+406707045
2488+406895344+407084614+407074314+406775110+406261486+405703492+405271516
2478+405034146+404952572+404987910+405096278+405096166+404757817+404107912
2468+403452783+403025621+402782915+402600474+402488077+402495988+402518490
2458+402341050+401882318+401269804+400672665+400193596+399922006+399897900
2448+399983056+399959397+399809758+399725012+399808228+399952083+400008618
2438+399909281+399651237+399333077+399138620+399125410+399106603+398884308
2428+398510919+398161674+397823362+397330896+396712263+396265622+396214908
2418+396457167+396702038+396741183+396580610+396402275+396377273+396512246
2408+396730175+396994040+397220104+397221820+396928550+396559862+396438360
2398+396656923+396947357+396886382+396319469+395573251+395124594+395059999
2388+394977119+394434612+393374561+392005978+390351140+388108491+385054955
2378+381435626+377780771+374392543+371211907+368199158+365545468+363349988
2368+361387922+359463547+357706312+356287650+355264916+354965451+356127338
2358+359311892+364229762+369973334+376081750+382681289+389191603+393980395
2348+395686059+394436925+391975864+390213404+389367402+388414785+386770545
2338+384554578+382021794+379366462+376757142+374349517+372359054+371055551
2328+370513528+370419714+370291644+369968222+369848884+370478525+371858677
2318+373377049+374482066+375209253+375965509+376996453+378179610+379252498
2308+380133653+380960325+381827711+382619231+383180211+383554085+383924339
2298+384391915+384924683+385491260+386107095+386698151+387053815+387060084
2288+386922311+387005154+387447243+388025947+388423891+388546252+388505166
2278+388396799+388288805+388323435+388543453+388704436+388535169+388079422
2268+387605427+387359213+387481984+387931201+388460909+388865196+389161638
2258+389408375+389522265+389434198+389267132+389189029+389166975+389037412
2248+388802131+388679210+388833850+389219740+389698810+390165266+390540260
2238+390780616+390957720+391265432+391814358+392389480+392594236+392334550
2228+391960377+391829135+391964296+392230549+392586287+393033190+393484048
2218+393823740+394039467+394204667+394375876+394575295+394832667+395172546
2208+395586237+396041125+396473848+396794770+396959970+397011206+397022027
2198+397039044+397062329+397072367+397120133+397346345+397816347+398389305
2188+398840760+399083280+399235420+399487157+399877077+400231584+400385851
2178+400386448+400405516+400572657+400930672+401397240+401760069+401881235
2168+401899297+402099276+402620326+403352924+404007232+404249081+403988611
2158+403611640+403676757+404264828+404848570+404923763+404575003+404296547
2148+404418423+404849056+405310400+405674385+405995867+406337724+406730667
2138+407206079+407682350+407942670+407915466+407815420+407855051+408018721
2128+408226425+408487416+408797591+409084891+409319537+409556572+409853761
2118+410194274+410461386+410509039+410341973+410179497+410245360+410529936
2108+410807608+410856232+410677262+410541392+410755104+411346571+412072414
2098+412703026+413126531+413235048+413002156+412665374+412560477+412749523
2088+412977601+413003574+412863450+412785645+412895542+413097163+413268521
2078+413412376+413528318+413537312+413437005+413335467+413301322+413381627
2068+413673816+414114561+414362753+414190873+413815917+413573583+413494211
2058+413415660+413288336+413173998+413095895+413017306+412917746+412865838
2048+412985774+413278783+413549850+413614818+413477083+413222286+412900655
2038+412575814+412324226+412156974+412054391+412046293+412141151+412226084
2028+412168430+411987146+411790899+411593606+411412920+411501248+412092006
2018+412861174+413098544+412573016+411786122+411275184+411134053+411220478
2008+411387694+411453930+411252235+410810892+410378170+410188938+410191998
1998+410164645+410235994+410953143+412440878+413835135+414097731+413151608
1988+411700667+410400261+409615457+409433875+409586761+409673559+409558699
1978+409384617+409300543+409306327+409275280+409179563+409337561+410119007
1968+411227307+411705108+411055353+409927050+409247442+409177996+409307559
1958+409411075+409527129+409588440+409469177+409254943+409139224+409176354
1948+409458056+410432353+412441027+414652217+415233870+413468276+410800257
1938+408952119+408274451+408210752+408238366+408145448+408009690+408030476
1928+408397334+409475782+411503188+413748262+415084417+415676332+416357993
1918+416508043+414823351+411969981+410018924+409897943+410899071+411806534
1908+411878928+411216150+410464483+410058293+409880218+409725989+409815847
1898+410561282+411825230+412851061+413388941+414206472+415576174+416202420
1888+414976237+412809789+411250145+410662074+410617369+410827386+411155734
1878+411418330+411500352+411601667+412590480+415808358+421557565+427303973
1868+428771595+424923291+419374287+415646628+414317190+414196695+414238713
1858+414130756+413980781+413971415+414150907+414588033+415648830+417863117
1848+421686083+427032533+431911145+432544295+428127325+422752514+419934259
1838+419608299+419954149+420286825+422020327+426578316+432544593+436098544
1828+435875951+434255444+432497052+429602148+425824261+423159563+422537310
1818+423076646+423784466+424891348+427193666+430356950+432525002+432312858
1808+430623315+429528262+430414977+433528593+437867422+441283600+442118221
1798+441232812+441395773+444750752+450667212+454766395+452666034+446453505
1788+441810024+441214079+443246001+445672284+447713647+449176156+449621864
1778+449751539+451868506+457873107+466728653+473348492+473076678+467711906
1768+461583153+456992847+455508396+457952069+462262313+464791739+465096951
1758+465184570+465293609+465374548+467748364+474452874+483347752+488880523
1748+488450002+484875378+481799900+480921842+482307666+484639650+486035213
1738+487180681+491707996+500751169+507852690+505717998+498117033+491195229
1728+486455285+484172335+484581175+487027011+491479096+499926735+513870128
1718+529550045+537255645+532991337+523887636+516874705+514383006+516867764
1708+523907302+533228819+541276612+547752409+556392116+568485729+578616492
1698+582150777+580667334+575084260+567386906+562984117+564758779+571354996
1688+581126961+595155025+612612365+623232982+619372588+610520177+606348003
1678+609029232+616894323+625999666+633221794+639905556+647537232+652291580
1668+650541436+647286390+649078777+655720073+661523986+662737892+662578029
1658+666409540+677449781+696531062+717608701+724550917+718496983+716399646
1648+721136754+723407315+715904754+704968327+698615040+698507195+704147065
1638+714529640+724685555+724657269+713082132+701180476+695990569+696749512
1628+699616168+702172872+704622104+706022518+703980335+700237488+699807228
1618+703840174+706806688+703215346+696647638+693101972+693639554+695695619
1608+696744512+696776679+697237389+698600860+699911341+700294433+700332869
1598+701486397+704241401+707409350+709569902+710695219+711691943+712985557
1588+714380822+715894977+717908651+720469162+723271856+726871408+733052218
1578+742644056+752180143+755723496+754890069+756829409+763339201+769341190
1568+770038711+767952195+767742103+771633171+781962981+801861493+827022306
1558+836353451+824179235+809877081+801983742+799607052+800511157+803172721
1548+807952892+816891766+831087642+849033231+867427440+879355889+874774615
1538+859173996+848996885+849231307+854682057+857628793+857151590+858683433
1528+864731769+872704220+879804658+886729037+893658341+897149376+895935619
1518+893217111+890490393+887440364+885732984+888166394+896178102+909421138
1508+923763967+927300453+913840384+897489479+889019450+888490153+892714308
1498+897301255+897651881+893700061+891167837+894810676+903599313+910510557
1488+908865495+900773035+893220917+890169844+891077083+893313985+895790160
1478+899984835+907081094+915405215+920423616+917605920+908482478+900171119
1468+897041009+898145205+899574577+898832949+898361940+902341522+911982992
1458+922880535+925361188+917197080+907156622+900318967+896484620+894607151
1448+893962172+893877912+893889032+893813056+893865523+895362811+900076858
1438+907383134+912605954+912027473+908826238+907306038+907288723+906442907
1428+904559393+903774253+905215342+908072818+911840070+916910564+921494525
1418+921156512+915428874+908927217+904620592+902242261+900762810+900157461
1408+901130601+903432583+905078615+904725153+904192273+906019513+910031860
1398+914225939+917456504+919052010+917875867+914704710+912557741+912783431
1388+912904561+909492860+903520277+899598161+900134176+903790075+908435609
1378+913472145+919044248+924249753+927212983+927051477+924891672+922502743
1368+921123076+921575577+924117578+927687649+929899698+928946037+925571952
1358+922031286+919656761+918071033+916315291+914343560+913056513+912990911
1348+913424380+913103308+911870818+911081275+912075238+914508425+916267973
1338+915230275+911539373+907605167+905579850+905466632+905756208+905349980
1328+904374228+903466914+903040983+903186294+903722607+904258174+904352137
1318+903755744+902605201+901356889+900477040+900172313+900317997+900527790
1308+900295607+899329482+898003104+897259311+897657030+898661442+899148646
1298+898361641+896285574+893587216+891263292+889763989+888435596+886321913
1288+883384954+880376795+877678810+874979184+872090438+869446040+867496699
1278+865993441+864368381+862757352+862080356+862900125+864661390+866300630
1268+867140177+866971581+866050386+865249946+865374061+866309885+867561406
1258+869172510+871210962+872989467+873785503+873799982+873721169+873903274
1248+874463694+875672823+877737547+880420903+883261810+886084730+888997881
1238+891848117+894043149+895231531+895940545+897167288+899426953+902508701
1228+905980256+909380463+912002620+913370868+914065701+915161912+916886457
1218+918693472+920446528+922615737+925406491+928518241+931684174+934779878
1208+937389124+939072173+940227418+941888003+944476053+947218967+948893359
1198+949208460+949480945+951427151+955200672+959390571+962869739+965319196
1188+966306591+965793563+965163586+965846627+967383247+968414228+969056221
1178+970604335+973180145+975277258+975832528+975743193+976578038+978522079
1168+980567845+982260075+984093958+986175697+987846507+989000633+990560911
1158+992915583+994841265+995160247+994710807+995118676+996160628+996025318
1148+994256963+992965811+994509894+998911527+1003985007+1007539778+1009154315
1138+1010119693+1011702436+1013447730+1013870153+1012358759+1009889898
1130+1008409850+1009642415+1013809775+1019390460+1024640223+1028936698
1121+1031782456+1031906123+1029367032+1026341185+1024306390+1022568858
1113+1020391812+1018939528+1019793628+1022661477+1025787184+1028064238
1104+1029527419+1029773484+1027934526+1025195792+1025077946+1029571004
1095+1036289769+1040788425+1041682081+1041731413+1043457377+1045731073
1087+1046028261+1045146845+1046079012+1048784758+1050494900+1050686408
1078+1051381466+1053319014+1055611442+1057559887+1058242406+1056548983
1070+1053419022+1051615291+1052719188+1055943933+1059307345+1061624179
1061+1063353053+1065087674+1066088055+1065668916+1065073195+1065748475
1053+1067148218+1067568178+1066181944+1063484109+1060423333+1058105977
1044+1057915439+1060322429+1063527844+1065009160+1064375526+1062843683
1035+1060862548+1058631543+1057425025+1058097544+1059752681+1061353186
1027+1063434478+1067000370+1071310652+1073741823+1072369918+1068485194
1018+1065414119+1064823324+1065243806+1064266263+1061135034+1057063951
1010+1054098108+1054076987+1057399874+1061717321+1063086912+1059825970
1001+1054464930+1050794924+1050006202+1050416684+1050283539+1049800141
993+1050215324+1052186234+1055025946+1056824901+1056146039+1053673073
984+1050897843+1048002081+1044510076+1040981277+1038267022+1036140727
975+1033958308+1031511314+1028636823+1025244975+1021759836+1018551510
967+1015448194+1012298456+1009252383+1006454838+1003775810+1000530766+995776119
957+989577248+983611530+979251020+976022544+973135439+971052954+970311698
947+969939727+968637157+966806782+965551902+964574134+962880487+960706799
937+959027481+957842308+956595713+955295232+954117747+953100722+952514480
927+952475894+952606801+952984817+954370230+956483092+957283680+955078796
917+950660595+946532940+944576211+944888923+946252991+947153290+946673698
907+945204696+944210882+944497697+944920195+943792340+941114730+938342859
897+936669437+936413073+937560332+940073450+943322227+945535320+944900491
887+941760829+938639153+937487714+937736690+937557347+936253731+934579115
877+933282515+932371320+931688503+931334966+931348475+931497890+931462738
867+930866793+929410852+927427329+925898024+925475601+925942430+927054164
857+929183893+932222651+934590459+934607102+932419160+929913729+929109334
847+930666329+933183477+934157438+932693287+930389589+928823490+927731683
837+926397767+925318946+925389623+926575169+928070965+929112021+929633706
827+930405188+932107045+934212219+935281711+934523364+932773742+931943076
817+933498130+937067754+940836872+943599936+945381949+946186269+946044914
807+945922815+946638396+947222400+945979611+942905102+939687597+937874015
797+937625412+937971038+938110900+937976187+937756244+937653922+937823040
787+938229492+938946641+940445347+942727103+944544940+944875489+944475083
777+944539342+944819216+944165878+942062346+939048813+936515768+936126706
767+938509142+942343265+945458597+947051863+947923577+948416678+947532799
757+944660322+940893593+938132991+937896852+940558192+944608452+947182098
747+946516968+943701362+941283774+940774404+941849791+943565082+945484346
737+947427939+948723494+948427873+946660264+945178873+945940727+948738719
727+950999205+950722466+948178598+944345819+939880599+936007144+934840704
717+937895434+943913693+948615351+948397796+944211479+940181146+939390707
707+941710153+944422691+944631066+941651193+936983120+932579323+930010827
697+929788868+930595427+930143300+927563609+923892559+920051719+916267525
687+912933369+910604967+909450021+908864301+908305076+908174319+908073191
677+906198259+902023810+897332078+892960821+886782474+877743816+871775859
667+876855085+888072805+895064950+895135180+891040961+886002857+881504201
657+877778222+874923881+872980213+871820490+871229695+870924371+870466572
647+868979285+865665578+861573672+859448272+860376035+862521810+863563090
637+862789519+861024447+859727997+859799122+860627773+860644640+858873598
627+855678184+852244990+848993452+844559951+837986123+831378860+827574441
617+826522040+826631975+827959846+831536112+836353451+839025463+837403463
607+833862872+832694790+834203721+834169315+830849637+828436303
##END=
