##TITLE=<SNM>
##JCAMP-DX=4.24
##DATA TYPE=INFRARED SPECTRUM
##DATE=2/5/2025
##SAMPLING PROCEDURE=Instrument type and / or accessory
##ORIGIN=Admin
##XUNITS=1/CM
##YUNITS=ABSORBANCE
##RESOLUTION=4
##FIRSTX=4497.3318
##LASTX=599.83466
##DELTAX=-1.4281778
##MAXY=1.885313
##MINY=0.40752083
##XFACTOR=1
##YFACTOR=1.7558346e-09
##NPOINTS=2730
##FIRSTY=0.43238208
##XYDATA=(X++(Y..Y))
4497+246254448+246275223+246498286+245941545+244399672+242820153+242095698
4487+242186234+242627744+243351672+244520641+245709519+245886500+244561360
4477+242553825+241249511+241397145+242784950+244606407+245881391+245944905
4467+244989529+244012273+243784203+243952663+243719603+243226036+243306472
4457+244013139+244455565+244128150+243530130+243516619+244583154+246469941
4447+248109919+248346017+247003021+245091352+243819015+243458706+243328470
4437+242882971+242307423+241986458+242195688+243162318+244533931+245198487
4427+244521710+243191716+242247694+242031913+242327282+242785561+243107936
4417+243249272+243344730+243316385+242939509+242314637+241826688+241594341
4407+241373501+241111841+241178172+241732130+242255146+242121413+241306966
4397+240238784+239384840+239166665+239738649+240677816+241338791+241640644
4387+242068253+242744961+243007199+242146567+240278179+238319188+237283188
4377+237598569+238691396+239209998+238281881+236640867+235866579+236500888
4367+237593325+238183215+238375845+238634909+238906736+238977141+238942261
4357+238796783+238308529+237640833+237273361+237201852+237000701+236547107
4347+236035531+235492046+234863185+234413833+234535328+235241673+236182605
4337+237039350+237645840+237821412+237402562+236483016+235376458+234323773
4327+233489212+233132417+233347927+233706675+233707421+233596687+234089253
4317+235173202+235975089+236031390+235864321+235978705+236135266+235943926
4307+235499056+235203805+235341510+235809583+236174373+236188070+236055322
4297+235903275+235469437+234686442+234066254+234173101+234997851+235918008
4287+236190345+235628562+234808225+234522497+235015554+235698984+235727669
4277+234976957+234177684+233931944+234109842+234287569+234121638+233451515
4267+232675953+232629956+233552336+234712513+235340627+235266844+234655499
4257+233916159+233807445+234804712+236294731+237105121+236948186+236585942
4247+236522241+236409979+235897386+235241113+234884554+234962496+235177531
4237+234948730+234090288+233355005+233652292+234733203+235298024+234567085
4227+233271903+232768492+233493931+234757950+235854019+236658333+237109534
4217+236918347+236103357+235237616+234831648+234724360+234374387+233725939
4207+233460511+234159981+235418501+236223901+236185490+235842222+235776111
4197+236033070+236445148+236855138+236921555+236411134+235711409+235362879
4187+235254182+234996476+234746612+234902189+235375371+235836485+236325775
4177+237072278+237873537+238123163+237591203+236834516+236495304+236516826
4167+236485545+236331257+236136947+235736479+235118073+234750720+234966179
4157+235447185+235762770+235990213+236332666+236499565+236103323+235428209
4147+235074078+234991130+234611827+233886218+233428210+233582379+234022157
4137+234386625+234746290+235184473+235377306+235047430+234576591+234613762
4127+235183166+235670911+235647233+235316881+235116070+235075385+234756168
4117+233929890+233144332+233256033+234413155+235813605+236477194+236053472
4107+234944487+233831445+233205605+233229555+233670063+233964923+233766132
4097+233369245+233259682+233443520+233610012+233694046+233856583+234088082
4087+234161474+233919774+233449834+233023855+232973767+233430366+234026859
4077+234194420+233927837+233775892+233968590+234149831+233962326+233368176
4067+232599030+232096705+232095229+232317087+232594940+233275519+234350523
4057+234989975+234656043+233902037+233576506+233889596+234407655+234490349
4047+233858603+232965246+232510481+232581140+232696695+232601033+232492625
4037+232510684+232498871+232375509+232344040+232594838+233082905+233676173
4027+234242284+234546768+234407944+234035481+233875169+234083397+234415684
4017+234585552+234489008+234118600+233514129+232855497+232453858+232532495
4007+233001858+233549094+234026689+234640665+235598655+236640579+237111062
3997+236584499+235397674+234452974+234386744+234993404+235595176+235887439
3987+236138508+236585942+237016724+237040181+236505471+235657553+235076862
3977+235283359+236180857+237001703+236937900+235832344+234319326+233311400
3967+233280305+234119941+235624964+237635707+239658026+240885875+240825704
3957+239679259+238155260+237076521+237072125+238396926+240633465+242531420
3947+243030826+242690664+242914949+243780537+243936844+242683518+240816284
3937+239601776+240032661+242453886+245847767+247830249+246813752+244199336
3927+242817302+243620394+244964289+245240360+245155222+246191137+248180426
3917+249432988+248670428+246282742+243652219+241869495+241454379+242865998
3907+246635634+252655795+259299250+263844753+264684168+262258105+257646881
3897+252244023+248308778+247842267+250457378+252791361+252207089+251000066
3887+252545214+255845402+257531429+257724840+258593058+258860405+256347048
3878+253397800+253475674+256255783+259324082+261653108+262889393+262262467
3868+260991472+261388257+262937530+262758410+260009837+257045975+256235296
3858+258901633+266189785+277232161+284188350+279192528+268227753+259352614
3848+254938111+254662125+257274046+261310842+266028199+271264210+275719025
3838+276772134+273944143+270029402+267219216+265357397+263763586+262772617
3828+262854649+263982186+266896418+272659281+279025612+280492038+276826330
3818+273223694+270923335+267428056+262859928+260034466+260761602+264849573
3808+269956570+273375147+275857222+279545691+282614567+281531721+278243957
3798+276512018+275708824+273895803+271812346+271223118+272452070+275144003
3788+279305230+284530701+289609556+294203077+299649947+306653508+313650279
3778+319232563+324639716+331908467+341865180+354212311+367178188+377756667
3768+384462617+388123556+390018321+391788161+395015908+399021914+401041127
3758+400256790+399767314+403409922+412795211+425487885+434880642+437914927
3748+439902603+445424699+452653597+456684045+458324991+462908124+473547299
3738+490175506+509080140+523550768+529865144+531321454+533254239+538007444
3728+545755115+555822493+566021720+573517778+577237852+577993233+577257541
3718+576623283+577474732+580621583+585510168+589052022+587482806+581069950
3708+573132213+566595282+563468290+564155845+566515236+567677501+567481595
3698+568005051+570642025+575420894+581956772+589327533+594692796+594336560
3688+588799323+582784458+579146739+578227396+579670535+582427883+585434331
3678+588992276+593082164+595363988+595249792+595021059+594354619+590296233
3668+583012240+575994456+571152174+568082484+565990456+565108998+566076816
3658+567840987+568071960+567630892+570858129+579729195+590092893+592888805
3648+584575685+572093718+562376431+557377452+555633207+554650384+553665865
3638+554231279+557399721+561922157+566481018+572004642+578880733+582510645
3628+577775227+568848421+562879180+562315632+566503287+572621180+576208048
3618+575808157+574951548+576135538+578125353+579680244+581265754+582004976
3608+579497271+574503996+571443301+573272005+578421707+582613503+583914541
3598+584368000+585746097+587109732+587545471+588667678+592669442+599080871
3588+603980454+603438191+598166960+592103619+588244636+587576838+589683904
3578+593239473+596383609+597441929+596343755+595385171+597401532+602543019
3568+606748665+605166006+598410493+591741884+588952694+590041498+592607591
3558+594281431+594399701+593753018+593063901+592269482+591458566+591296844
3548+591740730+591415318+589300104+586333984+584359581+584354218+585982501
3538+587843523+588313615+586891184+584536104+582439493+580979245+579948354
3528+579013668+577805847+576240840+574801640+573869126+572989841+571540049
3518+569637884+567903076+567028611+567511570+568995037+569983325+569258904
3508+567705507+567253677+568305140+569273942+568491235+566083537+563709447
3498+562686024+562508212+561400601+558568469+555287359+553401319+553524511
3488+554939542+556609579+557829112+558075123+556928406+554482383+551556014
3478+549394192+549082189+550620242+552549802+553103064+551814993+549705279
3468+548004723+547046376+546270221+545080460+543755591+543344905+544348095
3458+545748767+545859942+544125949+541377325+538473463+535855432+534131250
3448+533956527+535162684+536418810+536118790+533810726+530661159+528152538
3438+526654439+525869560+525980327+527202949+528656136+528807028+527111157
3428+524623617+522923808+522882020+524223658+525728817+526012713+524655968
3418+522573004+521069169+520671688+520842201+520528059+519126132+517177766
3408+515753841+515074807+514440413+513513942+512823569+512867292+513369634
3398+513645315+513422252+512940787+512304254+511295530+509948325+508800759
3388+508198037+507675768+506581974+505161987+504357113+504452232+504722141
3378+504685852+504749909+505270209+506037199+506823640+507452230+507588220
3368+507312030+507285246+507781512+508244069+508165279+507809450+507643655
3358+507411256+506312642+504265831+502368486+501629502+501833216+502032415
3348+501678759+500949552+500287423+500051188+500550339+501915876+503624172
3338+504537641+503973143+502525965+501358914+500962044+500960041+500832775
3328+500468426+499982922+499225267+497818044+495798492+493986727+493313430
3318+493742210+494302498+494399518+494443275+494814787+495048645+494640505
3308+493997488+493959332+494682090+495417713+495303856+494169869+492605982
3298+491472199+491309934+491901522+492449998+492392085+491843202+491295202
3288+491243127+491848701+492654628+493168546+493670039+494528515+495256195
3278+495371885+495332473+495501934+495338957+494416797+493018230+491439848
3268+489869172+488754840+488303452+488001701+487270287+486252296+485629240
3258+485891138+486913406+488028451+488484320+488004994+486967415+486020576
3248+485529063+485538942+486020135+486582393+486343816+484933470+483236241
3238+482368735+482395111+482554728+482216349+481265741+479944845+478484122
3228+476843889+475088815+473875427+473906963+475021024+476279357+476873558
3218+476703044+476169098+475608232+474879093+473595571+471855943+470374546
3208+469638482+469263949+468595370+467683259+467138178+467228374+467570827
3198+467557283+466859340+465649619+464431478+463472588+462465833+460972895
3188+459105356+457530946+456740974+456484202+456176815+455722711+455480264
3178+455518047+455360025+454411387+452552097+450526333+449430095+449425783
3168+449473139+448666601+447172746+445636390+444397203+443388717+442334165
3158+441133032+440163720+439835525+439846353+439372187+438110595+436716238
3148+435987608+435939641+435875516+435156289+433702559+431883190+430179138
3138+429048172+428884074+429672450+430678900+431015039+430601366+430046678
3128+429673129+429190884+428229074+426816556+425337977+424121398+423183622
3118+422502416+422205722+422152935+421800400+420922914+419983543+419425562
3108+419013247+418175818+416871079+415789642+415493661+415638240+415444914
3098+414697579+413810860+413208986+412998958+412940299+412665127+412188211
3088+411961584+412188279+412481103+412403535+411954760+411397323+410903637
3078+410417352+409754544+408940369+408316634+408069468+407918304+407556671
3068+407031822+406409886+405558980+404563631+403843250+403601211+403537357
3058+403222638+402509284+401561087+400656579+399981653+399487017+398886501
3048+397970384+397022662+396594561+396657261+396426254+395367085+393896043
3038+392773462+392287346+392196675+392064080+391579559+390800620+390059192
3028+389603459+389431791+389368922+389174815+388669825+387810297+386671659
3018+385444150+384409796+383816885+383737925+383959155+383965571+383281546
3008+382002947+380727131+379806873+379036149+378226386+377609915+377358032
2998+377141859+376605231+375923583+375458956+375194614+374913128+374585543
2988+374201913+373547592+372475897+371203170+370096239+369311461+368781283
2978+368419582+368182940+367985642+367698861+367277753+366849177+366611279
2968+366588637+366543624+366229753+365608259+364728498+363692957+362825722
2958+362428309+362285292+361893005+361213122+360724495+360717298+360897317
2948+360705009+359874437+358678837+357635624+357026282+356772260+356662884
2938+356559245+356400476+356089763+355483986+354618313+353813473+353325728
2928+353042816+352707118+352194966+351480016+350619809+349812388+349229491
2918+348839852+348563764+348491186+348709157+348925194+348563255+347431441
2908+346042752+345040682+344605079+344578295+344754410+344868437+344698806
2898+344296538+343844879+343351193+342729291+342091875+341707634+341632645
2888+341515190+340929883+339902522+338905850+338350279+338285000+338498965
2878+338657292+338443395+337820135+337088076+336542656+336189441+335870241
2868+335489767+335008031+334362129+333563636+332812669+332350961+332178343
2858+332026364+331681636+331269286+331072396+331080951+330911285+330282492
2848+329447711+328943875+328929108+329003282+328771325+328335756+328041778
2838+327982405+328001585+327958235+327773260+327425511+327001348+326556545
2828+325986955+325261176+324635914+324371911+324331956+324078612+323355617
2818+322341156+321420626+320836880+320607469+320620334+320670677+320528814
2808+320131910+319652347+319301984+319121489+318969680+318643555+318003559
2798+317092432+316164569+315492460+315124275+314952675+314952981+315092501
2788+315126244+314851310+314413195+314012863+313577056+313024847+312518397
2778+312175163+311849615+311377282+310774458+310111887+309397209+308668885
2768+308110700+307926506+308040838+308052143+307622854+306826228+306005263
2758+305401455+304997286+304624111+304134771+303478854+302682670+301850265
2748+301172012+300822599+300801179+300880546+300729993+300170111+299338317
2738+298515689+297833973+297288858+296908283+296681519+296457506+296134911
2728+295834076+295718216+295753113+295738516+295498989+295009750+294385404
2718+293770359+293242965+292803865+292421932+292090341+291836794+291641058
2708+291368127+290885067+290247583+289671237+289296195+289044040+288740998
2698+288335065+287899631+287426144+286766018+285885205+285066039+284707410
2688+284933512+285460669+285852277+285886835+285674974+285437042+285212315
2678+284841584+284228474+283515935+282930254+282540750+282268991+282032705
2668+281771961+281450674+281135819+280962844+280944564+280917237+280717817
2658+280322492+279808947+279284574+278877588+278694989+278700539+278691577
2648+278511321+278237575+278041636+277928373+277760405+277473081+277126027
2638+276786442+276461998+276119239+275724728+275307371+274988986+274889438
2628+274963543+274986457+274764972+274333273+273905054+273684944+273726443
2618+273877523+273885585+273650946+273334241+273149589+273136264+273160163
2608+273054283+272768317+272430871+272211355+272131275+272096683+272061922
2598+272045034+272035223+271965785+271761376+271426917+271108871+270981656
2588+271048174+271143632+271147604+271111060+271157754+271294338+271366933
2578+271259577+271082935+271046035+271190122+271376964+271469010+271382888
2568+271064282+270572803+270129986+269952038+270065776+270354594+270723458
2558+271133906+271523749+271781845+271804573+271557543+271097549+270540859
2548+270009917+269593477+269307969+269087502+268861180+268636318+268457606
2538+268308173+268110230+267818798+267484322+267203923+266997307+266771155
2528+266459236+266152054+266013110+266085535+266209440+266138000+265780983
2518+265341629+265133757+265254199+265522717+265732507+265839524+265890274
2508+265900916+265871909+265802709+265639052+265343852+265057394+265000279
2498+265179432+265371264+265393313+265244049+265029150+264866801+264804458
2488+264798059+264809125+264826421+264764723+264523278+264168909+263868549
2478+263667161+263493185+263304391+263091579+262836097+262550317+262274569
2468+262031579+261874712+261911578+262134726+262300233+262152616+261738756
2458+261360336+261240742+261318021+261332126+261086794+260637697+260195780
2448+259893418+259746700+259747260+259826000+259834266+259718287+259598523
2438+259577680+259607740+259606501+259566563+259495767+259365446+259175056
2428+258982681+258803188+258569550+258290950+258128788+258179758+258313831
2418+258372643+258394488+258498619+258680047+258859166+259021380+259170626
2408+259229727+259128549+258939501+258813932+258836388+259010755+259294090
2398+259607417+259959138+260611983+262017101+264596195+268730740+274962287
2388+284039120+296639833+313057198+333198914+356845788+383748075+413368332
2378+444637341+476105312+506339018+534350409+559915607+583117610+603445524
2368+620078008+632640429+640859448+644303944+643005689+637611504+628572199
2358+615954173+599940603+580259441+556263052+530262082+508603224+497027359
2348+497617250+509122471+526849429+543486326+553867881+557944632+558312715
2338+557429017+556553907+556065211+556257757+557210706+558185857+558029838
2328+556245298+553100993+548654495+542436358+534396305+525309644+515781100
2318+505785790+495607237+486210474+478019291+469976081+460559866+449390547
2308+437165521+424552588+411923563+399707737+388319462+377901856+368380475
2298+359561653+351147611+342920376+334937558+327421607+320501352+314120440
2288+308161688+302627235+297663968+293409269+289840835+286753899+283896324
2278+281222943+278973945+277339535+276110277+274851231+273372788+271848805
2268+270518946+269446369+268558699+267793169+267131312+266528725+265893295
2258+265163647+264375831+263635845+263043748+262625441+262298858+261922237
2248+261414175+260819430+260244001+259758989+259392722+259152363+258976299
2238+258720901+258303850+257827443+257450704+257186667+256954065+256770431
2228+256733904+256829633+256901872+256845011+256715810+256609558+256506513
2218+256324627+256073999+255847015+255686770+255581399+255548115+255603108
2208+255699466+255779376+255814256+255768819+255637428+255508075+255474739
2198+255508092+255499418+255405183+255303105+255320197+255503390+255756903
2188+255926110+255929607+255793583+255591448+255380011+255184614+255027255
2178+254935854+254913007+254927571+254945664+254951605+254954185+254969291
2168+254971141+254904046+254772435+254648733+254571131+254511300+254443237
2158+254365941+254275592+254173175+254077428+253991476+253874445+253695088
2148+253514780+253459719+253586442+253827055+254080076+254299966+254512811
2138+254804395+255265221+255892622+256577359+257225366+257873271+258651548
2128+259626410+260719950+261825642+262950395+264176394+265536313+266990840
2118+268479892+269947896+271333954+272539958+273426712+273888878+273914508
2108+273532438+272765024+271690699+270475444+269261037+268067491+266866715
2098+265698730+264641582+263718319+262921252+262268883+261749041+261267712
2088+260745529+260221087+259803883+259565697+259492559+259515744+259586048
2078+259702027+259845111+259940247+259926329+259827782+259747040+259818650
2068+260114783+260527099+260810706+260822112+260648747+260466250+260388784
2058+260479166+260747141+261082330+261311130+261376885+261382791+261428263
2048+261499636+261577645+261761449+262161781+262701244+263143704+263330139
2038+263299553+263203332+263182743+263299451+263524093+263792781+264064642
2028+264326421+264586028+264850065+265090068+265328509+265746901+266487853
2018+267311857+267729315+267575554+267187273+266938087+266882687+266897504
2008+266922353+266987734+267147266+267432961+267816677+268202005+268457691
1998+268525686+268617002+269158077+270244590+271277619+271549175+271066420
1988+270365253+269816302+269507999+269445520+269551128+269681110+269770712
1978+269861960+270018930+270252262+270478058+270662727+271031014+271812160
1968+272709793+273060020+272690444+272163796+272023885+272263633+272613945
1958+272962899+273339384+273728022+274058526+274306099+274558526+274982129
1948+275737611+276962982+278654355+280284930+280855199+279957600+278446890
1938+277443343+277237355+277449997+277703918+277889147+278047457+278215103
1928+278495468+279237066+280662959+282263525+283322965+284032093+284905947
1918+285383983+284532195+282858728+281828160+282087495+283099104+283904997
1908+283934785+283364329+282769381+282468750+282396783+282486402+282877501
1898+283710924+284776678+285564444+286008363+286770601+288090174+288966166
1888+288485584+287268767+286457681+286315309+286508363+286807467+287109524
1878+287348135+287563967+287933850+288976418+291547365+295830478+300052249
1868+301320359+299017861+295586809+293349048+292725109+292992812+293399730
1858+293585384+293573163+293582193+293791983+294366767+295533615+297476990
1848+300398912+304346971+308098446+309021149+306368900+302847515+300940564
1838+300732946+301083309+301522714+302932687+306246522+310523490+313202014
1828+313388585+312721466+312026375+310504752+308250255+306677169+306478479
1818+307019520+307557337+308236405+309696415+311926029+313827786+314301715
1808+313584559+312960518+313608084+315943000+319276558+321945814+322679638
1798+322147355+322451992+325167009+329725971+332906056+331735781+327829068
1788+325042628+324856974+326236157+327940685+329718809+331312297+332110280
1778+332526567+334306830+338852927+345427572+350577443+351144556+348139465
1768+344324476+341348410+340497606+342434295+345636785+347509348+347905675
1758+348444272+349297113+350207323+352621437+357906348+364439477+368331049
1748+368127132+366160468+365019760+365678630+367823411+370188200+371454002
1738+372530178+376291904+383344076+388633333+386936036+381306193+376299372
1728+372939438+371315805+371505126+372990018+375764306+381246650+390381855
1718+400458399+405050833+401635634+394768233+389055391+386437258+387523482
1708+391974868+397883378+402742327+406789817+412732308+420717231+426235831
1698+426606494+423557205+417746053+410890873+407003782+407643438+411314493
1688+416953196+425710711+436952472+443241015+439241798+431498405+426905190
1678+427297274+431514021+436381015+439546876+442423716+446498974+449077186
1668+447160016+443811929+443693761+447018391+450201056+450732219+450628512
1658+453589777+462021031+476431641+491968193+496837055+492491005+491492126
1648+496154083+500109678+497819979+493037681+491449523+494470161+501765866
1638+512842987+525021132+531773895+530586340+528090483+530040750+537000418
1628+546607616+556768959+567479184+578510715+587775426+595118350+604161865
1618+617401589+631300149+639250175+641954702+644945195+650429882+657151380
1608+663117906+667634911+671431908+675182534+678486897+680707481+682236844
1598+684192780+687190199+690809859+694190059+696984545+699446082+701832393
1588+704313416+707049717+709773593+711827975+713265071+715611257+720914941
1578+729550757+738022407+741327992+741421957+744633714+752773162+762270611
1568+769215546+774825632+782181932+792170656+805542025+824876524+849396981
1558+865785864+866254192+861926202+859618239+859099195+858887504+858206399
1548+858096752+860812277+866840518+874291664+881264367+884198985+876342040
1538+860771338+848798909+843920373+842524692+839998724+836271249+834448452
1528+835392304+837381304+839571811+842988334+846989622+848468065+846642688
1518+843457884+839370236+834567401+831112382+831118696+835388977+843747652
1508+853193570+854797548+844087322+831708349+825862198+826547988+831044828
1498+835699588+836985418+834726678+832685808+833820032+837259571+839039460
1488+836104300+829872787+823844547+820032138+818353206+817967505+818973751
1478+822304593+828035053+834548255+838776170+837399907+830840605+824051757
1468+820881483+821490281+823323806+823730419+823459117+825636861+831617304
1458+838130030+838034369+830400182+822407655+818106415+817106211+817472971
1448+817193929+815615751+813717185+812252524+810899616+809894117+810746856
1438+813838238+816175599+814784738+811879247+810921070+811857182+812502235
1428+812040426+811615482+811964453+812911564+814818753+818203502+821147420
1418+819671150+813593483+807188096+803458653+802358511+802267806+802075532
1408+802176829+803030858+803538360+802500883+801052245+801246488+803298425
1398+805794791+807496942+807643660+805845440+803286204+802192240+803151232
1388+804144442+802985573+800806268+800809866+804031061+808699943+813023655
1378+817134116+822020935+827476224+831777125+833604878+833498354+832653898
1368+831851264+832178781+834857169+839209261+842210414+841729594+839121000
1358+836956903+836349462+837055756+838354485+839474724+839989490+840057859
1348+839948347+839524286+838833269+838842502+840557689+843500182+845939110
1338+846879364+847010601+847360184+847984190+848332958+848403770+849055206
1328+851022548+854013992+857210881+860299412+863413335+866379998+868751780
1318+870542328+872356232+874646203+877252624+879817698+882298381+884892039
1308+887688697+890584275+893461523+896311002+899090347+901602601+903706001
1298+905426959+906873288+908263674+909689160+910558601+909956184+908014234
1288+906127617+905366398+905306244+904499537+901882796+898010709+894792909
1278+893610956+894074463+894956260+895703833+896456361+897314260+898339312
1268+899802344+901808521+903902144+905645303+907298571+909345892+911681691
1258+913803422+915402512+916287568+916381668+916082938+915948984+916136166
1248+916727787+917869752+919001871+919066845+918001600+916943077+916602253
1238+916406041+915604833+914534564+914119873+914443927+914695607+914461715
1228+914200801+914415072+914936221+914985919+913873692+912013485+910943080
1218+911587387+912962021+913494033+913009682+912422813+912388731+913387305
1208+915943688+919749715+923488324+926306776+928572916+930610664+932091823
1198+933121288+934336169+935638565+936145049+935774420+936120336+938975993
1188+944055290+948826555+951130240+951380087+951266298+951331136+951041775
1178+950432908+950401406+951564349+953597548+955692665+957459315+959357814
1168+962283197+966671680+971721307+975593123+976840050+975738957+974091732
1158+973582329+974435883+975695031+976624828+977482456+978571395+979576555
1148+980728295+983265941+987646412+991849683+992995720+991075700+989114264
1138+989240817+990467308+990801072+990397378+991313122+994562289+998757683
1128+1001661138+1002149290+1000933865+1000221937+1001714298+1004563234
1120+1006498191+1007274686+1009103798+1012932297+1016639200+1017932770
1111+1017361041+1017176235+1018820474+1022262457+1025843350+1026745719
1103+1023297421+1017057286+1011490856+1009040657+1010113370+1014064009
1094+1019579656+1024255802+1026602939+1027735942+1028785367+1028886053
1085+1027474960+1026276644+1027435175+1031102699+1035593701+1038822160
1077+1039753112+1038980759+1037890665+1037574893+1038327829+1039645501
1068+1041096583+1043388727+1047231484+1051098886+1051742242+1047718957
1060+1041679447+1038003435+1039076284+1043758202+1048355864+1049951355
1051+1049343371+1049661383+1053193868+1060203437+1068499651+1073741823
1043+1072822956+1067468760+1061809451+1057333047+1052910142+1048534219
1034+1046112671+1046692615+1048755891+1049808575+1049129236+1048076076
1025+1047766075+1047654459+1047076280+1046806404+1047645836+1048779382
1017+1049070983+1048863637+1049289396+1050952848+1053690642+1056594232
1008+1057914145+1056194409+1052362447+1049661111+1050234130+1053007297
1000+1055221974+1054430882+1049966427+1043731927+1038802267+1036880142
991+1037515079+1038853594+1038795003+1036983068+1035611285+1036532053
983+1038498241+1039052861+1038051708+1036923661+1035770223+1034005950
974+1032058840+1030340530+1028352480+1026127347+1024225318+1022066381
965+1018834935+1015891016+1015497711+1017133055+1017812531+1015893189
957+1012203803+1008001687+1003933999+1000531598+998697666+999260840+1001602478
947+1003048264+1000880773+995827072+991482244+989201100+986685519+982233149
937+977474580+974946372+975265334+977243607+979075367+979068238+976846364
927+974099675+972646964+972313812+971650834+970170762+969080736+969744392
917+971961582+973990842+974346603+973054119+970787436+967936939+964837069
907+961886769+959574732+958889486+960469294+962919764+964024591+963769720
897+963664960+963739643+962899328+961487624+961168187+962666183+965196564
887+967631283+968813780+967545670+963752339+959235198+956284015+955758522
877+956598361+956906732+955771965+953953987+952522119+951758999+951741211
867+952641000+953795932+953645413+951665239+949395704+948973204+950595784
857+951913049+950928122+948849774+947985833+948154140+947930024+947648132
847+948530404+950227871+951528434+952220334+952469162+951694025+949437594
837+946493404+944530339+944866682+947228823+949692465+950488445+949399777
827+947609093+946896486+948781473+953404052+958400247+960685466+959733467
817+957164523+954862670+954340164+955793826+957685060+958569369+958464339
807+957805231+956368542+954076263+952501072+953924454+958520011+963211977
797+964177758+961251899+958041024+956984945+956708687+955257537+953722675
787+954180819+956373227+958952491+961915080+965341991+967292971+965534197
777+960904693+956223726+952990854+951477582+951465632+951748951+951637267
767+952420279+954726612+956865317+958176675+960652605+965091737+969135797
757+970649341+970215571+969432219+969112306+969383404+969882419+970100424
747+970344365+971279119+972099812+970870741+967087594+962313613+958359444
737+956407853+957415456+960667406+962518379+960196431+956552465+956701219
727+961273693+966114480+967576425+965874614+963286931+961689946+961678336
717+962119167+961094726+958605896+957244705+959025680+962511930+964174635
707+962778139+960807198+960540514+960692730+958803669+955758590+954823903
697+956232688+955933347+951456535+945780389+942759683+942173493+941722342
687+941009056+941319600+942980200+944201735+943185713+940111779+937328156
677+937870216+941767152+944809719+942849574+935657168+926087209+918938323
667+918044984+920588197+921692955+920243842+918523156+918941514+920453293
657+919800635+915475497+909460224+905593297+906067395+909706541+913587590
647+915513313+914175409+910011381+905958019+904358183+904142826+902644151
637+898935279+894067742+888969706+883974394+879807243+877579123+877655910
627+878979556+879131026+875688160+869917439+866624753+868433361+872753339
617+875337424+876160561+879677024+887537295+894032912+893837040+890786665
607+890475918+890019607+883134622+872050237+863872158+859647841
##END=
