##TITLE=<SNM>
##JCAMP-DX=4.24
##DATA TYPE=INFRARED SPECTRUM
##DATE=2/5/2025
##SAMPLING PROCEDURE=Instrument type and / or accessory
##ORIGIN=Admin
##XUNITS=1/CM
##YUNITS=ABSORBANCE
##RESOLUTION=4
##FIRSTX=4497.3318
##LASTX=599.83466
##DELTAX=-1.4281778
##MAXY=1.8396931
##MINY=0.36233589
##XFACTOR=1
##YFACTOR=1.7133477e-09
##NPOINTS=2730
##FIRSTY=0.38159922
##XYDATA=(X++(Y..Y))
4497+222721413+222049875+221930881+222063964+222218772+222484939+223019341
4487+223708899+224317262+224823903+225360984+225924869+226300045+226183382
4477+225444093+224397414+223597750+223301179+223332332+223280341+222733519
4467+221739823+221000569+221113266+221846571+222547453+222818733+222575702
4457+222041091+221832743+222386731+223135447+223001320+221845458+220659782
4447+220244339+220539031+221208082+221955876+222362710+222254465+222012077
4437+221886630+221589033+221043724+220746509+221036367+221700199+222321711
4427+222485861+221900702+220711669+219417957+218371766+217611065+217169826
4417+217334253+218379958+220015970+221397714+221944814+221825733+221447774
4407+220941203+220340407+219840811+219594561+219519192+219460921+219362957
4397+219101174+218410015+217407935+216871133+217402230+218671416+219948324
4387+220893943+221420570+221365291+220663626+219376872+217543523+215464028
4377+213945740+213738540+214690612+215771610+216172077+216121355+216288983
4367+216784144+217188716+217255545+217072053+216658749+215903180+215001656
4357+214591622+215130477+216269380+217177984+217392159+217017418+216319962
4347+215511880+214771756+214167951+213701960+213465678+213529862+213770720
4337+213933512+213796289+213300259+212711343+212504856+212840391+213391717
4327+213859222+214185954+214118917+213334369+212270661+211915697+212487080
4317+213197337+213397318+213069925+212391812+211691712+211542748+212190752
4307+213168028+213877972+214236571+214546832+215052655+215655591+215933550
4297+215571611+214728062+213731774+212696819+211791137+211478320+211995363
4287+212888973+213525809+213807839+213997071+214099296+213800934+212983615
4277+212112635+211897433+212490384+213324437+213919910+214346033+214630950
4267+214419680+213632714+212866552+212737974+213176029+213592603+213523078
4257+213010315+212516371+212495342+212973613+213637532+214393711+215380414
4247+216198951+215960685+214635177+213423653+213269419+213902550+214621262
4237+215060431+215077477+214702023+214264141+214055846+213947341+213683279
4227+213456024+213770302+214565200+214988662+214558121+213983329+214176944
4217+215076538+216093003+216936865+217356796+216905938+215604000+214168560
4207+213283804+213219689+214044105+215400470+216275225+215907285+214777827
4197+213961065+213840471+214135094+214695831+215543937+216369988+216573257
4187+215918487+214926304+214386353+214482195+214657963+214469393+214228814
4177+214581846+215673507+216980594+217927761+218354632+218240439+217467858
4167+216270563+215395860+215345017+215825167+216256387+216473345+216648626
4157+216777604+216567238+215916556+215270066+215146062+215458601+215698537
4147+215592780+215192661+214551998+213687297+212775458+212193031+212258885
4137+212930493+213828434+214562591+214923538+214904526+214801970+215068675
4127+215753364+216333930+216255099+215386798+214046174+212896870+212648620
4117+213520922+215080225+216583572+217341315+216972506+215654060+214106811
4107+213135953+213099182+213794428+214804997+215827585+216624761+216935735
4097+216720968+216278982+215785960+215011657+213835513+212713500+212261233
4087+212565527+213129100+213444874+213537377+213828138+214481864+215180520
4077+215620941+215771436+215538162+214780923+213789523+213180813+213198920
4067+213498083+213632471+213547448+213587385+214029111+214726323+215358776
4057+215785038+215877784+215445764+214697413+214234484+214249704+214327491
4047+214272960+214415714+214818616+214926234+214411140+213781782+213729739
4037+214291746+214978695+215464063+215892761+216542330+217238846+217323452
4027+216482111+215344982+214821121+215101690+215695302+216123704+216248472
4017+216168389+215995613+215740944+215531431+215756895+216575014+217410510
4007+217443819+216642242+215952023+216305856+217523955+218423305+218173837
3997+217166312+216267014+215769366+215480205+215349418+215515793+216017077
3987+216781326+217696140+218490307+218778094+218495525+218169019+218437690
3977+219311383+220141765+220314924+219780435+218962455+218371452+218275141
3967+218630800+219270733+220018127+220624976+220880636+220839395+220690222
3957+220435136+220016753+219758606+220365072+222248499+224695760+226011388
3947+225327030+223909263+223515893+224126691+224321993+223430279+222169564
3937+221593312+222480277+225030929+228210207+229967613+229318722+227727448
3927+227249681+228165104+229176646+229517016+229972605+231383588+233077940
3917+233271677+230943967+227121416+223862403+222428721+222790572+224616755
3907+228225844+233915211+240448248+245252632+246804821+245333567+241340188
3897+236010290+232056622+231814390+234659317+236805971+235691176+234086752
3887+235542143+238950155+240868283+241457025+242691005+242920904+239973873
3878+236594370+236585395+239900278+244448081+249079775+252303217+251818406
3868+248681865+246479480+246110584+245373783+242897091+240187526+239589618
3858+242926470+251430445+263425977+269695318+262553518+250029777+240955463
3848+237262952+238015060+241583272+246475688+251884504+257188954+260750852
3838+260712167+257789958+254540425+251879842+249136393+246443579+245014366
3828+245203459+246522844+249854339+256668154+264431710+266645522+262740958
3818+258596632+255886110+252006889+246975824+243861583+244827118+249750339
3808+255838450+259696050+262149538+266103849+270063553+269886533+266647297
3798+263985322+261642670+258247461+255192655+254552236+256432497+259925549
3788+264566567+269834072+274637899+278849332+284012611+291019797+298426615
3778+304652106+310626598+318464288+329501086+343552438+357747641+367778671
3768+372991018+376395656+379649694+382778181+386307744+390178894+392639478
3758+392865742+393273393+397249465+406206542+417997830+427007159+430750323
3748+434423492+442558031+452490714+457240828+457729467+461603504+472355593
3738+488507922+505804512+519435481+526971765+529928640+532175520+537104411
3728+545819430+556239012+564483274+569267063+572670970+575869869+577983126
3718+578725371+579453771+581719749+585594865+588586321+587441156+582121660
3708+575128632+569259097+566778648+567578956+568516364+566999033+564483030
3698+563887557+566673274+572903009+581316621+589604786+595562163+597635413
3688+595305076+590211705+585607180+584096389+586221613+590855291+597227901
3678+605342785+612521792+613334310+608587709+604044134+600224019+593486616
3668+584126307+576099925+571113563+568420453+567521137+569187850+573774041
3658+579178212+581815557+581164596+580718574+583304292+588274895+591166090
3648+587412768+578901157+571184774+567132272+565867574+565316283+565256238
3638+566824534+569630359+572009190+574178039+578581139+585718434+589996086
3628+585061768+574962935+567650585+566408221+570742788+577504333+581747545
3618+581503504+580410279+581657374+584293361+586485796+588395263+590141919
3608+590462877+589788747+590879364+594954409+599677771+601823242+601659110
3598+602298869+604828682+606994678+607357313+608445077+613346207+620793502
3588+624744213+621243455+614183286+608958067+606441264+605160216+604982238
3578+606886278+610285732+612749934+612976963+612950663+616017610+622796410
3568+628810839+627708742+619393686+610466840+605932032+605740208+607401981
3558+609212022+610663603+611277619+610549219+608823088+607331152+607252669
3548+608565027+609604435+608472908+605154650+601395623+598787188+597839551
3538+598008136+597840247+596242346+594143909+593612829+595011671+596314497
3528+596089694+595703960+596888993+598670507+598515560+595665484+591623697
3518+588157101+586116413+585546927+586111682+587194923+587884291+587610993
3508+586782263+586080233+585309391+583895590+582123643+580894499+580512626
3498+580343937+579618425+578406397+577451907+577118564+577345141+578097197
3488+578789730+578197944+576080930+573855168+572800348+572510004+571560072
3478+569408026+566990092+565306403+564367846+563916501+564155115+564803014
3468+564621836+563170951+561678006+560991839+560259856+558719947+557373323
3458+557590298+558915667+559396199+558053228+555988048+554394252+552686002
3448+549903207+547001262+545788573+546239396+546788148+546620886+545979770
3438+544992301+543641328+542494632+542406687+543382154+544047726+542764034
3428+539741095+537135651+536415427+536659050+535986799+533950598+531748040
3418+530473566+530252521+530975598+532557496+534228488+534889572+534421946
3408+533400941+531979452+530361756+529313233+528992554+528422198+527028644
3398+525561790+524837983+524564128+523790295+522086671+520069744+518692853
3388+518365668+518993077+520154558+520927174+520580785+519692568+519457711
3378+520082233+520835506+521166588+520856205+519691211+517830692+516056761
3368+515103176+514954038+515069501+515082233+515043584+515158142+515570106
3358+516317048+517194690+517635146+517006241+515360193+513727747+513267113
3348+514051557+515019266+515137164+514162497+512437862+510670889+509694274
3338+509765590+510330832+510879272+511591669+512743339+513937312+514371402
3328+513588036+511726091+509412279+507505422+506475059+505955981+505348819
3318+504753276+504708051+505256873+505941717+506394036+506413657+505810565
3308+504589457+503207000+502443499+502762404+503744655+504485161+504529899
3298+503982504+503129387+502611527+503173464+504567297+505540746+505303454
3288+504218473+503219420+503245268+504478586+505661566+505360855+504075215
3278+503559163+504248670+504891873+504515253+503466661+502629304+502664266
3268+503701170+504944960+505086514+503855874+502535027+502213548+502366304
3258+501834319+500512638+499341695+499030756+499284190+499226928+498494249
3248+497650700+497304068+497237866+496832233+495968367+495204344+495218433
3238+496062574+496926301+496968151+496320147+495666438+495018504+493683325
3228+491383115+488796701+486913917+486124847+486053252+486183430+486431089
3218+486810735+486754378+485549655+483565950+482194800+482227883+482985923
3208+483272614+482495198+480693262+478269588+475911804+474288403+473725839
3198+474216947+475337934+476115246+475639758+474020427+472268274+471155706
3188+470648595+470407999+470210122+469799758+468949877+467848233+466929923
3178+466284250+465671661+464891079+463765882+462230426+460651032+459502249
3168+458679225+457683267+456392652+455113517+454021544+453075194+452378035
3158+452096457+452013904+451630501+450692641+449239946+447372608+445414125
3148+443919580+443114089+442706682+442421417+442212756+442037318+441885850
3138+441793626+441529547+440681231+439311890+438074466+437369514+436820031
3128+435897790+434670455+433568045+432786280+432305504+432136049+432176056
3118+432076318+431457536+430188490+428548947+427149931+426483350+426519391
3108+426806604+426821285+426265435+425308580+424501767+424227669+424276686
3098+424022105+422994525+421404381+420114670+419920655+420784138+421820938
3088+422076771+421353277+420298701+419730084+419882179+420238482+420042693
3078+419019635+417584753+416370672+415671981+415338326+415009297+414408292
3068+413574379+412811504+412323144+411942524+411272361+410066281+408522058
3058+407189975+406500608+406447103+406724089+406940438+406729064+405984104
3048+405018204+404268131+403861872+403565927+403033491+402099804+400954744
3038+399967901+399307826+398841104+398356049+397746904+397049988+396394679
3028+395839664+395264403+394525289+393675443+392972090+392678233+392751984
3018+392669536+391833535+390347896+389061456+388628166+388855926+389144495
3008+389195460+389038043+388654709+387912742+386787476+385461725+384216439
2998+383275308+382676530+382243970+381782954+381329905+381064748+380964209
2988+380708514+379988325+378824304+377589629+376753629+376466311+376369773
2978+376022689+375452472+374983211+374603740+373915103+372775887+371622303
2968+370911506+370524346+370003285+369214319+368450470+367975747+367772826
2958+367659729+367421985+366950706+366376106+365931093+365636922+365244996
2948+364482364+363339252+362229432+361748378+362021536+362434057+362307184
2938+361654519+360951514+360414103+359871647+359184089+358477015+358002188
2928+357899249+357993699+357774045+356790229+355192223+353688251+352881403
2918+352772898+352906451+352853920+352540964+352177981+351922217+351657129
2908+351153497+350413200+349741123+349408685+349310755+349061879+348416380
2898+347495844+346620533+346007804+345626175+345315619+344999497+344671616
2888+344258817+343727250+343219409+342822682+342387896+341810895+341221441
2878+340740700+340383283+340252792+340459192+340797474+340832958+340396747
2868+339798212+339411017+339148190+338599160+337707428+336931821+336561463
2858+336296341+335765748+335074467+334524323+334117125+333664945+333174255
2848+332814856+332645401+332597915+332607238+332603794+332499220+332238307
2838+331787380+331159901+330518507+330077669+329852970+329659338+329329022
2828+328783992+328016699+327169392+326511613+326211041+326193264+326230244
2818+326096866+325723516+325273493+324956153+324717783+324284876+323558355
2808+322781321+322230342+321864960+321404918+320728422+320055893+319655861
2798+319502548+319361168+319082235+318670409+318208384+317835418+317644012
2788+317520861+317215662+316571137+315634738+314632623+313844317+313377318
2778+313074241+312705762+312188076+311577296+310952948+310350274+309779744
2768+309307839+309048526+308987890+308908677+308596729+308039175+307390719
2758+306838905+306477628+306215984+305847053+305250536+304488948+303726769
2748+303105274+302649824+302272822+301883887+301444788+300911412+300248171
2738+299518101+298828700+298205535+297659531+297320796+297306602+297435667
2728+297272892+296590170+295668799+294987885+294690061+294505370+294130664
2718+293524997+292852398+292266770+291801666+291415880+291071493+290748082
2708+290449458+290219037+290074248+289932555+289687731+289334507+288930214
2698+288464501+287869445+287175399+286568794+286206090+286008387+285750605
2688+285318394+284774738+284253834+283909463+283861264+284034823+284107809
2678+283769996+283075046+282434608+282180931+282213441+282177452+281897771
2668+281489094+281099794+280724201+280312011+279941532+279737828+279646404
2658+279474201+279165298+278829955+278528200+278257825+278078595+278011923
2648+277914046+277631442+277182515+276697008+276285704+275997082+275808877
2638+275630152+275345808+274919824+274486396+274262306+274302087+274429534
2628+274448059+274292381+273958551+273450101+272850123+272338698+272082203
2618+272109234+272271504+272335602+272196048+272014192+272035395+272235359
2608+272300953+272025429+271533051+271046291+270669046+270459619+270475066
2598+270656226+270805486+270717454+270331859+269821322+269483978+269455504
2588+269598293+269718644+269780793+269871365+270042750+270227876+270315578
2578+270298149+270254959+270186670+269992185+269614800+269128980+268707623
2568+268509746+268507259+268484142+268344136+268328777+268746742+269537309
2558+270271275+270574039+270411246+269975121+269463297+269004820+268650796
2548+268376228+268154052+268015073+267972718+267928710+267735409+267367347
2538+266973073+266694574+266488366+266237994+265968279+265773533+265604949
2528+265329007+264970286+264734334+264754946+264889142+264854076+264572446
2518+264250549+264076850+264022685+264009083+264061370+264174954+264197914
2508+264008822+263734898+263631924+263754031+263884471+263817381+263575689
2498+263334309+263257688+263392580+263581063+263524497+263096948+262571730
2488+262381542+262628278+262943879+262896462+262455084+261947869+261611865
2478+261358554+261040257+260748956+260649600+260657045+260534712+260238088
2468+259946527+259815113+259830020+259833482+259650356+259284973+258949700
2458+258815277+258840516+258888628+258846221+258623123+258227457+257840054
2448+257661172+257682079+257705996+257586046+257368653+257187840+257084084
2438+256990712+256861282+256722163+256598925+256480592+256384611+256385602
2428+256516198+256656100+256608405+256349805+256130621+256201850+256491776
2418+256709900+256716405+256592472+256424565+256248136+256131282+256119106
2408+256181655+256323557+256595133+256922857+257102696+257046617+256916717
2398+256971213+257377872+258234989+259704973+262077821+265799990+271517396
2388+279968545+291732925+307156593+326458526+349631296+376198162+405309975
2378+436092709+467683718+498991271+528784519+556067714+580091965+600256580
2368+616389706+628941783+638675789+645755161+648560568+644505283+633294787
2358+617330246+598344122+575844647+549272285+521690849+499661018+488525699
2348+489974741+502541533+521412542+539272773+551101424+556761255+558224004
2338+557363478+555683963+554498826+554724881+556115617+557153669+556224783
2328+552949211+548224458+542806823+536242563+527829438+518084369+508172176
2318+498551580+489122738+479942737+470972754+461545407+450763539+438474463
2308+425510318+412906720+401161770+390284094+380162162+370632503+361432638
2298+352396974+343642401+335390903+327672085+320359735+313435449+307016639
2288+301165020+295882712+291262168+287416622+284278846+281631257+279313896
2278+277292742+275551338+274000662+272531148+271143490+269950613+268987200
2268+268100930+267127968+266107833+265225790+264575142+264047785+263464087
2258+262769276+262055818+261396873+260729544+259942387+259041297+258199470
2248+257639150+257428159+257372149+257177891+256768849+256352710+256137074
2238+256107173+256125455+256073376+255850191+255438766+255009512+254759435
2228+254660915+254556410+254435120+254421675+254548322+254685649+254684466
2218+254537242+254390365+254371979+254442635+254472431+254408890+254299950
2208+254211605+254175964+254185218+254221624+254287374+254390696+254552009
2198+254816227+255158458+255409422+255404708+255174913+254905895+254773264
2188+254839657+255024732+255170878+255194551+255152823+255151692+255231497
2178+255334679+255374042+255337740+255276878+255205527+255122105+255084759
2168+255121983+255137968+255052110+254931012+254852981+254760166+254573056
2158+254342809+254179391+254108683+254078817+254029331+253905293+253694927
2148+253488910+253432257+253617262+254054883+254686101+255407839+256190057
2138+257164967+258498494+260194359+262112418+264157838+266383931+268894489
2128+271694852+274727688+278039510+281762566+285897082+290244868+294581278
2118+298777456+302743613+306331412+309310065+311408607+312389814+312137702
2108+310710682+308289547+305099102+301427951+297615871+293888502+290270141
2098+286716070+283228741+279850647+276677926+273848220+271412509+269281945
2088+267377088+265758975+264538093+263692473+263046679+262438055+261842304
2078+261318477+260908235+260620117+260439948+260311179+260158510+259999109
2068+259991299+260226991+260491452+260465587+260174965+259949466+259972044
2058+260144455+260308900+260376825+260358300+260389296+260604915+260964070
2048+261295360+261477808+261549820+261668640+261913307+262162061+262280725
2038+262325706+262417321+262549361+262639619+262678304+262763136+262987208
2028+263296338+263546188+263709050+263889324+264195496+264740335+265577779
2018+266460187+266923430+266802192+266398177+266058242+265882282+265840623
2008+265899207+266003294+266108407+266244342+266478486+266805045+267089162
1998+267209999+267353032+267962159+269118544+270157221+270331807+269713512
1988+268947837+268435543+268198808+268187293+268324568+268460956+268499832
1978+268476610+268495327+268656432+268991322+269474029+270155673+271100631
1968+272037900+272395125+271983595+271316458+270973096+271049040+271397150
1958+271963140+272659708+273252972+273570973+273666241+273753752+274072031
1948+274789490+276053666+277921595+279849168+280605173+279575401+277744609
1938+276490208+276153265+276274276+276465578+276649435+276856669+277103145
1928+277487244+278343682+279878878+281568394+282678997+283405327+284270828
1918+284681401+283695723+281950841+281075321+281701164+283067757+284018507
1908+284037415+283484366+282976455+282755410+282761063+282997450+283580104
1898+284546943+285630011+286322735+286618837+287304412+288684921+289641497
1888+289094658+287682023+286673020+286368273+286398991+286560392+286839256
1878+287197577+287579988+288062921+289202572+291958162+296480169+300780155
1868+301777539+298933239+294943565+292326537+291558409+291828054+292240714
1858+292399314+292424883+292636675+293199726+294146945+295553231+297565845
1848+300500422+304518588+308337938+309154178+306222455+302463288+300509189
1838+300407293+300854777+301266428+302593780+305913255+310275618+312942602
1828+312921729+311955620+311006348+309321685+306965605+305307798+305018915
1818+305457666+305911759+306616155+308248845+310651367+312522984+312795795
1808+311943165+311364286+312163863+314680144+318210367+321061034+321895782
1798+321370721+321662561+324444346+329193591+332564692+331322711+327044676
1788+323895872+323660598+325317292+327372104+329362871+331037377+331866663
1778+332319956+334213593+339026744+345979139+351342642+351689900+348148857
1768+343788617+340477664+339644725+341966017+345694882+347896363+348327983
1758+348706550+349248240+349854324+352286799+358047760+365297352+369736980
1748+369670951+367485369+365954297+366251738+368208238+370594723+372003201
1738+373200688+377020351+384142374+389591596+388064280+382411407+377120403
1728+373374839+371520964+371699568+373280597+376299605+382378915+392439167
1718+403263268+407829073+403827014+396476605+390620985+388126865+389476690
1708+394185858+400185676+404927059+408882431+415108374+423832856+430001502
1698+430329766+426804064+420619207+413655541+409826450+410620739+414528765
1688+420522912+429837579+441721614+448214036+443859362+435810402+431209947
1678+431731425+436081751+441122835+444615453+447993756+452516597+454998124
1668+452335906+448313809+448169298+451985900+455611200+456163710+455880115
1658+458844853+467694642+483083296+499943569+505364091+500482059+498952586
1648+503575062+507712761+505266370+499947013+497910813+500992231+509054028
1638+521528143+535242257+542678941+541053418+538035906+540051025+547520375
1628+557693654+568346979+579607953+591272543+601151199+609116841+618849665
1618+632629215+646507008+654068687+656834853+660409571+666160304+672022082
1608+676220000+679059012+681846677+685110596+688169193+690356132+692215711
1598+694903951+698734573+702823255+706176371+708854591+711651093+714918490
1588+718283782+721251442+723711817+726070402+729063875+733496754+740110240
1578+748801916+756701529+759640663+759503875+762291401+770117750+779988614
1568+787812806+793918102+801236262+811314952+825200120+844580606+866800521
1558+878600472+875841542+870714008+868879198+869503650+870803623+871333172
1548+871160900+872193490+875925382+882284634+889882145+893043298+883633242
1538+867288115+856493480+853165481+852313026+849479788+845697801+844309117
1528+845572980+847414609+849383076+853153931+858166663+860596077+859122718
1518+856256918+853092634+849497391+846643628+846195762+849291931+856558047
1508+865850867+868462989+858388961+844819880+836434690+834433243+837176031
1498+841133422+841784383+838598808+836258452+838325927+843459862+846327749
1488+842855031+835148145+828040038+824177759+823417910+824340847+826120483
1478+829004303+833195402+837950004+841181569+839991249+834377999+828606810
1468+826187624+827203029+829298752+830368565+831556102+835764109+843618706
1458+850734189+849647468+841247319+833605975+829671684+828173625+827450305
1448+826094044+823381313+820255713+818303109+818049919+819566903+823392793
1438+828671934+831064960+827516472+822146881+819804160+820045869+819570381
1428+817434790+816032539+817062137+819698055+822691528+825747203+827623829
1418+825755135+820386518+814864344+811396009+810067996+810031956+810592327
1408+811690319+813198814+814065950+813525338+812770499+813467450+815598171
1398+818084847+820202069+820935548+818987397+815375456+813088117+813258859
1388+813891173+812541244+809775287+808391264+810096592+814554936+820303373
1378+825942436+830925110+835086778+837808067+838922340+839640929+840895887
1368+842284849+843818948+846632078+850522466+852898584+852132544+850018521
1358+848983496+849292626+849579213+848711382+846930493+845436331+845146891
1348+845943407+846994991+847858578+849092732+851426547+854505252+857022959
1338+858173899+858381447+858430707+858661076+859158272+860049899+861412422
1328+863116845+864985540+867172061+870093592+873862429+877975602+881656355
1318+884542750+887041880+889780841+892749406+895444603+897876870+900742182
1308+904332625+907876938+910451419+912220480+914101767+916401073+918617373
1298+920544720+922440271+923880094+923812466+922240308+920583614+919895847
1288+919723644+918879538+916595262+913027501+909351549+907136223+907085780
1278+908439953+909763653+910148273+909622620+908831601+908443919+908662182
1268+909387172+910705375+912813344+915561141+918231430+920069511+921195125
1258+922325400+923406972+923648195+923313043+924106776+927016130+930856354
1248+933520728+933951687+932632024+930874513+929814093+929404842+928540837
1238+926775464+925193774+924776870+924986296+924950534+924894594+925220840
1228+925242478+923965535+921502654+918968527+917314338+916766560+917154381
1218+918216819+919443180+920206021+920605600+921510725+923115654+924429264
1208+924999237+926038367+928812813+932619569+935241363+935473054+934613572
1198+934911708+937072417+940180344+943310466+945958560+947570794+947917078
1188+947769575+948280199+950010853+952879436+956504736+960274409+963539788
1178+965989310+967587350+968069309+967090015+965585486+965749131+968365845
1168+971520458+973412739+974739430+976710124+978658067+979359331+979293164
1158+979600832+980179016+980346905+980265152+980857390+982909558+986244584
1148+989771364+992731301+995165794+996637344+996381092+995324429+995429212
1138+996803006+997904268+998142499+998421989+999565067+1001465558+1003528720
1128+1005206982+1006644370+1008584867+1011118507+1013279216+1014363570
1120+1014727457+1014919489+1015567528+1017745421+1021571173+1025257005
1111+1026849897+1026119131+1024135426+1022316758+1022422654+1025574345
1103+1030339313+1033238928+1032258729+1028920155+1026219948+1026102155
1094+1028923703+1033162463+1036127966+1037251423+1039597623+1045279475
1085+1051050316+1052514282+1049722582+1045594519+1042760029+1042549768
1077+1044193381+1045126963+1043711909+1041249029+1040526752+1043422609
1068+1049730513+1056694875+1060764980+1060945741+1059415259+1058387540
1060+1057723081+1055898220+1052828561+1050483822+1050854875+1055142129
1051+1063143185+1071328899+1073741823+1068948258+1062769906+1060218245
1043+1060469139+1061003976+1061992454+1064490402+1067456670+1068910269
1034+1068453428+1066991688+1064943695+1062365317+1059812265+1057896188
1025+1056527195+1055280100+1054304563+1054258086+1055405686+1057142602
1017+1058476807+1058745304+1057837257+1056171240+1054619885+1054037388
1008+1054576400+1055804570+1057085062+1057309865+1055977399+1054254190
1000+1053683242+1054507797+1055899125+1057237157+1057923045+1057183026
991+1055349538+1053665152+1052656775+1051776489+1050422246+1048658961
983+1047061616+1046179938+1045972391+1045934611+1045453278+1044383395
974+1043068811+1041129287+1037812908+1033868320+1031146753+1030374937
965+1030822038+1031568945+1032199589+1032449161+1031808846+1029667828
957+1025562378+1019909191+1014128192+1009369972+1005724703+1002633962+999874406
947+997986508+997250872+996635187+994868771+992119999+989322106+986748668
937+984732749+984218507+985152367+985911450+985204689+983467356+981902921
927+980875341+979775818+978405851+977719266+978469792+979670757+979675001
917+978710180+978726043+980374388+981567839+979780758+975231686+970941997
907+969540024+970900181+973036468+974194296+973525036+970905330+967263748
897+964644529+964727325+967045625+969304924+969587058+967960073+965955913
887+964805182+964581771+964638267+964270693+963509035+963220639+963795622
877+964185879+963019632+960531773+958264543+957334162+957787872+958878837
867+959652044+959852912+960146666+961064106+962004854+961469460+958617228
857+954544340+951385691+950273436+950822258+952294712+954172034+955844104
847+956662189+956594838+956830078+959226303+963758120+967014872+965976716
837+961901671+957565365+953954467+951551493+951644865+954336027+957230144
827+958282911+958224954+958229894+957563487+955756438+954890484+957227222
817+962092868+966729259+969040741+968887811+967877555+967253799+966900905
807+966555039+966026812+965318867+965082376+966013314+967762753+968525594
797+966563806+962511443+959226790+959194159+962314262+966197205+968483778
787+968340589+965971637+962323585+959240984+958101385+958454140+959236114
777+959816037+959482416+958519751+959152969+962759762+967006384+968321107
767+966983771+966371426+967399215+967682879+965818777+963357497+962075683
757+961802942+961808508+962537256+964589563+967329151+969400661+970020591
747+969078382+967141989+966160399+967704935+970570387+971836198+970349133
737+967654979+965383504+964094315+964346601+966380888+968885375+970033393
727+969780829+969458758+969299079+968786368+968916755+971065565+974014996
717+974732194+971865838+966608961+961366695+958696337+959662828+963098741
707+967309878+971299343+973408634+971279236+964479214+955426296+948304273
697+946553998+950012801+955618049+961013384+965182149+966315555+962564251
687+955141170+947781055+943113355+941025215+939718354+937762340+935250060
677+933317564+933539445+936420690+939371235+937609619+926964365+910374746
667+900312685+901429184+906383610+909277658+909411316+908882184+909260960
657+910004180+909876019+908966093+908045453+907217350+906739287+907124256
647+906713683+903555591+900367581+901123185+904060371+903130477+896165071
637+886927217+879114018+873793896+871921027+874327481+879466355+883619883
627+884252267+882403819+879807630+875619940+868999079+861140585+852932260
617+845369815+841203207+842654232+848742691+856575302+863959908+869955134
607+874360599+876884707+876241330+870707120+861534042+853366071
##END=
