##TITLE=<SNM>
##JCAMP-DX=4.24
##DATA TYPE=INFRARED SPECTRUM
##DATE=2/5/2025
##SAMPLING PROCEDURE=Instrument type and / or accessory
##ORIGIN=Admin
##XUNITS=1/CM
##YUNITS=ABSORBANCE
##RESOLUTION=4
##FIRSTX=4497.3318
##LASTX=599.83466
##DELTAX=-1.4281778
##MAXY=1.8239123
##MINY=0.31271821
##XFACTOR=1
##YFACTOR=1.6986507e-09
##NPOINTS=2730
##FIRSTY=0.3271679
##XYDATA=(X++(Y..Y))
4497+192604580+193060128+193482377+194188604+195162405+195782259+195508632
4487+194255537+192359516+190761562+190583518+191903722+193490096+194170234
4477+193977418+193687860+193791567+194220202+194618993+194569429+193928767
4467+193207960+193220013+194177814+195455261+196203718+195931530+194758526
4457+193516080+193255822+194185095+195296885+195475771+194830407+194441616
4447+194858425+195452138+195388328+194650363+193753004+193012600+192528015
4437+192398377+192591229+192880383+193070866+193060058+192788993+192473258
4427+192645477+193520186+194517234+194797177+194089564+192740218+191266218
4417+190215044+190074915+190867356+192087871+193308842+194470635+195385731
4407+195478789+194401684+192643494+191229163+190817196+191156616+191510177
4397+191610374+191816525+192230036+192329409+191789015+191016311+190567868
4387+190518445+190544499+190323506+189851676+189490658+189611120+190124654
4377+190539112+190502233+190104565+189706406+189656017+190063546+190668382
4367+191014311+190858180+190307785+189571522+188762430+187943356+187227093
4357+186876726+187229234+188226422+189161204+189335932+188806310+188090591
4347+187543617+187350678+187582233+187928566+187888353+187433402+187081192
4337+187169652+187383452+187188302+186493637+185580207+184673392+184098013
4327+184388922+185440902+186081266+185495063+184554632+184703340+186011544
4317+187236375+187532757+187282447+187234234+187502493+187658255+187415067
4307+186853479+186204307+185760339+185874923+186735315+188026237+188951001
4297+188842013+187877160+186994538+186917886+187457368+187957322+188184245
4287+188411063+188779554+189056690+189045742+188816293+188498804+188269845
4277+188432555+189054515+189745618+190149216+190313242+190394842+190449512
4267+190521375+190560096+190393632+189983945+189460815+188942123+188579737
4257+188560456+188887980+189367074+189775339+189998227+190290030+191228549
4247+192846662+194100705+193971611+192804888+191800787+191521633+191591075
4237+191547512+191383609+191306834+191385995+191527055+191627393+191709923
4227+191943303+192428238+192902577+192895787+192353147+191857913+191961900
4217+192477504+192815257+192904753+193232558+193873957+194117460+193356809
4207+191944601+190818547+190480706+190585869+190478320+190043246+189871536
4197+190424142+191309062+191744381+191492702+190950343+190562219+190494110
4187+190677400+190947413+191212566+191486193+191752451+192044869+192626687
4177+193676351+194812651+195428628+195533142+195697992+196065010+196059571
4167+195390188+194675206+194577412+194844249+194736051+194065229+193384881
4157+193326422+193955856+194705155+194944570+194609642+194151251+194003226
4147+194267906+194738735+195134755+195382889+195521247+195398872+194926604
4137+194511005+194595220+194904796+194817634+194346067+194120478+194479705
4127+195097261+195517790+195627059+195503597+195219899+194923955+194751297
4117+194558516+194169954+193821253+193843201+194054703+194026964+193810007
4107+193893940+194567096+195610409+196486872+196739779+196390482+195948460
4097+195867123+196076309+196151768+195803085+195134421+194558920+194458564
4087+194817827+195281990+195644235+195949338+196118188+195987690+195798523
4077+196096801+196893015+197368195+196824274+195620743+194718594+194570745
4067+194939850+195547564+196340234+197150571+197552397+197284191+196690742
4057+196467450+196874540+197450340+197628401+197381196+197135149+197299648
4047+197925731+198616080+198799685+198287239+197486850+196953789+196844188
4037+196904910+196912261+196938104+197185888+197747529+198542603+199356659
4027+199955618+200235579+200166137+199659972+198795825+198071598+198012139
4017+198534743+199020433+199017573+198660714+198467196+198856583+199744064
4007+200532365+200682846+200335706+200163488+200637914+201584679+202366576
3997+202437755+201799496+200928542+200325232+200263808+200783219+201621189
3987+202326679+202667450+202761262+202787754+202823616+202897321+202997466
3977+203149333+203542773+204374111+205533079+206560322+206953709+206668572
3967+206303485+206447913+206956288+207312498+207466979+207719465+207989496
3957+207838260+207170035+206529653+206677801+207916527+209643575+210641044
3947+210310256+209538535+209686753+210913057+212109589+212425621+212033831
3937+211443083+211122331+211575510+212790183+213768686+213598923+212874853
3927+212950910+214087350+215161209+215322989+215218370+215835084+216935610
3917+217303663+216241945+214376680+212949296+212607051+213035966+213924974
3907+215948264+219936579+225091581+229070668+230427189+229490740+226878720
3897+223375429+220593681+220025513+221556920+223151313+223014236+222330010
3887+223346831+225754403+227222158+227343935+227663582+227877189+226499421
3878+224603102+224635945+227025587+230375993+233490757+235392340+235101624
3868+233576761+232916098+233170689+232466252+230201178+228031249+227575122
3858+229514689+234421942+241921198+247330441+245102351+238219529+232114305
3848+228782969+228388810+230595285+234532106+238908895+242748729+245385487
3838+245962796+244424810+242219844+240612784+239592384+238740308+238184685
3828+238179492+238764292+240654295+245037032+250905683+254202157+253493123
3818+251846991+250479978+247751759+243830623+241270096+241831895+245378522
3808+249940163+253013556+254658758+256831670+259253979+259586521+258061009
3798+257064716+257144860+257444997+257942249+259215732+261272953+263897974
3788+267246258+271313980+275630328+280257235+286221118+293933770+301824588
3778+307997236+312937859+318773860+327175808+338597585+351821800+364473075
3768+375365669+384790052+392397225+397982792+403103846+408892440+413719655
3758+415761086+416844998+420580862+428785502+439994427+449531763+454538320
3748+458323589+465315329+475631510+484396282+489335502+494141312+501888562
3738+512533215+523904358+533297827+539240569+542416091+544811469+548080854
3728+552760834+558027684+562412035+565479445+567497016+568265790+568034761
3718+567870894+568488046+569948608+571867647+573009983+572119765+569772915
3708+567222056+564970403+563544159+563212529+563185967+562885180+563038381
3698+564062676+565467936+567617689+572134994+579838171+588738494+594134754
3688+593177234+588931135+585579395+584194697+584256559+585820284+589418948
3678+593963868+595647739+592346738+588366757+587676162+588393284+586647165
3668+582610726+579398396+578373574+578787559+579492470+580186223+580974472
3658+581097811+579855049+579078591+581637977+587822064+594314411+595366041
3648+588535958+578528389+570996869+567902895+567853770+568245228+568044797
3638+568342039+569884956+571621601+572650211+574124844+577561535+581575062
3628+582533038+580466552+578608323+578870054+581665873+586445787+591417149
3618+595054096+597799140+600033985+600788758+600287822+600642295+602280058
3608+602902474+601545707+600302770+600841462+602731448+605101878+607929101
3598+611183433+614145190+616362840+618474872+621729555+626799483+632376663
3588+634772287+631743089+625902106+620915901+618365744+618705830+621650814
3578+625948705+629971986+632170057+631958608+630932313+631536061+634090781
3568+636029751+634948998+632301712+631400827+633121190+635863427+638007390
3558+639311102+640097596+640102649+638857957+636814000+635674085+636795262
3548+639064704+639730982+638018057+635708824+633709289+631653330+630199436
3538+630258526+630806342+629831629+626944472+623639050+621668639+621858894
3528+623540659+624673766+623518483+620699821+618743306+619268243+621461612
3518+623320368+623483183+622000655+619970312+618503364+618019131+618344339
3508+618874119+618688075+617576443+616637029+616636327+616915007+617275446
3498+618649477+620403807+620055720+617433208+615581891+616095810+616946658
3488+616151462+614625353+613899424+613798577+613567057+613203601+612645469
3478+611203855+608810828+606872279+606784274+607698003+607196154+604565010
3468+601668169+600379545+600940414+602777415+605231919+607242472+607593576
3458+605979815+603329371+601049121+599799798+598984040+598090733+597654712
3448+598282743+599695021+600935993+601148775+600244942+598837717+597261711
3438+595204279+592652717+590294288+588700247+587931754+587892348+588287385
3428+588493289+588014635+587026306+586328799+586678641+587720656+587815572
3418+586045558+583753377+582834982+583269915+583268722+581408387+577976959
3408+574520336+572604244+572806465+574410822+576094833+576969191+576740022
3398+575118471+572009619+568439623+566154460+565900097+566847792+567760362
3388+568132661+568047709+567446487+566202287+564855275+564330688+564514241
3378+564247070+563346080+563259304+564865626+566922357+567738466+567297393
3368+566551778+565650050+564038815+561775092+559759346+558702172+558421773
3358+558272257+557972593+557629594+557247892+556964615+557453866+559066681
3348+560863223+561591539+561274226+560759534+560259265+559349887+557882027
3338+556109381+554410738+553400022+553787866+555596514+557723493+558736770
3328+558209692+557001389+556261599+556550279+557791777+559465612+560759569
3318+561113762+560728866+560119854+559302026+558043614+556795940+556450485
3308+556972966+557256243+556730744+556041097+555694484+555413347+555201898
3298+555574759+556417466+556932824+556900366+556938824+557513729+558337137
3288+558666276+558118846+557335826+557299122+557890519+558059018+557435901
3278+556682987+556090397+555074489+553545012+552575105+553038672+554474390
3268+555890142+556868049+557315298+557192801+556893664+556861663+556693233
3258+555608620+553707581+551933355+551082192+551450771+552864663+554538919
3248+555447630+555047575+553467815+551411400+550027860+550021965+550703296
3238+550788704+550018772+548994126+547919127+546629627+545352653+544477523
3228+543852230+543029208+542107795+541631491+541638299+541615315+541495941
3218+541776446+542486164+542919729+542320261+540381922+537728637+536061539
3208+536749116+539060140+540672112+540087207+537882153+535597657+534162115
3198+533362813+532365011+530711598+528883755+527777492+527622502+527696856
3188+527260414+526420198+525792344+525690409+525912595+526103902+526135834
3178+526026039+525440888+523752947+521022500+518360653+516875774+516625797
3168+516728820+516261008+515103408+514032409+513821066+514273684+514316528
3158+513002746+510578033+508503793+507907308+508149916+507642348+505951635
3148+504152952+503122341+502607474+502026885+501195862+500111108+498796729
3138+497569618+496909165+496942710+497363994+497788330+497961250+497769171
3128+497245707+496463354+495412917+494141839+492946343+492224869+492077985
3118+492103530+491674176+490515138+489006574+487902065+487687984+488038212
3108+487967050+486775133+484764335+482847050+481696468+481412700+481696468
3098+482140665+482488717+482688305+482727395+482456715+481632991+480294190
3088+478978162+478308761+478459084+479162627+479942033+480195238+479525030
3078+478223248+477072070+476515307+476229609+475595192+474511421+473541830
3068+473165075+473180094+473021384+472366405+471331268+470326342+469764736
3058+469691785+469772105+469772772+469742770+469554481+468734406+467096187
3048+465251923+464069761+463790765+463970037+464044145+463719498+463074976
3038+462463157+462111280+461852812+461421493+460744302+459785941+458554127
3028+457326945+456378338+455563281+454641658+453801442+453380018+453229801
3018+452782937+451784959+450694556+450139301+450096597+449923396+449151254
3008+447909124+446650888+445826883+445665016+445891693+445836427+445151693
2998+444214700+443570389+443249882+442885654+442268537+441466603+440548524
2988+439552055+438660503+438131846+438024999+438096371+437947908+437334264
2978+436429554+435632954+435027557+434353665+433593312+433101148+432977247
2968+432760290+431986323+430796651+429819832+429492448+429487887+428961230
2958+427569128+425994385+425116869+424964336+424878858+424466136+423886459
2948+423328362+422712754+421976367+421281387+420808381+420514262+420178562
2938+419645133+419001838+418476655+418148815+417886346+417590753+417315442
2928+417112414+416934581+416652954+416062434+415031858+413764850+412700062
2918+412043574+411572639+410956258+410137096+409355795+408851561+408595724
2908+408386802+408160791+408022187+407928709+407595255+406896765+406146624
2898+405686286+405353778+404711116+403732648+402904608+402605330+402639858
2888+402478658+401851224+400969357+400121246+399286083+398398567+397693305
2878+397370307+397184403+396784840+396223585+395801459+395650961+395662154
2868+395588291+395193009+394502204+393818487+393325410+392842545+392137564
2858+391308857+390632333+390145503+389656111+389126472+388693363+388271588
2848+387577625+386685372+386091203+386032182+386162364+386049622+385603179
2838+384881846+383871587+382639458+381463717+380708909+380645853+381228864
2828+381893001+381861912+380901199+379528712+378403149+377817050+377696659
2818+377689851+377373976+376702856+376055948+375670000+375341352+374794203
2808+373999569+373067243+372132391+371400707+371044374+370952510+370739026
2798+370138716+369333169+368725034+368432564+368191324+367754321+367196154
2788+366715043+366285829+365736680+365111527+364657786+364413493+364092846
2778+363458465+362586528+361721469+361028664+360511586+360064547+359559330
2768+358916387+358157508+357400560+356756108+356251908+355870240+355537663
2758+355094905+354488490+353948604+353732874+353743506+353599921+353050561
2748+352209678+351399710+350799295+350321623+349858407+349426562+348955346
2738+348230890+347242738+346345537+345931903+346046505+346313395+346221355
2728+345590834+344727739+344046022+343664039+343387464+342909056+342074840
2718+341117776+340485185+340273420+340050181+339414186+338504493+337762808
2708+337368473+337094004+336665317+336114343+335705551+335562351+335471470
2698+335119488+334473527+333799565+333280031+332799341+332250052+331828838
2688+331754835+331865998+331803925+331473453+331055398+330695977+330393401
2678+330075561+329669191+329165412+328608262+328006514+327399643+326952288
2668+326747120+326579779+326223481+325773354+325492428+325428074+325340246
2658+324956753+324255071+323464927+322772964+322183988+321746002+321608978
2648+321698597+321656946+321286752+320792343+320468292+320357550+320270282
2638+320010972+319569056+319117209+318813089+318629572+318402578+318037087
2628+317648226+317451550+317470709+317458217+317208837+316820678+316513224
2618+316335111+316193420+316024113+315784593+315391802+314819248+314208622
2608+313771373+313579118+313518238+313447989+313330299+313170888+312926245
2598+312580369+312243159+312028482+311904512+311790296+311674290+311513159
2588+311182582+310645890+310031579+309516186+309248945+309293333+309494115
2578+309524116+309202557+308673549+308198930+307884704+307670518+307458649
2568+307164564+306754439+306329963+306035492+305800358+305415778+304953651
2558+304747816+304858734+304950458+304815258+304665567+304774063+305051305
2548+305117378+304766730+304269302+304071573+304245266+304443030+304377869
2538+304126208+303933426+303854580+303669414+303191566+302582098+302177166
2528+302087899+302206501+302473847+302834005+303047559+302892534+302495568
2518+302193834+302104356+302036914+301813500+301495028+301258947+301195049
2508+301270035+301390462+301458641+301442184+301388532+301306142+301097606
2498+300729869+300393607+300343745+300602389+300901105+300921703+300603617
2488+300211388+300038186+300074153+300090470+299998255+299917619+299903233
2478+299844703+299691678+299558900+299512372+299429876+299193760+298894202
2468+298729457+298793284+299019576+299259131+299381628+299335065+299119265
2458+298771915+298434881+298284207+298285190+298183150+297854292+297496590
2448+297367812+297480695+297645054+297689091+297554839+297274790+296956143
2438+296720167+296590336+296526088+296557001+296707956+296838875+296800908
2428+296692657+296730940+296950529+297202997+297358619+297405919+297407288
2418+297398480+297346934+297241771+297162048+297180996+297269036+297350478
2408+297392621+297395287+297349250+297280299+297299739+297497748+297795026
2398+298020300+298120059+298186378+298304840+298453759+298546887+298530289
2388+298361930+297880679+296855472+295206726+292958811+289967632+285998985
2378+281106855+275692015+270192523+264852318+259706229+254710655+249968638
2368+245853475+242847365+241157512+240463426+240278435+240666401+242287777
2358+245693081+250929614+257926056+266830747+277222510+287051106+293457256
2348+294769442+291651485+286893221+283397860+281767816+280820806+279763615
2338+278691896+277751167+276681905+275255187+273790871+272886793+272732241
2328+272965112+273113540+273033501+273035958+273611020+274934347+276710134
2318+278518485+280172968+281705568+283132461+284383205+285490697+286664140
2308+288010169+289319846+290303806+290947819+291475108+292006976+292421592
2298+292610320+292747888+293134767+293794921+294413460+294700842+294670946
2288+294536097+294464550+294477814+294483849+294380862+294167483+293927506
2278+293697162+293430044+293102063+292738765+292355150+291986203+291710207
2268+291534093+291373963+291232377+291235342+291425579+291677995+291863407
2258+291964166+292028134+292110682+292247566+292410311+292497245+292429575
2248+292257689+292121648+292111244+292219530+292399907+292566195+292577459
2238+292370326+292092804+291978167+292100015+292324622+292468542+292459278
2228+292374484+292330149+292342167+292356062+292368081+292390204+292347887
2218+292173896+291956534+291857460+291932814+292115612+292298516+292401802
2208+292438716+292498104+292607232+292684324+292664779+292573634+292456243
2198+292340448+292269181+292283498+292368414+292467542+292548124+292613549
2188+292657235+292659060+292639216+292642392+292653182+292619637+292560388
2178+292529474+292506245+292451295+292407205+292427662+292508754+292666323
2168+292929827+293201840+293303003+293216244+293138942+293245860+293510785
2158+293793132+294006879+294137078+294150552+294013914+293800957+293661915
2148+293662757+293761463+293924208+294133674+294310595+294363949+294301700
2138+294200923+294116182+294076321+294107936+294213047+294370931+294579678
2128+294851446+295168163+295478704+295726681+295864968+295892829+295897005
2118+295987114+296165298+296342956+296501911+296725325+297040183+297347390
2108+297548453+297656247+297750603+297878925+298028546+298178132+298347824
2098+298566010+298803495+298997856+299147652+299320082+299544443+299739716
2088+299795754+299712241+299589568+299487493+299395348+299345206+299427104
2078+299673397+300035976+300445434+300794749+300953774+300915808+300844716
2068+300891561+301044866+301212173+301364882+301545978+301773112+301996877
2058+302161236+302253240+302258223+302150253+301993123+301955752+302140252
2048+302460513+302751650+302945695+303101667+303300413+303545829+303773524
2038+303941006+304070872+304199720+304319375+304397098+304457416+304609283
2028+304924421+305300159+305532100+305537153+305450166+305510765+305844045
2018+306286803+306499971+306353262+306065915+305892328+305866221+305888187
2008+305888678+305900117+306046370+306389755+306791985+307035751+307029856
1998+306869497+306847286+307312220+308247108+309106412+309365758+309070270
1988+308600739+308221317+308052396+308138857+308383254+308629336+308853207
1978+309113956+309350354+309415620+309338669+309406216+309876203+310631889
1968+311205881+311231181+310854847+310575325+310683084+311030013+311353748
1958+311631165+311979708+312368709+312628792+312690865+312671636+312761149
1948+313166362+314110477+315600935+317066935+317586223+316884014+315746731
1938+315064418+314976379+315144913+315386328+315759504+316259282+316713901
1928+317058935+317566152+318490828+319568038+320400254+321230469+322435685
1918+323438400+323294252+322281186+321625646+321989979+323075786+324206402
1908+324901979+325154973+325311367+325642541+326154530+326820211+327775661
1898+329177974+330887390+332442973+333652751+334976955+336758619+338435753
1888+339272003+339464328+339684269+340166959+340799445+341470530+342083542
1878+342633112+343262301+344105359+345373700+347530295+350731502+353884776
1868+355068482+353780771+351645721+350319482+350070523+350267831+350391380
1858+350387205+350403627+350524194+350754871+351157733+351870715+353037122
1848+354890930+357581375+360298243+361148003+359494415+357190865+356070706
1838+356263347+356898290+357508705+358648304+360981328+363849852+365466737
1828+365259253+364462373+363758199+362615196+360995575+359821939+359663756
1818+360152271+360667664+361106176+361794911+362810153+363666510+363826869
1808+363346460+362838821+363039006+364336648+366328708+367891380+368182868
1798+367635087+367588593+369064349+371735460+373550635+372539990+369664237
1788+367526555+367308615+368374631+369691642+370878225+371776128+372104951
1778+372204605+373260972+376238097+380615957+383991979+384202691+381924406
1768+379002511+376585447+375709510+377001467+379390670+380847687+381068189
1758+381190967+381457015+381792189+383258856+386816150+391346192+394183171
1748+394190259+392660221+391217134+390734689+391430758+392771349+393817820
1738+394850536+397601616+402487605+406142974+405085555+401401869+398231436
1728+396243761+395395089+395691279+396806666+398816832+402789234+409353129
1718+416469506+419680678+417478572+413126538+409739639+408497579+409667460
1708+412981163+417209331+420745922+423857230+428526121+434909937+439644094
1698+440581648+439187651+436231720+432532630+430460565+431216286+434017613
1688+438258905+444792167+453193378+458330642+456511783+452157433+449999049
1678+451229108+454985920+459094328+461900077+464373530+467748183+470352940
1668+469940113+468345545+468875150+471795501+474507771+475189594+475359356
1658+477684100+483810991+494125276+505501192+509804066+507182922+506231227
1648+509329166+512428367+511021528+506988036+504721190+505887772+510405217
1638+517681111+525506505+529083870+526674421+523072950+522314492+524556740
1628+528001538+531397525+534928923+538350035+540332727+541118239+542985872
1618+546955642+550746877+551525581+550560482+550650451+552434397+554971501
1608+557387793+559546493+561600698+563532159+565179992+566474897+567636391
1598+569113550+571190282+573639206+575917141+577727649+579216562+580630946
1588+581997924+583201210+584300140+585600905+587370674+589824231+593432194
1578+598371870+602892789+604064915+602778397+602799732+605258306+607920610
1568+608620152+608336910+608959467+611423234+617003082+627401757+640488001
1558+646427304+642498834+637339358+634864993+634525539+635542851+637735237
1548+641429590+647355419+655748384+665732934+676076169+684762481+687709570
1538+685042284+682921691+684631107+688779376+692370216+694978622+698820842
1528+704970752+712275454+719457554+726733132+733925548+739210434+742119977
1518+744263519+746032376+746993264+748061315+750666774+755483427+762824482
1508+771770947+777182997+774302508+768142492+764863948+765745605+769706988
1498+774265593+776325622+775515057+775220376+778316385+784194703+789146520
1488+789928522+787341872+784290918+782675612+782864463+784320603+786727807
1478+790604976+796396693+803108104+807928265+807983215+804094888+800429870
1468+799752784+802006086+805240487+807289428+808435798+811160701+817094601
1458+824463727+827507663+823493505+816934313+811840594+809212117+808658406
1448+808974351+808965578+808561278+808317337+808279721+808428289+809527781
1438+812119835+814666905+814754769+812912645+811544088+811559528+811997093
1428+811662901+810677871+810113563+810816895+813027528+816386918+819220949
1418+818895038+815337955+811506543+809459918+808938209+808638896+807902369
1408+807236372+807352448+808156768+809082356+810120230+811662901+813602854
1398+815498665+817294540+818876160+819508612+818961357+818232971+818063349
1388+817785511+816593524+815710394+817465566+822250568+828040531+832868833
1378+836801093+840892167+845108720+848333507+850285741+852077406+854422782
1368+856806476+858753938+860479986+861631831+860963518+858379253+855707616
1358+854432116+854255827+854035255+853119913+851659000+850214299+849343942
1348+849272570+849922426+851273087+853388347+855966155+858084152+858677513
1338+857472122+855322334+853460210+852623398+852829723+853578882+854238914
1328+854526437+854637600+854878804+855481991+856825565+859264419+862500083
1318+865555178+867648261+868853371+869820716+871161131+873190211+875939256
1308+878984736+881367377+882320405+882213593+882154643+882629964+883220869
1298+883619134+884072910+884679817+884880809+883938167+881770975+879058704
1288+876466720+874068008+871678139+869388695+867403126+865598197+863654033
1278+861636814+860244466+860097090+860730103+860880988+860038351+859077673
1268+859046233+859978629+861101630+861727695+861838788+861901247+862198034
1258+862595667+863053162+863905274+865431382+867588468+870192594+872885706
1248+875054863+876344468+877111312+877815978+878392707+878764164+879409739
1238+880794367+882546100+883819775+884458192+885278653+887104986+889943158
1228+893136434+895953692+898146640+900131928+902350632+904559791+906381562
1218+908262846+910773563+913338458+915137633+916703462+918864408+920890681
1208+921658367+921873676+923225039+926050158+929317192+932355233+935421907
1198+938657360+941500234+943511699+944981314+946472824+948432848+951151435
1188+954454682+957526549+959718444+961358031+963154469+965152600+966651479
1178+966883560+965923584+965166285+966394765+970146665+975122132+979206749
1168+981172248+981471350+981555494+982576947+984521812+986327303+986912313
1158+986333548+985757801+986204840+987760635+989989303+992379453+994311406
1148+995483041+996389962+997511911+998345424+998215383+997566931+997389519
1138+998014321+999714262+1002838904+1006414023+1008506334+1008613848+1008303868
1128+1009395570+1012413470+1016084383+1018072058+1017487819+1016280252
1120+1016697535+1018789917+1021451308+1024107786+1026013492+1025490239
1111+1022039336+1018414390+1018119148+1020922651+1023113002+1022725194
1103+1022043547+1024262461+1029821956+1035987937+1039091384+1037622752
1094+1033743127+1031393260+1032706797+1036610563+1040319022+1041531572
1085+1040578965+1040472714+1043460998+1048421096+1052338127+1053903676
1077+1054164530+1054191549+1053975328+1053263364+1052069974+1050521197
1068+1049543817+1050577270+1053707877+1057184816+1059047783+1058622991
1060+1057023405+1056637141+1058809807+1062183442+1064785954+1066194442
1051+1066664991+1066523792+1066092122+1064696195+1061178271+1056969718
1043+1055926650+1059260004+1063410028+1064891503+1064648263+1065262117
1034+1067082275+1068850711+1069199569+1066855597+1061973608+1056925435
1025+1054754173+1057173517+1063363359+1070139334+1073741823+1072375301
1017+1067325514+1061434213+1057296400+1056153609+1056670756+1055800328
1008+1052973736+1051771994+1055092014+1060665545+1063716007+1062572093
1000+1058890302+1054614868+1051003887+1048933472+1048717321+1050018717
991+1051797399+1052426271+1050941428+1048013287+1045028933+1042781457
983+1041501956+1041456691+1042587202+1043880176+1043716870+1041000108
974+1036267529+1031311431+1027054174+1022873692+1018706193+1016054136
965+1015964096+1017370831+1018194028+1017248439+1014650630+1011061475
957+1007049282+1003104811+999855673+998000004+997823926+998455746+997863928
947+994698231+990310161+987429250+986548576+985274690+981708344+976849583
937+972984555+971291351+971423217+972215887+972519059+971795095+970274530
927+968572975+967105887+965876915+964812092+964363720+965241937+967239718
917+968891376+968752773+966758291+964071074+961954621+961205463+962237372
907+964617697+966518841+966000009+963065552+959256176+955840783+953795141
897+954067224+956295893+958619584+959618579+959537242+959295757+958941915
887+957856459+956310139+955444694+955358655+954778767+953403403+952736353
877+953669942+955135346+955737129+955046008+953392385+951601702+950336308
867+949413176+948641349+948578259+949396614+950131456+949800072+948357195
857+946374854+944434621+942880160+941897516+941678629+942229252+943080170
847+943595844+943537736+943199895+942917706+942308834+940583207+938077403
837+936374163+936493607+937952625+939499226+940309580+940631771+941170464
827+942117527+942793419+942495650+942101807+943508401+947337778+951710550
817+953646924+952263980+949695646+948147571+947923069+948407093+949332751
807+950881247+952723370+953263045+951159857+947716884+945660715+945628012
797+946174985+946784348+948415935+951178103+953456037+953929463+953193218
787+953086125+954692798+957060421+958028187+956552256+953497373+950210337
777+947887980+947735902+949527357+951208350+951481486+950923284+950159528
767+949606449+950351818+952526378+954050382+953196235+950836964+948755881
757+947802993+948422602+951164559+956028371+961498249+964467655+962669884
747+957739822+954068839+954333553+957238745+959424394+959050201+957503951
737+957381489+959507977+962364396+963779271+962886035+960566695+958248478
727+956597802+955296898+953925323+952562942+951815397+952565328+955066922
717+958554247+961488774+961616921+957794702+952490096+950079875+951898068
707+955139206+956637313+955475924+952099481+947301215+942424138+939281250
697+938985306+941079372+944096078+946298009+945981011+942013031+934666432
687+926316627+919725643+915781593+913773427+913256279+914107688+914594940
677+912450977+908342429+904875946+902084303+897745007+892222285+890266963
667+894787601+900240214+902051249+901765902+901886890+902206414+900600653
657+896390415+891262449+887208570+884493492+881652443+877693867+873749116
647+871446338+871200081+873389098+878239717+882889906+882932294+879420757
637+878954980+883910096+888164826+885885348+880350205+878837080+883193991
627+888531932+888946127+883302487+875186307+868802281+865429136+863954539
617+864550427+868338750+873748414+876917128+876196321+872962902+867074549
607+858512734+851706932+850597686+853136124+853466245+848750018
##END=
