##TITLE=<SNM>
##JCAMP-DX=4.24
##DATA TYPE=INFRARED SPECTRUM
##DATE=2/5/2025
##SAMPLING PROCEDURE=Instrument type and / or accessory
##ORIGIN=Admin
##XUNITS=1/CM
##YUNITS=ABSORBANCE
##RESOLUTION=4
##FIRSTX=4497.3318
##LASTX=599.83466
##DELTAX=-1.4281778
##MAXY=1.8450971
##MINY=0.37630513
##XFACTOR=1
##YFACTOR=1.7183806e-09
##NPOINTS=2730
##FIRSTY=0.39647937
##XYDATA=(X++(Y..Y))
4497+230728501+229699855+228461182+227316856+226276226+225521031+225593231
4487+226602626+227727909+228106061+227854011+227656923+227691887+227557199
4477+227184596+227234493+228263867+229972560+231672321+232882967+233121871
4467+232054567+230244312+228771678+227920176+227163854+226412110+226255674
4457+226938270+227906457+228471796+228389519+227792790+227079080+226825608
4447+227265901+227919812+228212028+228246802+228537873+229264955+230098472
4437+230510930+230219927+229542308+229098442+228955256+228627313+228011332
4427+227526692+227273515+226851311+226113684+225489813+225414890+225715136
4417+225699944+224899622+223633945+222727014+222793994+223810170+225175102
4407+226210373+226657344+226669050+226517956+226456353+226563291+226592861
4397+226313791+226008272+226122859+226448618+226291002+225551000+225069429
4387+225617476+226880395+227784968+227741766+227117304+226465770+225845974
4377+225138577+224536662+224241479+223968150+223266303+222233321+221500741
4367+221498695+221972461+222222117+221781494+221000735+220828378+221679932
4357+222749543+222961547+222304879+221589782+221304207+221401174+221790998
4347+222367280+222790993+222693247+221997071+220994821+220231891+220103117
4337+220401890+220553158+220400901+220390616+220849970+221489676+221854787
4327+222009645+222314210+222487434+221706640+220089173+218988240+219208101
4317+220017147+220436732+220353051+219976772+219463723+219238400+219600059
4307+220152025+220440860+220688262+221255508+221941382+222267504+222084880
4297+221700328+221586486+221909747+222317938+222392948+222171665+221900798
4287+221535289+220915510+220218190+219747771+219478829+219303021+219455953
4277+220129982+220894750+221110639+220837951+220853994+221719041+223064774
4267+223894215+223586581+222491232+221394548+220660599+220266924+220357855
4257+221148205+222428536+223629991+224283329+224269402+223883411+223649988
4247+223723072+223596882+222881594+222060061+221862210+222263463+222724378
4237+223003674+223161497+223150311+222896700+222503268+222077249+221655044
4227+221450428+221777661+222454759+222634886+221736540+220379725+219768462
4217+220239643+221206391+222360221+223854586+225304569+225772768+224953091
4207+223521283+222225846+221220110+220294795+219451808+219197938+220122542
4197+221982294+223490846+223579713+222730708+222378501+223108358+224139033
4187+224525285+224103219+223183090+222105137+221199784+220616807+220254524
4177+220216057+220961036+222539811+224083951+224617794+224158769+223497922
4167+223168868+223175355+223396446+223646536+223631101+223389128+223386873
4157+223754758+223991407+223779802+223442319+223287912+223164931+222951019
4147+222945608+223377872+223836774+223698635+223016959+222419206+222166393
4137+221960147+221650483+221479825+221662051+222259925+223260423+224289746
4127+224626760+223966728+222839797+222015697+221808012+222062594+222531451
4117+223112555+223766742+224263089+224309396+224055490+224010641+224285878
4107+224401037+224034054+223568457+223589408+224047963+224229339+223629366
4097+222666902+222196189+222447076+222908078+223112208+223036903+222859343
4087+222731783+222681314+222526023+222102604+221617097+221486398+221881495
4077+222670787+223627355+224449321+224813928+224592282+223897164+223050327
4067+222624238+223100015+224250498+225253580+225528436+225098740+224257106
4057+223337809+222644408+222277303+222180476+222337658+222700617+223166059
4047+223832109+224844852+225833799+226075599+225360415+224182096+223146842
4037+222642465+222838652+223552518+224295851+224738693+224938869+225043241
4027+225065319+225028638+225104775+225499109+226154042+226585213+226275861
4017+225376665+224660683+224636490+225070800+225407085+225306408+224803314
4007+224237074+224006842+224216280+224655983+225192688+225909936+226747251
3997+227380731+227715734+228093383+228633730+228849081+228345814+227451700
3987+226786742+226596382+226685249+226652054+226142839+225293851+224984222
3977+226165992+228698541+231151486+232080269+231342522+229945383+228930265
3967+228693408+229152918+230173499+231535778+232626929+232757558+231983754
3957+231159620+231072158+231859229+233292875+235235598+237360564+238628720
3947+238154781+236754278+236102726+236358557+236189980+235143523+234229516
3937+234342299+235753416+238457855+241703039+243752856+243457865+241787795
3927+240711056+240981542+241588625+241475322+241228822+242084591+243905546
3917+244943991+243591997+240173693+236626684+234624925+234579537+236497702
3907+240990040+248390808+256948407+263180638+264972249+262629643+257159232
3897+250399453+245494189+244934886+248204004+251330994+250959727+249372662
3887+250617857+254413447+257301793+258579055+259869463+259684879+255979335
3878+251841580+251522377+255007228+259806455+264542674+267847432+267546249
3868+264963179+263975012+264873237+264149156+260296541+256196577+255064530
3858+258257147+266362225+278459618+287107141+283244398+271611666+260870828
3848+254534589+253308334+256571711+262631759+269549674+275935757+280179688
3838+280376707+277151554+273585589+271087830+268666902+265760032+263495089
3828+262896001+264195792+268305034+276043216+284191583+286236301+282268094
3818+278321687+275437329+270519942+264073712+259930095+260523998+265757656
3808+272691769+277349927+280079114+284142207+288663283+289267955+286159072
3798+282964391+280079218+276490741+273379152+272476366+273770191+276488730
3788+280614206+286211813+292242342+297667175+302948198+308491209+312847107
3778+314956187+316760822+321193621+329790988+342453684+357235900+371138501
3768+383093142+393793934+402708925+409636482+416789953+425242850+431909773
3758+433763595+433188249+435195732+442570468+453530125+461932623+465183340
3748+468697744+476642865+486853536+493747136+496752203+500892039+509794959
3738+523763152+539463625+550848470+554673665+553881078+553197302+554966315
3728+559513337+566001555+572354460+576569705+577627332+575325673+571179767
3718+568096343+568071750+571062110+575486306+578368340+576586875+570308441
3708+563395660+559868249+561063581+564895852+567032438+564800291+559931101
3698+555857412+555018033+558790123+567632237+580543359+593580739+599367491
3688+593970199+583415299+575976739+574801282+578050126+582248028+586987386
3678+594873783+604485141+608041134+604347713+600924639+600203853+597766986
3668+591316056+583599345+576791630+570887047+565839360+563222262+564973099
3658+570058872+574039046+575231187+578112735+586431430+596765447+599005503
3648+588349179+572504861+559726867+552506867+549817621+549382895+549583002
3638+550236322+551299707+552048658+552811588+556011593+562804914+568159160
3628+564973169+556207746+549860667+549857858+556202890+565496311+571394268
3618+570539245+567140001+566416822+569073844+573013227+576702520+579461694
3608+580044081+577886024+575234864+575331535+579005115+583844440+586813676
3598+587332378+586916209+587155616+588766388+591892199+596604710+601829263
3588+604176500+601564882+597211516+595241183+596047297+597763656+599378383
3578+601087318+602920293+604588992+605943848+607064361+608693934+612167858
3568+617414472+621542446+622094100+620058695+617314853+614257375+610899164
3558+608254178+607350386+607774325+608162953+607925627+607938600+609410141
3548+612256378+614710450+614781349+612171882+608604998+606418845+606665466
3538+608102321+608511067+607135052+604817229+602075746+598856212+596130198
3528+595651177+597621580+599906936+600099099+597950616+595299733+593864752
3518+593851918+594489734+595044441+595112357+594569582+593619726+592662795
3508+592055781+592050023+592709760+593452746+593350767+592365947+591088096
3498+589345306+586540901+583432503+582111432+583711521+586828938+588253444
3488+585808599+580850542+576920421+576022664+577100895+577850228+577220424
3478+575765949+574386987+573467724+572713397+571586154+570282739+569749537
3468+570295191+570802065+569865009+567319746+564086859+561092302+558893905
3458+558022024+558826439+560668953+562066611+562312712+562333004+563170267
3448+564169621+563654248+561170277+557884319+555021952+553022309+551885111
3438+551613377+552184768+553098064+553393281+552578287+551109798+549747520
3428+548794854+548194639+548054921+548548407+549297219+549393127+548375980
3418+546770584+545318259+544134096+542861968+541171485+538985090+536982325
3408+536674551+538780682+541734309+543011085+542040348+540489063+539655719
3398+539319086+539214125+539692452+540316567+539652077+537392215+535037451
3388+533734591+533166738+533048804+533799802+535131244+535627226+534361342
3378+531973660+529976133+529546748+530597646+531808448+532008694+531262795
3368+530425531+530364032+531610839+533879338+535854735+536245826+535160484
3358+533840905+533118489+532700065+532133877+531785937+532195515+532956433
3348+533073396+532346679+531360264+530277628+528847815+527380853+526728989
3338+527409712+529141506+530880792+531274484+529836728+527754843+526772971
3328+527451752+529038730+530380023+530478567+529030127+527055493+526129744
3318+526395894+526183613+524226564+521555390+520437235+521899341+524766807
3308+526915429+527200032+526151285+525116239+525002606+525592069+525863664
3298+525192341+524103705+523603941+524046853+524792336+524848147+523947234
3288+522958737+522922108+523910952+525188734+525919440+525608128+524446130
3278+523185240+522567889+522972820+524175922+525151793+524792995+523214169
3268+521704577+521268740+521804370+522638823+523250208+523480214+523469566
3258+523483510+523669360+523848897+523649623+523009935+522327026+521960667
3248+521922130+522073884+522319222+522610901+522847948+522646940+521506378
3238+519609823+517905015+516941215+516344919+515680811+515024820+514577988
3228+514305629+513943363+513159066+511975042+510949119+510516508+510529169
3218+510737947+510995841+510868299+509898845+508247663+506420134+504811616
3208+503937620+504225449+505250505+506034940+506289678+506511602+506802518
3198+506475841+505032847+502965461+501302277+500616247+500621033+500525576
3188+499634167+497831231+495778379+494448601+494120675+493998648+493193331
3178+491835978+490682373+489880040+488846901+487280423+485615332+484450350
3168+484054265+484373381+484996455+485203915+484567833+483498170+482779951
3158+482546442+482073040+480752698+478975915+477626020+476808354+475596997
3148+473313618+470651913+469034134+469063895+470005426+470708244+470658677
3138+470045315+469254844+468566802+468040885+467477194+466646556+465564163
3128+464376566+463171279+462070398+461226891+460600349+460064407+459801899
3118+460167079+461024738+461618433+461324568+460331910+459387291+458972337
3108+458860542+458482390+457662678+456817922+456345006+456016490+455264625
3098+454009354+452774861+452027575+451811478+452006485+452486685+452837331
3088+452450889+451351569+450450344+450430052+450740913+450230050+448566935
3078+446565904+445181392+444544617+444052276+443225176+442249618+441674827
3068+441821933+442497349+443131939+443285253+442978798+442311013+441105101
3058+439445524+438086645+437685981+438040616+438478984+438477424+437714181
3048+436212012+434574670+433522766+433169900+433106875+433098793+433355230
3038+434041711+434770440+434847861+433973275+432462815+430851557+429508842
3028+428554061+427904486+427385610+426847622+426198984+425448021+424719257
3018+424076690+423454101+422908621+422648923+422628493+422468935+422003129
3008+421525982+421249079+420902110+420166617+419144960+418147930+417398181
2998+417116492+417408865+417870404+417811090+417087078+416233269+415644361
2988+415104708+414237129+413051891+411916774+411152734+410717731+410255116
2978+409481295+408509621+407713531+407259103+406863919+406173796+405343921
2968+404908952+404945338+404800349+403985979+402876808+402107287+401774852
2958+401622474+401514113+401341617+400882610+400084092+399172391+398319588
2948+397482672+396618249+395811441+395161034+394689470+394379546+394219919
2938+394189950+394163761+393837084+392963365+391736364+390660908+389984972
2928+389574180+389327177+389266233+389156623+388530601+387299507+385993386
2918+385180958+384895176+384829341+384872560+385099618+385333509+385191711
2908+384660313+384184518+384032869+383979868+383769113+383473306+383164180
2898+382618144+381673630+380601331+379785504+379249320+378771583+378269010
2888+377817114+377464144+377180442+376873848+376463472+376007656+375600610
2878+375136123+374456267+373696702+373156563+372898253+372744765+372540496
2868+372253361+371978089+371871150+371945934+371983326+371742151+371157128
2858+370317922+369398452+368569513+367872071+367260513+366764496+366438235
2848+366219536+366016377+365790395+365419977+364753718+363944031+363377600
2838+363110271+362738154+362011437+361227209+360791859+360678295+360516586
2828+360042560+359327255+358673206+358333174+358287735+358307679+358169904
2818+357727304+356958998+356095199+355428420+354924599+354382865+353918204
2808+353772798+353761733+353452260+352781423+352054636+351494379+351091044
2798+350748619+350391487+349972335+349468964+348966148+348687546+348721296
2788+348759416+348407764+347705744+347050342+346675415+346411555+345916786
2778+345066793+344101780+343360251+342943562+342729546+342556287+342253820
2768+341698281+340994318+340417412+340045087+339610222+338831475+337775617
2758+336796243+336206954+336084406+336237200+336244172+335726025+334770481
2748+333901791+333467412+333287597+333041288+332696470+332386233+332120951
2738+331785601+331278935+330611636+329942880+329462264+329197848+329002945
2728+328687540+328112542+327293836+326481789+325967076+325750771+325561799
2718+325230126+324877677+324638097+324355159+323825045+323235929+322944284
2708+322865199+322591973+322059639+321538752+321079606+320497254+319789753
2698+319141289+318637745+318263408+318036801+317961982+317937944+317809569
2688+317464889+316902933+316285825+315866534+315730806+315668370+315425183
2678+314974189+314422777+313858948+313399455+313134520+312973401+312778393
2668+312570656+312402669+312224623+312039432+311927498+311820629+311525828
2658+311012017+310433307+309876207+309299578+308717607+308263318+308008095
2648+307824811+307535491+307151025+306847276+306707524+306607939+306389726
2638+306022153+305532205+304939135+304360252+303981163+303800620+303632980
2628+303423091+303266239+303129713+302899949+302635256+302452736+302294253
2618+302037469+301681100+301310162+301037734+300948035+300964580+300891045
2608+300640781+300264225+299804559+299320092+298935939+298702013+298530280
2598+298363195+298250811+298203776+298120216+297908316+297597317+297296203
2588+297063803+296835427+296518531+296157410+295905690+295799445+295679707
2578+295421813+295111160+294878622+294696656+294493463+294367655+294486491
2568+294789269+294972692+294806300+294336541+293772746+293284949+292892541
2558+292473528+291970955+291606781+291653122+291949310+291972550+291488951
2548+290835769+290478949+290544021+290822692+291037471+291045622+290869501
2538+290570573+290155792+289674204+289308105+289207254+289274355+289275430
2528+289158866+289126799+289354828+289729373+289933781+289795780+289481728
2518+289272083+289215128+289139424+288954389+288753155+288611322+288471258
2508+288305318+288241425+288359602+288462742+288283864+287874112+287527126
2498+287380644+287348351+287360214+287451995+287667883+287951203+288105246
2488+287980340+287736702+287670069+287755328+287683388+287360162+287030727
2478+286883552+286826857+286706564+286521633+286331724+286125166+285899114
2468+285739174+285700117+285721189+285740770+285769074+285800257+285783209
2458+285713333+285637317+285537923+285332440+285035454+284793828+284675616
2448+284580280+284458895+284429602+284561705+284742786+284835972+284794747
2438+284615279+284342938+284120892+284091547+284215673+284278698+284148277
2428+283952749+283891544+283969953+284063763+284116400+284143490+284174847
2418+284252857+284373514+284477955+284581997+284768281+284991628+285088819
2408+285018752+284917364+284894609+284923364+284949622+285014087+285216292
2398+285571274+285934529+286120587+286103747+286027315+286009139+286034790
2388+286027280+285870896+285396957+284483002+283088361+281126057+278486170
2378+275252884+271710540+268120467+264624812+261274163+258058011+255044620
2368+252454855+250447372+248999644+248112172+247906654+248552621+250326646
2358+253529409+258133316+263906454+270938938+279125217+287039711+292504919
2348+294330783+293188139+291144479+289874363+289191177+288129075+286500127
2338+284646566+282721082+280688383+278646335+276930896+275878871+275526283
2328+275630845+275903984+276130418+276229777+276323847+276649276+277332531
2318+278253389+279137063+279798431+280282828+280748460+281296368+281953244
2308+282680430+283348319+283823056+284100565+284257678+284293943+284152162
2298+283901326+283754030+283833653+284027290+284152283+284179998+284207903
2288+284280693+284326808+284252666+284039240+283736860+283411518+283118295
2278+282872160+282622018+282317210+282010564+281815764+281753502+281701316
2268+281516003+281203686+280954272+280935646+281066848+281125901+281055800
2258+280969118+280873453+280647886+280327053+280160159+280277469+280485155
2248+280531392+280446722+280459972+280660755+280907619+281037711+281027617
2238+280938889+280822602+280722688+280681498+280670363+280592440+280435102
2228+280329152+280362156+280436906+280423725+280345645+280298506+280289419
2218+280266942+280233330+280235065+280297761+280425563+280609350+280802814
2208+280943728+281009684+281020402+281011817+281024912+281062061+281053927
2198+280954463+280859405+280913672+281090816+281196055+281128225+281001203
2188+280933218+280870366+280729105+280564569+280482622+280515575+280654355
2178+280858919+281011384+281002955+280862041+280712178+280665403+280772394
2168+280961869+281065651+281033913+281031606+281187071+281377171+281421431
2158+281362672+281375887+281484664+281562362+281578231+281648159+281832119
2148+282052066+282234621+282406979+282611473+282786883+282788791+282582545
2138+282369656+282376073+282549540+282663988+282674776+282749682+282996147
2128+283333837+283594229+283669377+283617746+283622308+283793347+284063798
2118+284306413+284474798+284600207+284713251+284813512+284916653+285088212
2108+285376093+285738827+286096601+286411330+286666987+286829822+286872313
2098+286810589+286720612+286725537+286918568+287274469+287674699+288028675
2088+288311388+288480832+288485323+288411580+288459031+288673082+288887791
2078+289009073+289125463+289275690+289364263+289357707+289362303+289515548
2068+289916819+290546136+291168586+291487875+291463456+291337128+291339556
2058+291466092+291544310+291476047+291368658+291406778+291671402+292110776
2048+292576477+292908254+293135138+293479957+293983293+294333141+294283124
2038+293988774+293738788+293609650+293529489+293470592+293471528+293572778
2028+293771844+294010522+294217982+294397069+294675532+295229268+296062507
2018+296848157+297124609+296758701+296113982+295667740+295567878+295638916
2008+295708011+295775130+295894972+296060322+296249156+296458558+296625019
1998+296686345+296877363+297688230+299170073+300521980+300869608+300260478
1988+299362895+298618106+298164684+298071239+298246718+298450987+298559139
1978+298616060+298671870+298712939+298713043+298790810+299301084+300444976
1968+301720642+302236015+301769412+301004539+300578901+300493607+300551464
1958+300807901+301309468+301766533+301830876+301559801+301384287+301677180
1948+302557246+304101005+306299506+308428114+309045256+307558141+305207470
1938+303604086+303174424+303409598+303770963+304038049+304227298+304428688
1928+304815096+305837794+307808231+310034898+311396448+312011544+312745823
1918+313174236+312093473+309950089+308579763+308918893+310299209+311387672
1908+311378896+310532025+309662850+309234333+309146853+309230586+309626394
1898+310612706+312036206+313189082+313821903+314757086+316437405+317632980
1888+317031689+315308949+313985484+313529565+313600949+313925164+314343206
1878+314727602+315087267+315567363+316708342+319556799+324477463+329433092
1868+330826484+327778094+323325247+320419002+319541224+319671854+319883997
1858+319901513+319836580+319848131+320046607+320674398+322111114+324566296
1848+328127110+332758454+337090385+338026470+334563610+329991927+327533242
1838+327371152+327890895+328296311+329784918+333771786+339147400+342488440
1828+342447336+341129283+339759686+337464201+334372661+332210164+331814565
1818+332380510+332952976+333718612+335535145+338361542+340646378+340920158
1808+339656147+338658181+339399987+342313897+346463550+349692172+350370224
1798+349341005+349219221+352032957+357315229+361169387+359543976+354138567
1788+349977260+349291369+350907136+353018436+355028173+356654832+357361917
1778+357740797+359799234+365094514+372736197+378624269+378886152+374644858
1768+369274898+364893262+363168510+364957086+368397052+370230131+370177754
1758+370178205+370450217+370821154+373310363+379748910+388014569+392785735
1748+391799077+388063582+385164100+384517162+385777254+387480466+388122965
1738+388661300+392341262+400058944+406256038+404564862+397851737+391223177
1728+386237856+383597865+383657630+385535836+388842641+395248513+406188365
1718+418609643+424388348+419962903+411061717+403645218+400106083+401004360
1708+405829047+412403704+417808558+422171255+428700819+437981961+444845314
1698+445462665+441515512+434079658+425420862+420306993+420639082+424644092
1688+430879098+440717271+453825169+461473755+456578238+446689978+440342691
1678+439956318+444310170+449736842+453361896+456641402+461082457+463135621
1668+459196377+453519789+452152273+455315233+458257274+457518659+455601674
1658+457226772+465444703+481083815+498527043+503105976+496200583+493318896
1648+497214539+499633785+493454971+483747740+477962514+478098381+483947222
1638+494718601+506275769+509674354+502521230+494177457+491406316+494007944
1628+498601133+502798168+506832800+510348383+511309997+510603953+512335296
1618+517824299+522298653+520540428+515642274+513197326+514338686+516957691
1608+518845748+519711558+520610945+522170278+523981816+525446905+526648863
1598+528097823+529927814+531746429+533222098+534458811+535653553+536772991
1588+537807864+538980893+540396692+541771562+543020346+545182565+550083112
1578+558143947+565591907+566696464+563427260+562870298+566882211+571066897
1568+571149659+569086262+568653304+571506618+579569118+595636540+616148831
1558+623609832+613523408+601845011+595427796+593397594+593876199+595373130
1548+598045380+604116839+615307474+630694970+647505863+660091937+659130218
1538+647203258+638511925+638749944+644079181+647608188+648158247+650634379
1528+657731449+667471980+677208487+687274931+697851268+705586987+708513419
1518+708997158+708180568+705813143+704366576+707803040+718107711+734646453
1508+752835025+760144307+749169978+734004267+726503099+727428604+733584074
1498+740059493+741883033+739127119+737740352+742497748+752284897+760076808
1488+759485957+752794372+746572928+744336966+745705904+748593973+752017602
1478+756904586+764061942+772505405+779198446+779949618+774349756+768193315
1468+766720733+770249393+774910499+776676251+776895470+780442791+789618000
1458+800466765+803070890+794762011+784520330+778331977+776862448+778482794
1448+779994572+778823693+775723134+773198233+772539051+773971604+777809043
1438+783443106+787464661+786599024+783171510+781342629+781621994+781827407
1428+781052094+780888304+782477849+785146144+788449064+792915509+797012820
1418+796357245+790090431+782713024+777812581+775731529+775086082+774799571
1408+775205542+776863905+778742666+779293557+779179577+780466794+783794827
1398+788066403+791769536+793295535+791731658+788870436+787827135+789338357
1388+791076083+790579302+788731898+788583301+791471370+796362517+801891618
1378+807704524+813787430+819209003+822405782+823257891+823664001+825161071
1368+827611119+830598530+834290841+837965393+839502630+838090195+835688153
1358+834300137+833885633+833365960+832369277+831492263+831246197+831456744
1348+831690046+831742214+831792094+832460850+834408984+837401667+839994138
1338+840678989+839349454+837228790+835638274+835160571+835600188+836466866
1328+837613741+839293817+841564258+844074383+846639659+849435601+852256587
1318+854383009+855760342+857405523+859973020+862662613+864140675+864160168
1308+863785138+864325415+866551596+870465901+874955377+878089582+878851853
1298+878345430+878425625+879498687+880363422+879985131+878543837+876492406
1288+873666912+870113139+866777960+864494547+863108334+862040891+860854057
1278+859208182+857219326+855677510+855161930+855362210+855730997+856179910
1268+856718036+857074406+857177078+857613018+859120217+861617855+864066515
1258+865401322+865419081+864736381+864170019+864219760+864977036+866388084
1248+868351688+870538812+872543970+874290783+875995487+877825132+879697857
1238+881346646+882425536+882806671+883085551+884448385+887531670+891407750
1228+894293946+895426946+895612380+895924767+896767650+898185149+900252327
1218+902936925+905822566+908228423+909906557+911320658+912871284+914409215
1208+915951655+918153486+921361088+924736641+927121548+928596974+930454437
1198+933558256+937452443+941032924+943553594+945259685+947123739+949591823
1188+952002398+953519031+953898502+953292390+952348986+952529286+955257936
1178+960408052+965920226+969270250+969616769+968501875+968269128+969700780
1168+971625188+972777335+973280429+974110408+975728118+977268269+977263829
1158+975680736+974492237+975660687+979066141+983196889+987267699+991334000
1148+994788153+996536770+996674823+996306174+995700687+994282840+992718201
1138+993318694+997322698+1002554050+1005218529+1004290596+1002534348+1002885098
1128+1005557694+1008621277+1009993823+1009149761+1007645407+1007460250
1120+1009398810+1013281620+1017821045+1020391524+1019365081+1016978232
1111+1017386631+1021405134+1025329220+1025863947+1024042489+1022623741
1103+1022464113+1022938625+1023240398+1022452112+1020895866+1021275406
1094+1025378544+1030740456+1033387038+1032922863+1032394795+1033998977
1085+1036510073+1037041818+1035358758+1034566033+1036802689+1040732949
1077+1044059664+1046166246+1047650552+1049480266+1052177282+1054840374
1068+1055612496+1053408237+1049062085+1044825890+1042454233+1041795189
1060+1042198177+1044175448+1047622317+1050513508+1052122477+1054859590
1051+1059910156+1063863171+1062851088+1058426059+1055682008+1056617365
1043+1058910005+1060531877+1062556738+1066759842+1072028794+1073741823
1034+1068062321+1057294792+1048115976+1045148335+1047943861+1053080657
1025+1057394065+1059415804+1059530616+1058951629+1058461855+1058014330
1017+1056555137+1053532345+1050591622+1049856753+1050753261+1050504628
1008+1048446816+1047155228+1048322152+1050550553+1052040131+1053352530
1000+1055153038+1055689361+1053820313+1051958895+1052316791+1052628415
991+1049385363+1043732224+1040040745+1040039774+1041498134+1041628972
983+1039841575+1037332005+1035785194+1036266297+1037677969+1036956211
974+1032487755+1026346229+1021491919+1018782139+1017428046+1016573995
965+1015845439+1015145465+1014400052+1013459700+1012225415+1010848360
957+1009834751+1009448898+1008756347+1005737856+999765392+993464585+990011403
947+989594679+989801827+988754710+986824336+985229935+983916704+981498082
937+977131743+971635594+966572333+963014606+961290616+961226793+962365551
927+964140461+965940136+967034427+966452456+963645345+959922510+958181524
917+960076657+963941776+966342847+965605966+962850469+960087410+958745805
907+959336794+961280418+963286340+964423156+964572655+963998870+963232784
897+963123938+963985551+964820455+964184166+961902278+959245360+956845816
887+954088792+950676887+947282395+944877231+943720158+943109537+942123260
877+940689389+940088688+941700432+944619164+945855461+944253915+942035781
867+941077115+940496393+939013059+937258961+936449378+936515907+936750596
857+937335202+939093948+942369951+946389286+949397856+949902407+947807479
847+944198347+940239643+936622741+934090209+933608343+935357030+937914536
837+939257668+938771710+937386261+935891827+934426945+933263213+932848015
827+933225335+934174983+935835010+938414439+941348086+943422756+943791821
817+942989244+942288992+942015455+941501608+940665941+940438744+941196090
807+942121318+942848139+944116417+946137740+947893502+948462153+947863810
797+946596226+945539050+945698331+947224746+949301081+951358616+953717022
787+956425970+958383747+958291481+956113791+953535542+952659014+953567523
777+953806583+951413629+947564257+944812159+944301782+945860664+948681718
767+951073493+951602532+950936134+950667869+950893678+950713100+950316564
757+950982892+953065817+955025259+955087903+953967181+954626780+958318467
747+962020351+961939601+958908831+956625210+956227078+955795994+954078941
737+952648955+953961423+957837157+960832546+960192441+957632437+957115746
727+959431210+961396063+959739574+953939918+946219253+940419250+939783862
717+944041147+949717042+953635301+954445578+951969723+947347189+943074989
707+941784373+944157833+948381125+952176247+954068188+953543312+951423480
697+948719249+945350911+941277187+937661741+935644789+935087030+935054771
687+934318238+931139426+924573823+916908448+912280225+911619447+910992662
677+907257409+903051321+902372229+903680674+900241227+887961436+874591932
667+874651870+886501480+896291751+897919173+895098604+893065973+891535049
657+887500521+881792923+877942303+877407853+878358264+878502352+877894158
647+878139461+881012893+887080051+892708355+891834047+883239351+872803564
637+867067385+867358196+870328056+872716015+873792199+872991565+869202340
627+864013861+861986642+864518480+866576223+862810585+854797860+848393132
617+846110621+846793251+849194946+852569251+854949648+853735481+848067495
607+841362799+838210418+838714067+840426679+843918363+850456425
##END=
