##TITLE=<SNM>
##JCAMP-DX=4.24
##DATA TYPE=INFRARED SPECTRUM
##DATE=2/5/2025
##SAMPLING PROCEDURE=Instrument type and / or accessory
##ORIGIN=Admin
##XUNITS=1/CM
##YUNITS=ABSORBANCE
##RESOLUTION=4
##FIRSTX=4497.3318
##LASTX=599.83466
##DELTAX=-1.4281778
##MAXY=1.7688022
##MINY=0.22946779
##XFACTOR=1
##YFACTOR=1.6473254e-09
##NPOINTS=2730
##FIRSTY=0.2482942
##XYDATA=(X++(Y..Y))
4497+150725659+150470625+150949765+151501985+151704545+151440303+150849829
4487+150204095+149743661+149741698+150345994+151166364+151504943+151030263
4477+149909160+148633061+147983518+148580189+150130653+151566589+152059226
4467+151604735+150771783+150222285+150322095+150922773+151488589+151508770
4457+150899489+150093412+149628274+149557022+149524014+149486502+149844375
4447+150669413+151436531+151739326+151640266+151218205+150498685+149843570
4437+149636090+149651748+149427171+148996217+148688873+148578995+148577285
4427+148672554+148834888+149057999+149433232+149774308+149568157+148766828
4417+148061456+148003464+148450121+149006755+149446502+149614751+149329604
4407+148568538+147642804+146950720+146521186+146151689+145962019+146252783
4397+146912439+147515812+147799602+147677910+147233488+146912167+147154772
4387+147743093+147960054+147324116+145934294+144329990+143146347+142643371
4377+142561761+142573629+142679518+143005315+143391710+143467052+143134741
4367+142688753+142383308+142203471+142051468+141811549+141308348+140496680
4357+139655948+139297188+139864152+141330673+143021887+144124527+144392749
4347+144103623+143539091+142837156+142070111+141237828+140412890+139928648
4337+140108756+140776734+141338967+141437484+141254454+141112283+141105200
4327+141219628+141479646+141818334+142009351+141858668+141369162+140742396
4317+140294554+140263546+140626033+141152030+141607018+141871377+141962820
4307+141958189+141868628+141687072+141554888+141656624+141908682+141991386
4297+141727931+141256308+140897855+141001066+141661174+142458668+142821109
4287+142728147+142680956+142907369+143012127+142554443+141688447+141045761
4277+141089714+141710202+142401110+142726229+142664511+142626184+143048780
4267+143842248+144419850+144408272+144025459+143648218+143424003+143378060
4257+143457337+143453058+143248653+143081417+143300141+143962429+144751609
4247+145226073+145201351+144937163+144850478+145002771+145074359+144909664
4237+144761677+144905069+145257362+145444317+145159424+144532541+144125124
4227+144387159+145224327+146212421+146958924+147241122+147147165+146984632
4217+146793271+146333471+145711490+145361260+145316502+145232585+145059840
4207+145070460+145404842+145957397+146474456+146693742+146638653+146633389
4197+146856102+147112873+147129544+146883176+146684804+146928106+147505174
4187+147676526+147041502+146336374+146500399+147241837+147432565+146809779
4177+146354574+146910738+148278489+149801571+151123379+152072595+152324734
4167+151706137+150654696+149860685+149513042+149334978+149183019+149096778
4157+148957068+148616353+148242966+148174816+148519510+149106185+149726637
4147+150227179+150367821+149894145+149007162+148437955+148617131+149078442
4137+149187832+149083363+149272942+149697021+149904466+149864873+149888211
4127+149950282+149774724+149373024+148939311+148462070+147887019+147414917
4117+147328431+147754989+148623617+149544276+149912987+149515484+148827425
4107+148438696+148440822+148634472+149043200+149785343+150600186+151054170
4097+151116993+151011004+150741941+150337382+150087306+150024420+149784348
4087+149310618+148996326+149058940+149432436+150036695+150628734+150850751
4077+150787902+150903524+151254821+151374496+150982728+150372073+150048708
4067+150194814+150482638+150405234+149813023+149033630+148483382+148328348
4057+148513875+148940749+149533186+150161037+150554261+150473493+150089142
4047+149950092+150298278+150644564+150400729+149683525+149033187+148655404
4037+148413513+148286865+148459592+149115177+150206844+151238340+151493392
4027+150826437+149982810+149824403+150454614+151315210+151908145+152163558
4017+152201080+152028814+151638557+151238006+151131040+151355328+151604572
4007+151551881+151163243+150671638+150363678+150444384+150951303+151677164
3997+152292333+152619225+152672540+152495896+152195055+152014070+152121731
3987+152450523+152881785+153388324+153902715+154254085+154410611+154704885
3977+155545083+156783110+157625569+157437853+156493938+155708574+155712319
3967+156317692+156924656+157331295+157819960+158489430+159001542+159030868
3957+158567241+157854352+157347306+157564456+158707992+160360093+161622181
3947+161908476+161631028+161550250+161614655+161165682+160114015+159067033
3937+158635970+159323043+161431516+164357519+166393609+166264183+164805895
3927+163999781+164563326+165317446+165139445+164781074+165657328+167551527
3917+168520734+167179985+164400160+162100679+161254022+161744677+163539682
3907+167120501+172533339+178483255+182972783+184772257+183454646+179079419
3897+173310398+169263510+169040878+171843263+174309456+174179578+173597743
3887+175354448+178385254+179886148+180272814+181325947+181365929+178286222
3878+174773011+174632387+177892826+182255408+186217429+188509511+187741516
3868+185462930+184708955+185400623+184883337+182297253+179746772+179526311
3858+183011101+191009372+201863923+207563834+201557401+190628839+182318058
3848+178526656+178919527+182411518+187551104+193247561+198747834+202371258
3838+201967170+198191073+194171214+191371633+189058981+186769360+185245689
3828+184954816+185773739+188603984+194778902+202356387+205880290+204302617
3818+201941987+199895006+195980565+190798590+187493176+187981950+192054618
3808+197253833+200708356+203128815+206818923+210215952+209743823+206901619
3798+205379974+204819957+203235246+201197347+200732925+202543596+206076292
3788+210688190+215686610+220261205+224703913+230649107+238630354+246618820
3778+252906791+258973758+267296389+278844688+293122553+308176194+321125468
3768+330634204+337039044+340517249+342336984+345036212+349224683+352926569
3758+355376715+359220510+367736067+382026958+399522767+413910954+421764911
3748+427563872+436186675+447214974+456145294+461959850+469190343+481039881
3738+496983525+514175905+529153725+538734066+542117400+542781533+545454456
3728+551841748+559715461+565616711+568413523+568847317+567534248+565360320
3718+563547640+562994588+564646183+568682976+572135129+570577392+564110028
3708+556447622+550760646+549278965+552508667+557676277+560653931+560421457
3698+559032259+558843422+561625219+568094139+577127723+585530354+589294511
3688+587637127+583876372+580833264+579441750+579900257+582491842+588116186
3678+596810811+603997776+603155914+596953154+592462340+589520074+583645128
3668+575258562+568619656+565114206+563490870+562606746+562613838+563819119
3658+565054287+564897363+564758277+567685238+574515515+582788178+587121741
3648+583544685+575037522+567495496+564012986+563773999+563819987+562480649
3638+561284197+562876958+567883230+574813371+582547129+590453659+595397841
3628+593955780+589477125+587664915+590113469+595240591+600426582+603913434
3618+606566783+610484571+614815348+616080801+613753676+611601313+612626223
3608+615859291+618532105+619642117+620230665+621434245+623192434+624847791
3598+626627617+629041581+631204220+632200763+633468532+636909143+641293036
3588+642768059+640303584+637452027+637056261+638600321+639944146+639917660
3578+639376729+639554603+640018248+639328099+637443199+636482766+638697363
3568+643248710+645642990+643208257+638610959+635296408+633727672+632537045
3558+631240475+630972361+632660934+635083799+636043002+635685083+636267913
3548+638398639+639766272+638307531+634754536+631077363+628423364+626917803
3538+626151526+625533887+624480754+622764465+620919221+619859213+620047218
3528+621166711+622233955+622291702+621582377+621463626+622161951+621851287
3518+619210747+615567586+613292491+613050429+613500180+613246539+612457829
3508+612157730+612370629+611937595+610119270+607662177+606047380+606026431
3498+606976696+607344276+605859592+602842970+600053828+598739637+598486250
3488+598578118+599421970+601412415+603429274+604065185+603677234+603416284
3478+602769772+600180468+595937759+592452643+591414816+592263263+593471982
3468+594170959+594497942+594997625+595675652+595803883+594895843+593180892
3458+591031786+588961956+587602500+586566771+584543761+581413272+578708834
3448+577532680+577532463+578020712+578648481+579065776+578866880+577548094
3438+574808450+571569232+569698081+570199428+572349764+574447709+575108440
3428+574100282+572192044+570299401+569192898+569426276+570267560+569947379
3418+568249471+567026424+567107763+566819025+564721515+561894635+560278644
3408+560424424+561331090+561250221+559091490+555939762+554202414+554866765
3398+556676839+557895291+557742166+556148717+553331606+549928878+546959221
3388+545540679+546351099+548690816+550488878+550189936+548386917+547021817
3378+547342577+548868690+550013039+549620276+547938867+546310972+546215450
3368+548042965+550195110+550249927+547981816+545884342+545915568+547379266
3358+548475022+548540259+548026429+547281030+546337205+545409807+544783810
3348+544381676+544080600+544228008+545078337+545936988+545716997+544190233
3338+542177933+540884439+541040603+542105821+542626671+541943180+540807804
3328+540019239+539621048+539761075+541147487+543858366+546396508+547015449
3318+545598029+543197634+540457121+537731951+535927484+535606291+535903423
3308+535749719+535286617+535277101+536134124+537711905+539326087+540086828
3298+539652998+538527282+537589282+537330866+537283828+536639885+535700040
3288+535692984+536912775+538189010+538512592+538144831+537806994+537623041
3278+537424977+537628070+539008620+541455691+543544915+543882355+542666002
3268+541444619+541254045+541382023+540383345+537978572+535171447+532860134
3258+531378272+531076002+532139484+533780368+534621869+534140458+533005625
3248+532049389+531698344+532127797+533020025+533422594+532643400+531037974
3238+529455887+528395047+527982021+528141659+528483441+528469185+527870941
3228+526815673+525373612+523453759+521337507+519931991+519952108+521012767
3218+522015027+522258464+521770758+520936168+520198006+519682728+518965985
3208+517639058+516029255+514925574+514574385+514340392+513425911+511592860
3198+509229299+507114060+506038638+506193645+506943893+507458772+507365674
3188+506654612+505296097+503251088+500843927+498844834+497831936+497610607
3178+497593890+497469205+497150001+496593874+496017701+495656670+495184160
3168+494122343+492724426+491634748+490924844+490192289+489272634+488238895
3158+486982452+485403078+483825223+482617771+481614534+480522324+479587617
3148+479148395+478828794+477877623+476122257+474138107+472642858+471960200
3138+471914067+472067300+472026305+471596745+470822001+469952857+469315752
3128+469126264+469216793+468905730+467633222+465839646+464554618+464111815
3118+463899603+463228668+462007141+460750227+460085515+460027225+459853982
3108+458965661+457626902+456657206+456578219+457085718+457310521+456786523
3098+455998356+455678826+455875371+455986415+455414403+453971149+451964059
3088+450085165+448981883+448738953+448880246+448950911+448879812+448636881
3078+448014792+447067602+446326509+446236088+446575373+446643903+446030896
3068+445140621+444743770+444971178+445079798+444339609+442856192+441388695
3058+440572196+440343775+440052830+439204564+437984882+436912138+436195214
3048+435668430+435167481+434601837+433725746+432326526+430694000+429412735
3038+428704133+428424586+428452627+428539466+428191388+427252882+426147718
3028+425214676+424352804+423441652+422614154+422053033+421723518+421303871
3018+420523157+419694791+419462390+419824108+419976871+419346714+418278456
3008+417484536+417161931+416840991+416013384+414684322+413199059+411840219
2998+410820265+410310488+410235336+410372903+410681939+411074485+411046624
2988+410145133+408569124+406827507+405274438+404275072+404092277+404273661
2978+403849274+402459244+400704240+399279438+398400453+398059829+398153180
2968+398256265+397864696+397048161+396422961+396354575+396536068+396414856
2958+395778439+394833492+393868644+393042087+392502604+392377810+392437185
2948+392153983+391365889+390432810+389599776+388812260+388196105+388016349
2938+388130361+388010488+387287268+386001481+384483581+383143375+382255235
2928+381831282+381654675+381418728+380905223+380082791+379070761+378094082
2918+377391921+376963844+376544016+376009309+375523520+375148884+374698591
2908+374079686+373482853+373136223+373008426+372859751+372574776+372271565
2898+371992778+371545452+370813114+369992201+369380461+369065455+368849770
2888+368436527+367721340+366855236+365998466+365188806+364469495+363916008
2878+363490645+363034670+362441564+361760136+361085075+360404696+359677859
2868+359009528+358553229+358310768+358205187+358168534+358025577+357601697
2858+357024004+356543281+356110283+355563020+355064784+354847869+354690800
2848+354134455+353170259+352324634+352008795+352058148+352004526+351613065
2838+351000746+350351592+349703235+348999446+348246267+347563898+347026151
2828+346466984+345642344+344661721+344006779+343936657+344078782+343836322
2818+343058395+342086745+341283019+340771288+340530130+340435404+340219719
2808+339626106+338673705+337677922+336962445+336563712+336226526+335709403
2798+335067957+334566682+334329034+334177718+333835213+333217068+332489253
2788+331851063+331315885+330763629+330188252+329736548+329442455+329125494
2778+328669810+328152578+327560196+326704801+325606367+324605337+323898545
2768+323324289+322741495+322224662+321772270+321193926+320371059+319382729
2758+318416399+317725092+317492112+317562306+317484984+316947273+316060074
2748+315215172+314738357+314600935+314410723+313793265+312812172+311881192
2738+311254833+310770745+310159222+309457278+308940806+308699287+308480490
2728+308016375+307356982+306749366+306251420+305648364+304806212+303929433
2718+303309117+302946133+302609887+302181900+301754727+301427799+301157261
2708+300828107+300393173+299894612+299400827+299006020+298819914+298791601
2698+298600376+297944619+296929966+295985128+295416843+295197250+295136879
2688+295099593+295040579+294937404+294745148+294418129+293936519+293307845
2678+292605394+291999624+291605106+291265496+290697735+289913222+289248546
2668+288900614+288714436+288520334+288373324+288322505+288216725+287886757
2658+287352176+286768278+286261142+285837841+285429356+285032288+284744870
2648+284595798+284444120+284157083+283799616+283549521+283479128+283467640
2638+283282656+282760757+281993449+281321211+281035947+281066105+281060895
2628+280798245+280372556+279954356+279554936+279122806+278729591+278519930
2618+278498528+278458818+278184300+277699904+277225730+276871773+276517038
2608+276050752+275578152+275260178+275058424+274817664+274552300+274451441
2598+274590039+274805760+274881255+274729216+274420089+274132708+274036408
2588+274128999+274213630+274082559+273718199+273275902+272862515+272429987
2578+271975678+271681838+271648858+271658826+271471870+271199704+271099442
2568+271151870+271124806+270936728+270717986+270597914+270602382+270679686
2558+270716683+270623929+270453581+270332640+270286037+270207774+269965042
2548+269525694+269059191+268823027+268847522+268894505+268783732+268535248
2538+268189540+267765045+267378741+267192092+267243399+267397863+267411775
2528+267094345+266500442+265918010+265631135+265718119+266020063+266271931
2518+266315223+266178995+265969027+265776011+265678517+265713994+265837847
2508+265939593+265878643+265566423+265087780+264648649+264356781+264163186
2498+264015036+263921739+263867827+263766298+263516204+263110596+262712496
2488+262553111+262679099+262861623+262816069+262482265+262066110+261821552
2478+261797183+261813953+261690787+261418151+261085994+260747396+260409088
2468+260099853+259902133+259887334+259989568+260010012+259823743+259509623
2458+259207353+258941447+258651605+258330357+258058101+257901502+257813415
2448+257679666+257450919+257179567+256954384+256830658+256781286+256723105
2438+256640934+256631255+256760644+256948722+257052041+257014339+256884588
2428+256708613+256462644+256133363+255814232+255648280+255704291+255940021
2418+256237533+256481151+256654140+256817523+256974629+257051462+257014448
2408+256904181+256777361+256692440+256700002+256793607+256931662+257112322
2398+257346731+257583818+257806957+258225952+259252871+261299562+264743212
2388+270056946+277762030+288259185+301878635+319019455+339962170+364448364
2378+391551759+420038852+448853073+477296964+504835094+530609029+553181918
2368+571369684+585330698+595802110+602389673+603825257+599407316+589270377
2358+574181187+555264810+532795982+506428470+479033009+457433252+447256874
2348+450161149+464450159+484934295+503994462+516786124+523574718+526381408
2338+526758251+525601382+523462950+520995436+518677827+516242624+512925070
2328+508199287+501962044+494231145+485153924+475229920+465043085+454785549
2318+444364105+433798799+423252055+412850258+402577236+392247371+381699686
2308+371060459+360641982+350695075+341453946+333161853+325784386+318923788
2298+312253982+305870851+300061668+294893515+290185443+285786823+281708945
2288+277997977+274654046+271720318+269308128+267466411+266095866+265005555
2278+264034321+263151681+262421714+261832280+261260648+260647369+260030129
2268+259379420+258629878+257890466+257378988+257131824+256969961+256726614
2258+256355832+255874675+255344780+254887105+254602963+254467259+254353592
2248+254162656+253886401+253575302+253304384+253151133+253135791+253169622
2238+253098324+252832815+252443562+252097547+251906792+251895503+252076597
2228+252430934+252826863+253111169+253285642+253477627+253750897+254044809
2218+254296405+254539028+254848227+255237281+255661451+256107474+256609057
2208+257173796+257755758+258309462+258841709+259401401+260027795+260714922
2198+261423850+262112298+262748715+263324182+263877831+264506144+265288268
2188+266148656+266860189+267270138+267467840+267662521+267958858+268283814
2178+268484140+268510372+268490490+268540349+268570435+268412100+268059065
2168+267660043+267334019+267084702+266867859+266667407+266465942+266203817
2158+265853550+265485790+265198897+265045953+265044379+265211760+265619919
2148+266346992+267313377+268400485+269826010+272037767+275164457+278970802
2138+283306410+288198037+293614312+299461162+305704447+312358188+319432227
2128+326869794+334539509+342394913+350538946+359002690+367593000+375983402
2118+383847200+391025048+397637722+403902463+409936504+415912977+422208076
2108+429203201+437096235+445994388+455963439+466747723+477535697+487363817
2098+495829442+503110808+509381230+514579487+518573440+521129384+521750243
2088+519765188+514614367+505972677+493667780+477814593+459136660+438836839
2078+418155218+398218454+379970552+363943833+350243153+338757577+329269176
2068+321530606+315316701+310269181+305895817+301955089+298569512+295869959
2058+293824733+292309891+291084836+289932272+288948321+288433857+288558525
2048+289356190+290909295+293440237+297312435+302854916+310206766+319552607
2038+331317550+345764606+362556553+380881053+399726150+418019424+434910946
2028+450020760+463350604+475087070+485396637+494293379+501784641+507842308
2018+511948608+513176938+511133087+506385558+499731020+491414685+481204440
2008+469006173+455216339+440508334+425475661+410531781+395996294+382147193
1998+369263699+357705143+347769777+339290801+331600534+324204252+317296219
1988+311342504+306481506+302505319+299093962+295980081+293110052+290640585
1978+288669642+287062498+285582409+284112289+282795673+281969207+281766837
1968+281753576+281218868+279970765+278539089+277468588+276806915+276411837
1958+276308210+276453393+276523370+276264628+275825876+275545714+275603281
1948+276021281+276882429+278237343+279608667+279994627+278964669+277321650
1938+276084637+275489812+275277293+275290083+275525850+275944212+276421570
1928+276972542+277979035+279713922+281602586+282824258+283617816+284660583
1918+285442599+284906679+283461525+282648464+283258956+284796919+286222173
1908+286888043+286982480+287100942+287503619+288027833+288552826+289228917
1898+290265298+291551502+292608778+293277741+294137821+295489516+296422070
1888+295942577+294486695+293152296+292356657+291969068+291862691+291922718
1878+291996838+291981442+291940520+292439497+294488974+298346681+302176075
1868+302993043+300161767+296173911+293399622+292246625+291949294+291797815
1858+291566554+291335093+291218693+291265948+291596603+292440148+293993905
1848+296512346+300128967+303704196+304651205+302153135+298765912+296890057
1838+296598406+296761084+296963725+298182611+301389644+305569775+308056791
1828+307933481+306912152+305970606+304447750+302364442+300915362+300714023
1818+301231454+301821810+302610647+304157927+306350344+308020970+308168487
1808+307269565+306736304+307634178+310173840+313595889+316338681+317186586
1798+316690051+316882542+319487731+324137206+327570652+326514010+322435462
1788+319412037+319203517+320848019+322927655+324956490+326634426+327501833
1778+328103551+330138863+334867324+341468998+346527843+346970430+343840556
1768+339956200+337069401+336486933+338776211+342294759+344359524+344796357
1758+345271472+346056347+346959394+349396985+354710049+361360643+365532071
1748+365613627+363723987+362496996+363171296+365656721+368645518+370492644
1738+371802819+375457487+382273218+387503641+386104059+380899217+376209471
1728+373058285+371655953+372159472+374028741+377239375+383281701+393157980
1718+404022626+409172398+406095604+399665833+394628770+392808492+394691113
1708+399972156+406803192+412533298+417223695+423703144+432403125+438908083
1698+440436692+438712986+434204334+428192655+424711556+425735236+430030843
1688+436543436+446374559+458766620+465890736+462308760+455058185+451259185
1678+452560205+457627010+463361422+467544031+471543882+476837950+480856833
1668+480610139+479065392+481000297+486744623+492395489+494929615+496347795
1658+500623466+510270058+525839138+542527096+548337456+544537551+543972703
1648+548980494+552633461+548971485+542211077+538622081+539913802+545912673
1638+555924059+566513643+570605180+566508180+561706087+561622505+566225376
1628+573011111+580093943+587456503+594807412+600593312+605093062+611173995
1618+620224224+629056705+633139125+633669128+634562985+636997211+640018103
1608+642552410+644265805+645423506+646451239+647637234+649267264+651776099
1598+655306008+659229875+662611291+665254942+667843958+670875704+674036985
1588+676846570+679326965+681685497+683827728+685767554+688481400+693656825
1578+701675413+709165372+711389739+710624765+713323269+721287583+730762307
1568+737338653+741894197+747872806+756906607+770163868+790419366+817935569
1558+840303412+847052494+847349482+848806703+851795247+854681395+856048232
1548+856182614+857389379+861290523+867201687+873521571+876893724+871229036
1538+858361463+847774701+842909722+840741150+837154795+832569437+830458829
1528+831598511+833731624+835694896+838873617+843043888+845003252+843657039
1518+840952457+837501497+833578644+831376277+833118255+839398483+849325997
1508+858704475+858011721+844960629+832041314+826489444+827153396+831044192
1498+834906765+835679193+833359811+831856276+834431325+840164108+844048536
1488+841727417+834760804+827944422+824407927+824303865+825755949+827285101
1478+829408735+833328549+838832731+843393629+843333060+838453536+833405691
1468+831887104+833568585+835305715+834817828+834147435+836952172+843947948
1458+850972670+851084113+844615012+838640528+836003173+835550455+835474471
1448+834547544+832842543+831447195+830945558+831138556+832403358+835824792
1438+841018381+844432362+842885046+838717018+835871540+834925870+833924044
1428+831653581+829203796+828153124+828946175+831270840+834441311+836412399
1418+834462370+829163416+823909112+820539999+818588522+816980202+815661343
1408+815568571+816868470+818164389+818415135+818480625+819346983+820624738
1398+821758197+822741208+822793818+820741174+817466642+815380710+815449168
1388+816244536+815740511+814206438+814131250+817024634+822057066+827698814
1378+833413289+839227701+844457328+847913787+849514870+850537610+851921525
1368+853697950+856063067+859342809+862522977+863467201+861593155+858725099
1358+856554645+855225365+854334765+853977063+854467483+855383990+855606369
1348+854686388+853593092+853541930+854776266+856948384+859740746+862452855
1338+863959430+864001619+863669534+864105391+865547415+867738349+870391624
1328+872993087+874921623+876135046+877230657+878732600+880777356+883493879
1318+887139573+891566451+895961127+899489155+901996977+904014668+906397514
1308+909868302+914282009+918231638+920144689+919919850+918819824+917922638
1298+917280034+916429162+915229996+914003765+913032477+912237616+911360765
1288+910199228+908613776+906490866+903892226+901362984+899814076+899643004
1278+900164252+900334310+899846206+899127908+898588713+898423720+898943448
1268+900492718+902856750+905140673+906617867+907562669+908797584+910456632
1258+911758123+912187684+912324309+913058456+914423845+915494780+915199674
1248+913322228+911000602+909853973+910080911+910021644+908421429+906269428
1238+905296331+905686959+906288025+906318057+905974394+905724299+905783349
1228+906079903+906273552+906015280+905416530+905046453+905288226+906049292
1218+907182389+908624124+909967008+910728726+911221606+912189999+913673851
1208+915173985+916768483+919081497+922229607+925671521+928844307+931284757
1198+932710644+933481407+934376422+935738265+937435450+939640205+942775362
1188+946484159+949293165+949748777+948085604+946583227+947566455+950970883
1178+954737862+957594991+960146159+963146427+966182950+968154906+968317438
1168+967131587+966131136+966565835+968586638+971904517+976227406+980836356
1158+984633294+987040961+988339196+988847056+988409390+987086841+986140809
1148+987226796+990068656+992576622+993839035+994974086+996861736+999017573
1138+1000872297+1002570350+1004370076+1006605515+1009216312+1010986658
1130+1010989914+1010435885+1011388503+1013651946+1015061696+1014908860
1121+1014724763+1015795698+1018053497+1020682024+1022546734+1022992794
1113+1022819117+1023663187+1026008186+1028670435+1030558809+1031885484
1104+1033501330+1035877157+1038461541+1039852041+1039414520+1038598094
1095+1039435289+1041840858+1044188318+1046258691+1049029415+1051938069
1087+1053039252+1051711710+1049257945+1047151824+1046396330+1047730168
1078+1050814162+1053768912+1055326432+1057400929+1062800471+1069921149
1070+1072658875+1068105285+1061352584+1058649521+1060497805+1063560017
1061+1065709341+1067200284+1068173888+1067952739+1066693075+1065047560
1053+1062996508+1060581387+1059056866+1059757724+1061963348+1062766604
1044+1060648831+1058784627+1061580391+1068155652+1072387795+1070745101
1035+1066903369+1066390299+1069976871+1073626834+1073741823+1070680696
1027+1066506662+1062312583+1059024229+1057882521+1059106074+1061522715
1018+1063665164+1064642748+1064662648+1065015646+1066570706+1068378030
1010+1068814321+1067869736+1066963939+1066553555+1065213132+1062216410
1001+1059548082+1059229095+1060475372+1061180500+1060423124+1058266853
993+1055562270+1054339441+1055557639+1056961238+1055919683+1053439216
984+1052664979+1054451896+1056223762+1054998906+1050755112+1046166931
975+1043196116+1040981664+1037580131+1032752927+1027808998+1023741052
967+1020502485+1017957323+1016208542+1015012849+1014127097+1013970716
958+1014732072+1015029638+1012863164+1007704310+1000840673+994398637+990089063
948+988162552+987325647+985947014+983631902+981610086+981543365+983544557
938+985366282+984353240+980618753+977231331+976694959+978498882+980552394
928+981851859+982625517+982930826+982594472+981739041+980548124+979233680
918+978252912+977850344+977645405+976826881+974398951+970086844+965525583
908+963054017+963437046+965791019+968958234+971843802+973041377+971778384
898+969104556+966826205+965588107+964968370+964721821+964680428+964185015
888+963081588+962372335+962765134+963769710+964821106+965672702+965320065
878+962491593+957708171+953462206+952337793+955165397+959914228+962600865
868+960813151+956103324+951882397+949968334+949773960+949749790+949166598
858+948896675+950292458+952999936+954720422+954045398+952358851+951478237
848+951012711+949995688+949708832+952215929+956749112+960034644+960188638
838+958195117+955537210+952583980+949589718+947747658+948353935+951174230
828+954512878+957190758+959272203+960624712+960574924+959263302+958267627
818+959234356+962126437+965331933+967276680+967483211+966212837+964130596
808+962344185+961420803+960525860+958949526+957858618+959004596+962344547
798+966130413+968870310+969729576+967943816+964054829+960642586+959756472
788+960670085+961581309+962473719+964638094+968374535+972709581+976227406
778+977716758+976868563+974362985+971034251+967341809+964015390+961960938
768+961304729+961600486+962391584+963254034+963850759+963904382+963318584
758+962737852+962987730+963374233+962364302+960612048+960764015+964164969
748+969266148+973023358+973749472+972465927+971487258+972136810+973401467
738+973035515+970515102+967814572+967097214+968234435+969349658+969276931
728+968435249+968109243+969349441+971990921+974678787+975585598+974199367
718+972339505+970981135+968472952+964369185+962013620+964168226+968490536
708+969777844+965833280+959160037+953773015+952176635+954151051+957667284
698+960823137+961813457+959053515+953666855+949159144+947503859+947787893
688+948253926+948134957+947192037+944996327+941681560+938739257+937495730
678+936784813+933509485+926877923+920799957+918597011+917422159+911775708
668+903821525+904118367+912900699+920451373+922689272+921651408+919333473
658+915745382+911426038+908037458+906847265+908298625+911294261+913570079
648+914132213+913406389+911261118+906415099+898022310+888379554+882487928
638+883591789+889966019+896456902+898928179+896697662+891956646+887674643
628+884598319+881150472+876781775+872831422+870329969+869838391+871293731
618+871603599+867085468+860041714+856344423+857279890+858491286+855658255
608+848819729+841079096+835660812+834966394+840125899+848079721+851944610
##END=
