##TITLE=<SNM>
##JCAMP-DX=4.24
##DATA TYPE=INFRARED SPECTRUM
##DATE=3/5/2025
##SAMPLING PROCEDURE=Instrument type and / or accessory
##ORIGIN=Admin
##XUNITS=1/CM
##YUNITS=ABSORBANCE
##RESOLUTION=4
##FIRSTX=4497.3318
##LASTX=599.83466
##DELTAX=-1.4281778
##MAXY=1.7199959
##MINY=0.172986
##XFACTOR=1
##YFACTOR=1.601871e-09
##NPOINTS=2730
##FIRSTY=0.19730973
##XYDATA=(X++(Y..Y))
4497+123174548+123401590+123586623+123110138+122090796+121348906+121381697
4487+121810600+122058350+122234732+122877719+123963536+124713314+124520328
4477+123714493+123110845+123017468+123157320+123377441+123715489+123867796
4467+123390911+122505821+122055820+122524946+123494056+124182699+124241769
4457+123858354+123350027+122879021+122387830+121741121+121102840+120958663
4447+121404711+121752684+121288841+120135322+119032519+118606304+118976826
4437+119737637+120282839+120298476+119876577+119237878+118591011+118148052
4427+117976982+117816423+117288134+116387880+115510920+114903765+114443950
4417+114077875+114019968+114405215+115145970+116075573+116871658+117065203
4407+116472020+115448473+114585215+114276480+114476518+114722462+114602778
4397+114246359+114080089+114139810+113959633+113211361+112224763+111705906
4387+111977879+112649964+113062133+112900095+112296550+111516827+110689829
4377+109823474+108995481+108380717+108061079+107989972+108170679+108679573
4367+109471733+110323931+110977132+111270659+111187096+110830146+110352647
4357+109894916+109573315+109528506+109914451+110658015+111319822+111526222
4347+111418929+111274194+111005188+110533355+110222861+110408833+110859290
4337+111142240+111184872+111140993+111035319+110827718+110612471+110563922
4327+110787709+111202705+111410640+110875923+109628534+108596755+108690141
4317+109738292+110881514+111677488+112222373+112537778+112490206+112108428
4307+111580380+111128705+111021691+111430045+112214493+113061593+113711204
4297+113902386+113487445+112829109+112627983+113100440+113720646+113941326
4287+113738079+113329324+112833909+112393620+112263638+112532224+112950895
4277+113237668+113393296+113546125+113673948+113734730+113875456+114179028
4267+114393485+114249243+113859809+113512822+113275650+113116161+113229203
4257+113888609+115020072+116188540+117005882+117413241+117638097+117932284
4247+118247094+118240592+117807735+117418627+117694814+118807161+120335071
4237+121462144+121426683+120151936+118391150+117074589+116617425+116858058
4227+117429139+118039782+118452127+118471643+118259187+118376918+119024752
4217+119502241+119082715+118100936+117507502+117676330+118205931+118604202
4207+118775998+119002017+119564753+120321797+120782654+120755788+120696263
4197+121148255+121974331+122456388+122167680+121440469+120919287+120948896
4187+121384404+121726256+121546637+120963668+120505500+120501183+120871556
4177+121386776+121847354+122162378+122443393+122903022+123594828+124278243
4167+124542244+124220820+123734642+123675423+123989006+124012987+123397358
4157+122565095+122141401+122243178+122519179+122736854+122995543+123321050
4147+123518716+123529553+123430883+123107264+122473607+121902703+121897633
4137+122452760+123074892+123377618+123508735+123903368+124590114+125009938
4127+124766673+124206690+123915898+124001517+124163052+124203955+124202271
4117+124248467+124271109+124203369+124134848+124178383+124344365+124620384
4107+125006189+125445883+125890061+126381383+126973571+127662438+128374216
4097+128857148+128747352+127979862+126940380+126012750+125280683+124859343
4087+125049892+125835233+126661031+127063646+127134641+127125422+127052446
4077+126936222+126964873+127153627+127212809+126984315+126705747+126614807
4067+126547077+126208304+125681279+125325939+125258339+125289688+125346516
4057+125562693+125922564+126201327+126385997+126774938+127460679+128073378
4047+128297555+128306532+128378477+128442123+128354858+128269751+128371835
4037+128537342+128548663+128463826+128557510+128941994+129361558+129454386
4027+129222274+129057046+129210013+129498284+129694591+129901197+130277635
4017+130627263+130554826+130014853+129472572+129398823+129719987+129976955
4007+129964973+129897885+129971941+130162639+130443765+130834315+131239190
3997+131526214+131666531+131591954+131136530+130351151+129657782+129515763
3987+130049262+130985822+131809992+132077760+131764559+131289386+131154511
3977+131573545+132380040+133185251+133632303+133597047+133231632+132852915
3967+132768515+133127204+133834099+134586743+135118670+135443275+135708252
3957+135856327+135665443+135121302+134593487+134607208+135313340+136134049
3947+136345593+136026393+135768429+135655927+135319014+134776408+134428352
3937+134498882+135073181+136208226+137544573+138277077+138046118+137471122
3927+137370545+137850974+138336696+138346417+138061198+138019095+138472231
3917+139086521+139218010+138621013+137750936+137187363+137066591+137412182
3907+138660650+141158777+144213761+146404836+147050419+146381459+144638339
3897+142394138+140968172+141375661+143119312+144286971+143750439+143010707
3887+143842505+145600592+146484623+146686781+147483844+148184868+147474206
3878+146318464+146474809+148000701+149955756+151797352+152826591+152229957
3868+150865266+150334306+150532818+150060687+148494627+146896754+146407301
3858+147762337+151487435+156929178+160294172+158086427+153023475+148880154
3848+146882391+146949535+148541241+151022782+154158250+157987860+161666827
3838+163177119+161698473+158923825+156551503+154840466+153729328+153497300
3828+154014436+154822354+156425567+159759175+163625064+164939672+163578887
3818+162174642+161024853+158756959+155992822+154603730+155417565+158059934
3808+161042992+162810885+164035874+166326410+168946528+169810958+169362603
3798+169188370+168804555+167319473+165728287+165555803+166985593+169257319
3788+171803893+174419564+176915607+179390144+182407658+186110644+189666094
3778+192422603+195016525+198606915+203939840+210995355+218659038+225550478
3768+231736391+238145727+244969725+252346059+261181299+271974478+283836591
3758+295614386+307502638+320815359+336981425+356120374+374622298+387582701
3748+396154294+404994352+415754341+425392169+431682230+437436886+445620906
3738+456756746+469712573+482275245+491829463+497047002+498898094+499499696
3728+500264423+501456389+502948114+504653011+506050930+506486913+506481964
3718+507453613+510256373+515074840+521444902+527471038+531309968+534256059
3708+538883121+545478597+552212530+556982625+559267319+560842281+563484073
3698+567260343+572010829+577981224+584738859+591174261+596115184+598019152
3688+596190161+592670748+590050388+589240861+590170351+592603064+596083445
3678+599377369+600158543+597626667+594862828+594550604+595988338+596744060
3668+595831053+594118417+592567232+591827769+592532553+595547257+601067345
3658+607173034+610987481+612671131+615553854+621188175+626854049+627931038
3648+624457095+621573069+621859767+623826581+625387106+626471164+628862314
3638+633645582+639327679+643122516+644210891+644858706+647444089+650884619
3628+651947765+650919298+650658981+652480753+655940482+660231990+664194195
3618+666101846+665504040+664066864+664100799+666993011+672240503+677769893
3608+681886442+684424495+685652554+685561763+684515286+683599786+683935712
3598+685738358+688051369+689952248+692497668+697928304+706390390+714362204
3588+716529502+711377490+703329694+697154497+694627384+695715164+699301405
3578+702903944+704011519+702594585+701037595+701211289+702654120+703728727
3568+703204447+701025465+697839969+694454212+692565314+693266488+695345154
3558+697395838+699994542+703597155+706508194+707158838+706166835+704635148
3548+702927311+701656834+701350824+700962656+698773776+694968222+691931564
3538+691636345+693537447+695563126+696766701+698159970+700987809+704820451
3528+707511508+706957535+702905804+697239112+692817520+691589907+693097855
3518+695334661+697130758+698434277+698912865+698502891+698902669+701973188
3508+706643116+709311178+707548495+702482287+697231372+693602935+691272660
3498+689698033+689291037+690354630+692160476+693997355+696122160+698853181
3488+701446973+702665208+702356891+701654825+701380740+701125856+700310003
3478+698971358+697161939+695150697+694227904+695359144+697257642+697532619
3468+695622215+693255623+692112774+692488216+693915346+695709954+697028581
3458+697159260+695843611+693328330+690471467+688492523+688318606+690295318
3448+693866378+697043241+697639187+695812950+693926732+693711736+694574919
3438+694740352+693463996+691652940+690677235+690884045+691558577+692215025
3428+693090339+694346677+695723499+696917623+697671336+697808043+697368526
3418+696436133+695002678+693116311+690862613+688421304+686528463+686087382
3408+686608612+686236964+684534337+683908624+686609133+691279432+693928443
3398+692344291+688280206+684736533+682807226+681997996+682074201+683135413
3388+684623416+685614302+685946582+686052182+686075624+686240536+687354660
3378+689843001+692919920+695240744+695805136+694304332+691244827+687860187
3368+685753763+686104276+688231164+689757196+689440098+688719426+689254869
3358+690343244+690234965+689140264+688575277+688446904+687730549+687238343
3348+688762366+691869201+694215774+694790064+694368407+693232330+691019636
3338+688560840+687716038+689082218+691132604+692065518+691628531+690612640
3328+689633661+689019780+688876226+688991948+688917603+688610254+688542979
3318+688949008+689458405+689570479+689305920+689318423+690194853+691487507
3308+691817257+690458816+688560988+688042438+689200171+690086276+688708486
3298+685476776+682847189+682726556+684659286+686786100+688467146+690623133
3288+693239772+694731124+694508017+693842638+693452907+692518951+690748454
3278+689216469+688619779+688660784+689191464+690189495+690941496+690841403
3268+690633998+691444121+693065036+694386193+694437244+692723901+689712247
3258+686774714+685261334+685767754+687835703+690055541+691309051+691878727
3248+692480626+692655287+691100902+687736726+684479639+683196882+683361795
3238+682982259+681678963+680712932+680338159+679952000+679958028+681021696
3228+682574221+683512939+683312157+681809493+679324203+677191361+676808476
3218+678149428+679877581+680850533+681161231+681499167+681908917+681837921
3208+681027873+679793786+678651011+677762525+676880291+676022316+675787972
3198+676454392+677320775+677583027+677175138+676373350+675317422+674245791
3188+673692934+673873176+673891037+672278754+668740810+664650456+661696403
3178+660778670+661591472+662549093+662242786+661277872+661189983+661901873
3168+661855585+660279171+657970329+656097208+655277336+655514062+656189562
3158+656047868+654005742+650640153+648110882+647947012+649464857+650694255
3148+650410720+649069693+647815588+646820088+645301424+643236898+641704392
3138+641209656+641256912+641528391+642086383+642790608+643375689+643650145
3128+643165158+641397861+638849687+637048604+636777273+636993236+636209383
3118+634387984+632514267+630856887+628976324+627168841+626411332+626762142
3108+626967984+626022866+624321950+622793091+621810056+621610018+622742969
3098+625102008+627133938+627211557+625661339+624230824+623650432+622957482
3088+621351859+619593901+619001119+619549362+619718144+618524429+616870509
3078+616097074+616104293+615845241+615060495+614448884+614412308+614560959
3068+614310800+613458854+612307409+611460747+611318198+611587519+611429007
3058+610326642+608834508+607983120+607748366+606887713+604808117+602703740
3048+602049524+602668205+603079294+602297488+600527958+598467860+596687800
3038+595494011+594880614+594654976+594683814+594828372+594700855+593748741
3028+591786058+589484061+587959407+587539461+587398587+586837432+586212277
3018+585993076+585772573+584850376+583100902+580888431+578760129+577410953
3008+577313762+578168313+579050660+579242660+578738473+577869187+576792645
2998+575468139+573883540+572168969+570570714+569367027+568683863+568375359
2988+568109350+567588790+566828007+566165680+565806535+565490366+564879500
2978+564136279+563750641+563789600+563702530+562929095+561526003+560148921
2968+559350966+559007114+558635466+558036469+557274682+556373396+555391775
2958+554519549+553767845+552878652+551854092+551066704+550489586+549454533
2948+547582491+545391751+543643393+542528339+541753491+541183331+541010047
2938+541163722+540911293+539603011+537742988+536595971+536677423+537136363
2928+536740195+535220638+533494606+532553022+532358938+532110007+531274284
2918+529929276+528450575+527302330+526836432+526919706+526948395+526421882
2908+525333842+524006918+522797129+521981015+521637014+521451488+520870538
2898+519731335+518488877+517516186+516556370+515260069+513926447+513220138
2888+513282129+513432009+512784230+511109770+509067235+507558357+506869909
2878+506514485+505950725+505233552+504703355+504347187+503908227+503358942
2868+502824727+502298289+501674027+500850657+499832497+498861890+498189218
2858+497681050+496992825+496012581+494880634+493828278+493083643+492555605
2848+491759696+490465925+489054685+487913994+487014308+486254752+485652481
2838+485092517+484317706+483264829+482160789+481257382+480596283+479978533
2828+479157842+478165952+477346564+476956274+476890153+476837427+476488515
2818+475615508+474263989+472853120+471811741+471134753+470475440+469623494
2808+468717743+467956327+467267656+466454965+465553716+464752710+464030662
2798+463188501+462183848+461178301+460308122+459567395+458853756+458064805
2788+457258813+456702644+456511239+456249136+455286901+453618618+451895488
2778+450605215+449674943+448924653+448422029+448194158+447921004+447142844
2768+445687101+443791915+441870273+440287535+439236481+438579103+437905724
2758+436975824+435973962+435179764+434590033+433947203+432970866+431597207
2748+430107343+428922372+428245273+427982426+427884379+427629086+426913996
2738+425635816+423980333+422304050+420900288+419869216+419196656+418830181
2728+418614403+418261249+417448410+416026862+414273965+412826706+412116937
2718+411944285+411753624+411187930+410275667+409253153+408288983+407353465
2708+406390411+405481572+404704751+404015782+403362013+402700505+401918661
2698+400975701+400037094+399246952+398481629+397526315+396416322+395404450
2688+394609843+393934307+393367719+393045523+392840388+392283252+391148700
2678+389793460+388673383+387849343+387156244+386514084+385868390+385118844
2668+384300907+383626412+383238579+383069053+382897592+382429237+381480174
2658+380256655+379249174+378683740+378262864+377596667+376726191+376015008
2648+375576756+375070075+374197738+373192006+372530646+372287148+372038552
2638+371391108+370415850+369536778+369047996+368790879+368368850+367661053
2628+366954781+366505850+366150872+365527615+364594701+363720876+363253154
2618+363175833+363218475+363114809+362701227+361933560+360929725+359942820
2608+359211842+358826836+358712343+358680194+358513347+358095374+357503856
2598+356931613+356488114+356101769+355619275+354959515+354179532+353445614
2588+352951138+352788608+352820868+352704477+352151248+351217069+350288323
2578+349752879+349674330+349769847+349723968+349483372+349161213+348784319
2568+348360988+348078345+348136317+348449621+348752989+348935315+349083929
2558+349244711+349288990+349053417+348551202+347958531+347402288+346876259
2548+346371439+345976387+345807419+345851400+345883289+345646265+345199492
2538+344908626+344944161+344993166+344666690+344031824+343527599+343435655
2528+343601683+343695711+343627283+343559674+343576493+343566223+343435878
2518+343223822+343002389+342802128+342584490+342256750+341819428+341444990
2508+341288338+341309920+341335780+341185082+340781583+340242791+339746827
2498+339298454+338803086+338313671+337984367+337825223+337663027+337345966
2488+336956644+336745853+336755006+336680736+336318131+335874037+335586817
2478+335381273+335164900+335086351+335232063+335384808+335302203+335006202
2468+334668899+334395633+334193772+334010516+333751464+333364300+332937323
2458+332662829+332680801+332943648+333218923+333246161+332915258+332305507
2448+331618771+331097467+330897281+330967904+331105430+331136016+331007197
2438+330751978+330449019+330185725+329978097+329743603+329420105+329086076
2428+328868476+328757703+328652140+328557182+328575266+328729685+328922243
2418+329011099+328885294+328582819+328339693+328373963+328614931+328760531
2408+328612326+328275395+327985943+327814110+327657384+327504528+327518891
2398+327795580+328166334+328351005+328267656+328084213+327921571+327651952
2388+327130946+326445251+325674942+324521079+322394972+318858331+313936533
2378+308122677+302091797+296259430+290609146+285036277+279724990+274991044
2368+270910662+267388532+264499260+262537042+261845970+262766010+265586556
2358+270348391+276713280+284327754+293394865+304050369+314824721+322883419
2348+326062850+324417860+320346930+316641804+313874505+310917660+307267977
2338+303343186+299488331+295712247+292062824+288857793+286539295+285322343
2328+284999868+285098528+285248799+285512836+286364801+288200006+290839324
2318+293622214+295981103+297844308+299504331+301240949+303162814+305264158
2308+307399494+309248131+310522292+311237382+311704453+312302036+313249610
2298+314458246+315581783+316340520+316783572+317141601+317508932+317817547
2288+318064878+318390534+318865252+319293271+319354257+318970257+318417474
2278+318006868+317783649+317623425+317456504+317290104+317143871+317046047
2268+317015349+317027182+317033508+316984242+316835703+316607460+316411702
2258+316364111+316473320+316623051+316655125+316492818+316198641+315933226
2248+315884370+316150715+316618772+317066252+317425546+317773416+318078719
2238+318197306+318113138+317998310+318050924+318375539+318981866+319816026
2228+320767991+321672737+322396200+322959178+323505337+324152929+324964131
2218+325998366+327261179+328645666+330046488+331481840+333008802+334614090
2208+336310056+338215326+340388169+342678035+344881835+346997561+349230608
2198+351728735+354357988+356858497+359199860+361557038+363964821+366290073
2188+368484608+370576855+372498981+374122203+375416272+376533781+377740147
2178+379171257+380673252+381947711+382800959+383263360+383515193+383623919
2168+383429054+382830913+382017515+381254983+380633959+380074813+379474514
2158+378848726+378312427+377930138+377666807+377352537+376716107+375758337
2148+374830261+374092399+373734965+374931917+379140634+386133172+394047014
2138+401481972+408357895+414965799+421395024+427682667+433864263+439964743
2128+445993037+451987023+458131634+464434681+470270528+474859971+478033114
2118+479998812+480847335+480659799+479708578+478526287+477931011+478760744
2108+481589253+486861042+495007778+505971972+518493565+530159379+538485799
2098+541773509+539222247+531457205+520661161+508954788+497120974+485147140
2088+472845567+460005350+446845690+433898273+421359564+409434177+398817221
2078+389979469+382729480+376833503+372213027+368626860+365811300+363555815
2068+361484666+359319898+357154572+355140241+353364870+351977183+350960027
2058+350073327+349186366+348317081+347579553+347278046+347573488+348193285
2048+348951761+350147411+352217146+355543219+360522617+367419303+376465986
2038+388179279+403003017+420647822+440080576+459849703+478229728+493416667
2028+503837009+508560220+507742283+502498885+494373284+484988294+475550652
2018+466407412+457426292+448616932+440103906+431901691+423934007+416051123
2008+408108778+400148461+392381708+385068313+378472018+372715763+367646876
1998+363059591+359014483+355726215+353127250+350739710+348150234+345480534
1988+343108994+341136561+339443571+338028498+336980012+336265852+335719841
1978+335150240+334458331+333726980+333129546+332739220+332511387+332384577
1968+332273321+332024055+331519124+330805076+330051548+329452105+329186207
1958+329304533+329559901+329522803+328991899+328198893+327569161+327357030
1948+327521570+327906799+328409684+328829071+328770875+328074874+327127188
1938+326420433+326087222+325989027+325987501+326048376+326172246+326279632
1928+326332879+326570647+327233718+328063525+328615675+328978690+329451286
1918+329733631+329293742+328354167+327673161+327599189+327858762+328022892
1908+327949292+327818799+327851022+328055711+328264158+328352493+328408754
1898+328632791+329008532+329227397+329186430+329292514+329829706+330340442
1888+330182228+329438003+328714168+328426205+328587322+328910671+329046151
1878+328920122+328746280+328732661+329118486+330312386+332365154+334264954
1868+334545773+333089100+331248202+330096907+329691882+329652515+329724441
1858+329834766+329963809+330078414+330171549+330368721+330855011+331724297
1848+333106142+335104881+337067491+337505073+335996009+334040804+333016988
1838+332962625+333206086+333442589+334188005+336030874+338448331+339964986
1828+340053991+339609748+339132686+338311289+337269277+336680327+336784365
1818+337227491+337703399+338329001+339357915+340659909+341643093+341875130
1808+341629474+341575892+342240750+343807526+345951047+347808652+348659816
1798+348816691+349411334+351292865+354115346+356153267+355918550+354307532
1788+353343437+353851271+355380428+357295521+359323544+361175716+362466473
1778+363365266+364810367+367729890+371931835+375555807+376724107+375890840
1768+374618018+373840975+374220250+376092068+378655089+380528209+381594445
1758+382712736+384061353+385560854+387907018+391678264+395891409+398525499
1748+398944514+398377034+398134094+398804570+400352294+402093396+403243352
1738+404342183+407048794+411749085+415838248+416512445+415069837+413813536
1728+413381870+413842373+415138711+416953488+419477103+423740444+430248255
1718+437246858+441156634+440830196+438806192+437486002+437832050+440150641
1708+444258930+449062849+453161835+456839240+461839735+468382821+473902871
1698+476855772+478440855+479010195+478694139+479213024+481864156+486376204
1688+492293465+500083846+509288854+515905577+517082771+516355253+517642921
1678+522018634+528622222+535266889+540410529+545222039+551185327+556907797
1668+559975079+561598711+564849918+570289076+575720754+579351200+582194332
1658+586352445+593280833+603605956+615141798+621389850+622151973+624188554
1648+629174873+633479256+633811536+632376146+632643831+635510963+640637971
1638+647319884+653372513+655023568+652041607+648942958+648546306+650474422
1628+653154243+655639235+657941677+659824026+660912922+662196423+665254886
1618+669847939+672963630+671875999+668152009+664476168+661350504+658135836
1608+654752460+651972919+650520041+650542441+651876026+654328720+657680542
1598+661499267+664924615+666920453+667101216+666071632+664680670+663230844
1588+661578226+659776101+658271055+657362997+656982643+657389639+659427076
1578+663293058+667031113+667951599+667272230+668606261+672952169+678056777
1568+681496637+684153536+688261899+694725840+704069119+717670714+735134719
1558+749284260+755770453+761013256+769450858+780427182+791532399+801034487
1548+808926078+816498785+824365669+831495733+836943560+840405894+840298805
1538+836612247+832867048+831142541+830597870+829583170+828423949+828980006
1528+831926469+836175558+840530992+844927356+849210231+852468732+854722356
1518+856608426+857499293+856776091+855633837+855995661+859018404+864750734
1508+871131549+873115628+868861776+864225411+863044981+864718585+867707094
1498+870511343+871400796+869960867+868412436+868999897+871568759+873906998
1488+874061789+872217245+869761053+867835690+866881418+866861176+868020025
1478+870996628+875769253+880809489+883491988+882056971+878117240+875304731
1468+875464732+878023398+880936001+882333585+882795056+884449460+887940594
1458+890989755+890081771+885841166+881957994+879622435+878210561+877065331
1448+875828863+874726125+874429045+874939112+875454090+875859300+877117722
1438+879316350+880445581+879177782+877438020+877027452+877275192+876954670
1428+876420864+876764456+878022431+879605616+881405434+883280341+884078334
1418+882709326+880017747+877469201+875339038+873303461+871339475+869864272
1408+869323173+869550224+869819397+869925667+870507920+871791495+873040614
1398+873620113+873616392+872918195+870972070+868006853+865070883+862685836
1388+860449626+857859703+855486786+854990189+857505991+862303025+867406666
1378+871582825+874887912+877339564+878726060+879925542+882430553+886311641
1368+890072023+892523228+893943362+895126621+896129414+896398810+895805469
1358+894986118+894818527+895896855+898095633+900454857+901970098+902612481
1348+903137059+903975758+904891630+905721251+906870128+908832626+911503442
1338+914219355+916471268+918311570+919981378+921462387+922678017+923839769
1328+925206991+926646697+927700690+928296115+929132061+930939023+933573299
1318+936112468+937622128+937813086+937375132+937673105+939532086+942119553
1308+943572728+943016671+941618863+941338453+942833378+944866350+945687263
1298+944819615+943088560+941149429+939182764+937888696+937900975+938012678
1288+936192692+932691734+929725476+928156877+926801116+924834153+922985739
1278+922093235+921729550+920727427+918557747+915765033+913284506+911764354
1268+911377451+911557693+911071143+909294469+906998054+904951537+902620369
1258+899215486+895071551+891092304+887767273+885261146+883556360+882100134
1248+880065747+877335322+874827186+873641174+873945472+874716972+874687576
1238+873604262+872393245+872181226+873348559+875297587+877077461+878351511
1228+879403271+880156836+879983068+878744367+877365536+877152698+878778451
1218+881738830+884733889+886891810+888455795+890111465+892352437+895512557
1208+899481682+903283217+905658367+906394369+906649849+907709795+909880814
1198+912841045+916349221+919784987+921775094+921791318+921583764+923436270
1188+927556987+932274022+936145361+938971489+941138490+942753601+943683091
1178+944254479+945228918+946845145+948589670+950086828+951680580+954155154
1168+957866642+961794539+963972033+963564069+961996214+961186017+961610353
1158+962919305+965244669+968833068+973012055+976404212+978062709+978004141
1148+976847078+975436544+974832487+976043206+979358265+984125384+989435239
1138+994715847+999465551+1003190881+1005633305+1006652173+1006297716+1005229286
1128+1004421396+1004367293+1005227649+1007584715+1011819292+1016496960
1120+1018852091+1017888591+1015663990+1014485941+1014562741+1015076082
1111+1015744734+1016233071+1015964716+1015572455+1016203898+1018146303
1103+1021485846+1026096834+1030398909+1031610522+1029377884+1027462642
1094+1029411521+1034202528+1037708173+1037811913+1036155574+1034860985
1085+1034074081+1033623029+1034443570+1036765213+1039226391+1040986172
1077+1042730251+1044973754+1046951656+1047907417+1048084012+1048088403
1068+1048436609+1049451160+1051113229+1052892880+1053964585+1054391079
1060+1055273016+1056979959+1059156262+1061940567+1065053207+1066638699
1051+1064969337+1061037048+1057975980+1058073022+1061090779+1064894025
1043+1067666273+1069666948+1071887456+1073741823+1073350827+1069897870
1034+1064834564+1060748452+1059687761+1062119842+1066192633+1068507652
1025+1067496822+1065190361+1064296963+1065313375+1067164319+1068728974
1017+1068848714+1066704857+1062951992+1059365453+1057425356+1057217281
1008+1057333449+1055974710+1052457530+1048152552+1045942910+1047282076
1000+1050052538+1051042085+1049819310+1048159547+1047104959+1046656065
991+1046619302+1046262092+1044363966+1040082133+1033431996+1025910638
983+1020253322+1018132238+1018473671+1018834826+1018265745+1017776367
974+1017784628+1016560513+1012359647+1006121195+1000432102+996697768+994434841
964+992283766+989000261+984134314+978148960+971877094+966239201+962010875
954+959155128+957007402+955593297+955624255+956946230+958046437+957501543
944+955616218+954022763+953431654+952805867+951360059+949991125+949733264
934+950317377+951053751+951659222+951902274+951757901+951970293+953494985
924+956254731+958814514+959613771+958550178+956782881+955052719+953198947
914+951276635+949906213+949260779+948669894+947465798+945640975+943682347
904+942274418+942005469+942819610+943883724+944273158+943601975+942086734
894+940432776+939399844+939039210+938747117+938212045+937595188+936857028
884+935742458+934284669+932656088+931151935+930515059+931235805+932492218
874+932922656+932522953+932360571+932420329+931527899+929428396+927147833
864+925584815+925276200+926560966+928696488+929846183+928981809+926842865
854+924592441+922743878+921680508+922255021+925054209+929143000+932295231
844+933074991+932123770+930885516+930082910+929775858+929746760+929630369
834+929415150+929749067+931379880+934204892+936709084+936639204+933167196
824+928159258+924550766+923881071+925693243+928507687+930948549+932497129
814+933639607+935143908+936919540+937938482+937725868+936916712+935809807
804+933854900+931306578+929656416+929979095+932007751+934912689+938007543
794+940677019+942694810+944445437+946113311+947204142+947396291+947213295
784+947636143+948988332+950077451+949185690+946315953+943508356+942344744
774+941842789+939660161+935259778+931010093+929800714+931948440+934929954
764+936436488+936648656+936666516+936677679+936671949+936957866+937360248
754+937459820+937424025+937276229+936805679+936898703+938727544+941582695
744+943586347+943981511+943177713+941553598+939558356+938526762+940122004
734+944358293+949156965+952566610+954249517+954109237+951557715+947219100
724+943101508+940411121+938704995+936980563+934977284+934092296+936322701
714+941003345+944457121+944544042+942866419+941216481+939750356+938977145
704+939079545+937567430+932042952+924903883+921198349+922194816+924219156
694+923693685+920925455+917842210+914514947+909798284+904121768+899383747
684+896053358+893039248+890139669+888599200+889012150+889866627+889624245
674+888779368+888054827+885957185+880146268+872254082+868703264+870754395
664+873825956+875837867+877465927+878604981+877448960+873210512+867770201
654+863567177+861534651+861650522+863575066+866148021+867502294+866262179
644+862288142+856400723+849874716+844326201+840768015+838475098+835892171
634+833317430+833802641+839500440+846880253+848415066+841631273+832805503
624+828342311+827673137+826776168+824364702+821618648+819354234+818936744
614+822914056+831736775+841089207+845796121+845404008+842029339+836565587
604+830457814+826188185+825074433+826030864
##END=
