##TITLE=<SNM>
##JCAMP-DX=4.24
##DATA TYPE=INFRARED SPECTRUM
##DATE=2/5/2025
##SAMPLING PROCEDURE=Instrument type and / or accessory
##ORIGIN=Admin
##XUNITS=1/CM
##YUNITS=ABSORBANCE
##RESOLUTION=4
##FIRSTX=4497.3318
##LASTX=599.83466
##DELTAX=-1.4281778
##MAXY=1.7690511
##MINY=0.21698812
##XFACTOR=1
##YFACTOR=1.6475572e-09
##NPOINTS=2730
##FIRSTY=0.2331681
##XYDATA=(X++(Y..Y))
4497+141523520+140993112+140816239+141027417+141351849+141366917+140905408
4487+140242499+139934121+140481434+141934235+143707507+144914328+145077154
4477+144544801+144069563+143990271+144112443+144340787+144756132+145032158
4467+144569574+143409675+142470342+142616020+143686614+144602450+144546058
4457+143884244+143549691+143712662+143653422+142844717+141518492+140230624
4447+139471799+139593093+140450810+141194684+141017758+140148067+139686468
4437+140383094+141849128+143005164+143074155+142178371+141145320+140639702
4427+140479001+140105296+139556599+139330869+139453240+139418844+138948436
4417+138264824+137784883+137862566+138585077+139605240+140278233+140019012
4407+138708407+137036713+136197239+136755314+137967426+138621228+138403095
4397+137965509+137820419+137813690+137735284+137771715+138025365+138154944
4387+137923407+137630550+137579196+137580814+137384207+137105052+136788073
4377+136104850+135027961+134223733+134195795+134625187+135056939+135610456
4367+136506413+137392781+137582479+136767190+135331048+134017259+133408951
4357+133752376+134925606+136265569+136811806+136211375+135068905+134154462
4347+133774815+133897927+134261331+134445791+134241171+133739243+133031175
4337+132267656+131856950+132062023+132615721+133050151+133156811+133011847
4327+132822458+132786181+132923538+133046198+132930484+132516974+131989559
4317+131702933+131981627+132826338+133753389+134146883+133964856+133841535
4307+134195922+134614298+134566833+134331316+134579630+135360605+136103666
4297+136393168+136238436+135805508+135369749+135342435+135857748+136388872
4287+136154857+134980578+133510203+132525856+132294545+132608395+133163784
4277+133741748+134215711+134559136+134815345+135054479+135349001+135695465
4267+135991334+136177187+136271946+136241991+136103819+136106931+136427781
4257+136728100+136501402+135874291+135595578+136183826+137367222+138368618
4247+138590603+137959042+136754971+135430039+134577071+134649281+135552455
4237+136751986+137815571+138621255+139077635+138998551+138415947+137814431
4227+137779185+138347689+138896033+138822248+138212719+137680022+137658379
4217+137965880+138031361+137499116+136602817+135973725+136108034+136945428
4207+137941541+138678415+139251767+139767469+139855535+139240624+138390424
4197+137982295+138100017+138483319+139065461+139763942+140251543+140355934
4187+140293645+140316518+140441413+140524223+140377233+139972352+139691677
4177+140067653+141138238+142343974+143104870+143251407+142987275+142717109
4167+142791644+143149187+143308532+142893448+142096501+141515986+141557790
4157+142032557+142364541+142224452+141842507+141651408+141782769+142009512
4147+142077806+141954956+141762672+141565749+141311483+140961836+140575423
4137+140288589+140329660+140910582+141897380+142815784+143390103+143745566
4127+143972010+143907922+143414894+142560424+141595613+140950621+141015289
4117+141740459+142647974+143250539+143357371+143128476+142924145+142881591
4107+142643280+141865896+140996196+141002681+142175974+143671492+144470646
4097+144403871+144001016+143747510+143763049+143874313+143824560+143626704
4087+143653530+144182537+144978145+145494300+145399062+144824029+144170481
4077+143780070+143805684+144223047+144798017+145173667+145144345+144803733
4067+144453037+144383956+144602531+144765710+144546682+143967434+143267370
4057+142691622+142425807+142446899+142516875+142496372+142410658+142208823
4047+141933313+141991333+142646491+143425023+143610343+143140297+142591076
4037+142475552+142823508+143329171+143759250+144115509+144359481+144316530
4027+144118466+144287949+145001190+145725203+145950961+145793434+145589981
4017+145412973+145160752+144691411+143815696+142585902+141574323+141488500
4007+142530713+144316367+146234421+147721645+148464389+148533000+148161628
3997+147462614+146539986+145662535+145097613+144955191+145273617+146043141
3987+147105794+148145231+148777280+148730819+148095930+147329625+146918711
3977+147090880+147753102+148495991+148805128+148546558+148129304+148007485
3967+148225780+148602262+149055694+149561303+150044482+150433328+150642425
3957+150543000+150168399+149919497+150392664+151879282+153826921+154950000
3947+154563261+153611429+153472471+154177554+154610401+154095811+152964610
3937+151988738+152060442+153778515+156565854+158558334+158369162+156845271
3927+155978673+156509163+157397974+157581992+157542739+158422777+160179253
3917+161268705+160306218+157756042+155376407+154359781+154608284+155727547
3907+158172120+162698244+168605357+173392538+175126204+173899296+170539501
3897+166247374+163121902+162908472+165129432+166980133+166548028+165753948
3887+166989702+169186676+169857680+169724583+170787878+171573764+169694465
3878+166928399+166564814+169013784+172810820+176871646+179685195+179499405
3868+177723827+177466243+178695503+178517582+175697340+172416629+171414257
3858+174174806+181127994+190505242+195446920+190456602+181186113+174128444
3848+171050347+171632553+174754280+179046697+183688933+188260152+191518450
3838+191749028+189305232+186335884+183822012+181551127+179812866+179318897
3828+179828314+180595351+182352080+186637949+192120065+194403775+192903961
3818+191298526+190032220+186530230+181374833+178168142+179182272+184029183
3808+189667351+192842405+194598212+197959851+201838233+202307710+199865488
3798+198012236+197188798+196041064+194835392+194868585+196563613+199672733
3788+203944492+208791421+213308138+217654966+223384248+231115000+238973659
3778+245109594+250662583+258183397+269160545+283488317+299111337+312668851
3768+322448232+328886251+332464359+334408217+337015174+341050530+344979742
3758+347883970+351554440+358847190+371576745+388676190+404686617+415132787
3748+423550371+435665449+451599180+464640803+471550034+477577220+487232476
3738+500784492+515392676+527143084+534750254+540397358+546038782+552001970
3728+558410541+565162147+570882836+573951347+573829790+570680531+565420961
3718+559947943+556814458+557948842+562514345+565769207+563006071+555453168
3708+547560339+542541206+541938487+545050338+548836793+550765384+551264816
3698+551887287+553551927+557206225+563835442+572836281+580644526+582618375
3688+578987629+574533119+571958902+571816471+574748267+580695934+587853308
3678+593305994+593872861+589166953+584097641+582169375+581003082+576747874
3668+570225706+564996779+562482545+561703497+560998577+560177418+560696530
3658+562903616+564805327+565836786+569054710+577025176+587801683+593675910
3648+588557143+576877716+566500175+560997745+559766947+560481563+561735695
3638+563728863+566707400+570108961+573514104+577489623+582225812+585241178
3628+583675267+579665814+577820069+580873675+588756301+598324730+604750955
3618+606123424+605333523+605509563+607089004+609025373+610649096+612193517
3608+613859639+615242636+616165671+617325669+619475269+622768443+627101866
3598+631848438+634807620+633563979+629532204+627994006+632641379+641441721
3588+647400677+646264266+642138791+640352414+641072421+641434775+640187300
3578+638706334+638124092+637680627+636577428+635857639+637551690+642868059
3568+650243511+654676568+652735207+647060969+641809792+638066570+635388560
3558+634106137+634346211+635127937+635560042+635475893+635123523+635084162
3548+635349560+634766305+632985934+631691500+632393852+634491573+635940413
3538+634805160+630868460+626425201+624410109+625744049+629101619+632327502
3528+633363917+630876998+625568299+620183120+616871206+615316221+614205425
3518+613367118+613266255+613626800+613717317+613289336+612596318+611962631
3508+611940997+613112934+614695052+614373144+610881428+606143647+603432499
3498+603909826+606040288+607577257+607191531+605017367+602536199+601303593
3488+601603577+602835135+604481540+605879008+606152836+605208240+603814751
3478+602203980+599945414+597760830+597486676+599264479+600753151+600111288
3468+597867482+595145842+592434910+590450570+589939815+590456213+590660870
3458+589623405+587505606+585600928+585425937+587039819+588764115+588986318
3448+587783124+586714257+587242631+589193796+590951159+591127814+589380400
3438+586135886+582505718+579488327+576915702+574469338+572956210+572875932
3428+572888485+571439284+568901860+566788402+565805059+565516940+565398097
3418+565808712+567665382+570794708+573076898+572340359+569122471+566330900
3408+566209705+568243102+569701566+568251821+564493983+561400220+560990943
3398+562498319+564032574+564820630+564883796+563829907+561501300+558759003
3388+556675138+555748160+555847720+556385609+556695614+556310685+554966036
3378+552866542+551023330+550705293+552267224+554554227+555714768+555176915
3368+554384482+554795061+556045467+556918613+556970275+556409052+555519770
3358+554715724+554319905+554246211+554339621+554554118+554416824+553184362
3348+551035486+549278811+548878289+549422762+549946288+550179307+550446949
3338+550737238+550418477+548963198+546901835+545578857+545510192+545686413
3328+545269828+544922776+545554618+546946044+548080067+548039114+546734803
3318+545155362+544229758+543612496+542694165+542063625+542436797+543097291
3308+542962855+542306522+542169589+542900702+544062401+545023856+545267295
3298+544741454+544130125+544327004+545489896+546815009+547263032+546590708
3288+545688656+545543511+545986216+546001737+545058406+543599328+542489038
3278+542364587+543236213+544522978+545658303+546448964+546681441+545969104
3268+544291116+542261227+540805731+540732145+542258369+544551269+546120833
3258+546160267+545129893+543715060+542035371+540236766+538862452+538168204
3248+537870607+537738595+537747639+537651407+537084287+536100510+535158192
3238+534599321+534379470+534379108+534747179+535448445+535760043+535071692
3228+533801352+532649313+531646976+530622210+529586554+528262129+526421739
3218+524804709+524436566+525124555+525588895+525050789+523953849+523073576
3208+522620777+522413443+522296481+521994109+521096941+519608522+518057372
3198+516867564+516079037+515730394+515916419+516378081+516597462+516301493
3188+515444265+513962105+511963728+509773211+507547964+505313491+503400855
3178+502339838+502249973+502595361+502605563+501909253+500744298+499479168
3168+498102575+496439165+494593855+492893726+491654101+491082278+491089368
3158+491163026+490694635+489566799+488362374+487758281+487648337+487333845
3148+486675052+486229308+486121788+485742140+484678628+483120314+481421234
3138+479963675+479088720+478611899+477903470+476790213+475769390+475169964
3128+474804245+474477272+474120705+473517697+472684853+472225868+472426545
3118+472499624+471633351+470205892+469040359+468086935+466773869+465224347
3108+464233045+464111705+464280763+464151682+463790882+463423354+462955868
3098+462378727+461993761+461882044+461658069+460957345+459802918+458509751
3088+457524671+457198566+457455898+457807580+457783124+457206019+456177526
3078+455053597+454207982+453591154+452791413+451688069+450629766+449857049
3068+449284393+448895846+448770853+448695061+448298265+447604125+446971126
3058+446510007+446051600+445582992+445176320+444616146+443673069+442646530
3048+442053326+441841289+441419495+440453625+439295400+438547428+438277326
3038+437861248+436787352+435322775+434072080+433254068+432703084+432183465
3028+431540517+430879227+430538977+430567484+430427839+429554838+428059075
3018+426670218+426037472+426157328+426405796+426070936+424902581+423282223
3008+421907402+421180956+420905862+420685938+420415077+420128080+419695722
2998+419024483+418285592+417619417+416862401+415818352+414588966+413488045
2988+412800310+412645035+412859641+412993570+412586572+411567884+410347107
2978+409373858+408642890+407868038+407039897+406401073+405967232+405536863
2968+405016955+404340108+403356946+402168874+401205610+400725750+400560310
2958+400406809+400089169+399587314+399034846+398612509+398317227+397915801
2948+397229621+396437766+395967168+395964852+396026137+395617945+394640572
2938+393430865+392354257+391518012+390767254+389889152+388883415+387992542
2928+387380815+386914016+386438317+386109896+386112139+386169228+385779125
2918+384906919+383982980+383199446+382337840+381380943+380733292+380600954
2908+380608298+380338016+379889631+379533933+379126501+378325746+377239514
2898+376410287+376121843+376028107+375617419+374854217+374116881+373597227
2888+373081009+372351596+371512023+370790280+370230974+369697500+369106286
2878+368594807+368398109+368499696+368514456+368103479+367400223+366763172
2868+366216528+365516456+364741206+364344953+364447553+364488253+363934338
2858+363009675+362296542+361927024+361591043+361071424+360388645+359629603
2848+358892738+358228590+357563248+356840166+356145339+355531333+354885165
2838+354120588+353334883+352680467+352222748+351971242+351904168+351873490
2828+351596116+350911347+350032340+349344279+348931348+348498229+347775220
2818+346831564+345985298+345512529+345409134+345372486+345069318+344427998
2808+343621418+342859989+342295582+341995598+341858521+341646990+341219480
2798+340645558+340031625+339345553+338509561+337597633+336834286+336364773
2788+336051692+335561848+334696118+333605617+332654472+332092055+331854549
2778+331645262+331179910+330369640+329325230+328242145+327280364+326531705
2768+326066208+325889553+325802618+325465913+324735560+323806013+322941043
2758+322223678+321629316+321137518+320661095+320042350+319257116+318506033
2748+317982832+317623553+317191339+316565105+315845280+315199980+314687307
2738+314250137+313827547+313396202+312902956+312261130+311502811+310850638
2728+310502574+310380800+310223644+309916099+309603705+309426580+309238203
2718+308723866+307803906+306773894+305988515+305549174+305347303+305215726
2708+304951629+304372679+303482168+302509751+301740054+301324283+301222172
2698+301275209+301324410+301249486+300959939+300451155+299833749+299219797
2688+298610259+297925218+297122492+296330185+295819194+295680634+295606651
2678+295227908+294567594+293919473+293426843+293009914+292576525+292139228
2668+291785918+291589329+291519470+291451203+291249675+290848231+290294316
2658+289714154+289208500+288819555+288558370+288373883+288170348+287933728
2648+287707618+287409587+286890674+286223939+285691279+285410251+285189224
2638+284829528+284381143+284008279+283773487+283648312+283564489+283371264
2628+282907938+282202800+281488329+280995844+280782486+280682691+280419209
2618+279884450+279281985+278876977+278713526+278676245+278652658+278510136
2608+278098128+277436512+276804381+276509335+276589992+276804924+276904810
2598+276846980+276708981+276490522+276131586+275689695+275340780+275170185
2588+275092349+274979909+274744447+274343364+273853321+273477960+273361830
2578+273448711+273575513+273611636+273490785+273219634+272879022+272551959
2568+272255230+271973352+271742757+271653289+271737782+271902227+272021559
2558+272055693+272006238+271832929+271497726+271063197+270696392+270537609
2548+270541516+270508468+270316057+270022711+269723486+269442169+269178525
2538+268945325+268772649+268714096+268769845+268821290+268753710+268595722
2528+268448281+268347960+268252705+268096671+267852382+267575659+267342766
2518+267134763+266884848+266635693+266512852+266535210+266600402+266663279
2508+266756038+266817721+266704557+266422571+266169310+266082827+266078902
2498+265991081+265785212+265554472+265328796+265012712+264572124+264152283
2488+263901065+263787414+263688124+263544065+263360066+263165955+263032080
2478+263014534+263040147+262936137+262627795+262238126+261935501+261738876
2468+261546501+261315526+261114776+260993382+260881756+260676702+260386738
2458+260114538+259898214+259666407+259375882+259084183+258835860+258570117
2448+258211507+257811672+257544772+257534805+257703790+257854289+257885800
2438+257826288+257699901+257541353+257473810+257545097+257567311+257354767
2428+257021662+256822595+256822957+256917471+257043459+257209026+257378952
2418+257434177+257278396+257004713+256862824+256942216+257015222+256879068
2408+256696860+256777102+257161470+257634094+258007592+258237500+258366021
2398+258470882+258596925+258710866+258836692+259276340+260618148+263457872
2388+268131365+274785328+283703393+295411382+310355186+328578995+349786658
2378+373527404+399161938+425770915+452258119+477473970+500231300+519597344
2368+535496706+548614771+559126676+565945391+567771672+564186148+555409284
2358+541743128+523673653+501777313+476923274+452340821+433638383+425135926
2348+428166342+441736772+461993544+481827363+494844132+499842608+499735559
2338+498035936+496623020+495606430+494461843+492742105+490003100+485812325
2328+480156140+473555937+466429278+458543215+449489593+439504940+429339545
2318+419514182+410129716+401135136+392364820+383444585+374047240+364295752
2308+354671428+345534417+336964923+329010629+321765814+315171291+309003591
2298+303144667+297687568+292733336+288230909+284054116+280136499+276520260
2288+273337935+270722621+268662778+266967134+265438360+264058167+262923999
2278+262041266+261294561+260608073+260001773+259493948+259064032+258687803
2268+258319587+257909243+257503150+257216370+257049229+256864959+256585614
2258+256267377+255950245+255573528+255104775+254650221+254336164+254126171
2248+253867827+253520033+253224191+253113433+253151890+253217553+253256208
2238+253274496+253255557+253183600+253116056+253138468+253262304+253422788
2228+253555922+253641952+253707289+253811932+254006730+254286510+254605343
2218+254942880+255325024+255773590+256274161+256810475+257397475+258057662
2208+258780653+259522944+260256083+260996041+261737519+262398158+262935395
2198+263479054+264211125+265144851+266135900+267072501+267953751+268793976
2188+269540916+270154452+270709054+271284640+271808256+272184232+272495938
2178+272867699+273232749+273431816+273443646+273382108+273331115+273241359
2168+272979433+272495287+271927081+271482007+271208070+270917745+270375063
2158+269554429+268658762+267894167+267304382+266827253+266486913+266497567
2148+267038965+267950513+268954315+270181820+272084508+274859148+278347843
2138+282383544+286904621+291877845+297307052+303188261+309442823+316007174
2128+322886596+330091145+337661595+345668165+354014335+362353558+370305356
2118+377691119+384608129+391359301+398260790+405557267+413639304+423201294
2108+434927607+449062299+465449335+483796509+503527440+523467224+542108594
2098+558329105+571877792+583384219+593680251+602763612+609677872+613398230
2088+613283330+608853602+599726937+585696292+566944038+544361083+519303328
2078+493112672+467085973+442376681+419724736+399605439+382395326+368079855
2068+356166322+346096942+337519887+330249422+324191449+319180926+314921883
2058+311259988+308277652+305992495+304301373+303212772+302807347+303108399
2048+304210821+306363568+309924456+315398776+323372099+334315819+348616458
2038+366637382+388427252+413427412+440529490+468221841+494827997+519029211
2028+540220160+558423203+574021423+587299683+598183095+606680125+613172048
2018+617872096+620344906+619779885+615679083+608309202+598442958+586622619
2008+572819205+556795465+538698097+519295912+499561002+480028397+460756234
1998+441905830+424119047+408126672+394049104+381320924+369401314+358336290
1988+348470879+339927831+332544275+326086431+320401811+315434483+311130978
1978+307368581+304021214+301024588+298328001+295901571+293839882+292264457
1968+291006200+289592091+287772358+285852215+284257054+283051310+282111687
1958+281445658+281040125+280656896+280051844+279261237+278550293+278169687
1948+278237267+278818405+279881031+280920486+280990652+279736339+278010397
1938+276868650+276529793+276578796+276626894+276562100+276450474+276382297
1928+276499693+277129328+278441453+279919217+280880238+281511555+282330797
1918+282892020+282376797+281210847+280664457+281268532+282493216+283511706
1908+283913566+283845751+283661065+283555951+283585725+283852987+284539258
1898+285732232+287124617+288080826+288473552+289044525+290195786+291060919
1888+290717992+289628721+288811089+288553070+288590804+288704040+288781297
1878+288767784+288694724+288716593+289329930+291314795+294783249+298120523
1868+298831829+296448576+293073297+290638292+289491752+289138569+289094197
1858+289071712+289004784+289025893+289243140+289687455+290479491+291873576
1848+294224559+297632397+300939083+301751577+299383862+296188368+294367008
1838+294062700+294316703+294702139+295972931+298944920+302774914+305196081
1828+305388003+304729644+303978742+302569208+300627177+299301522+299152923
1818+299664637+300202326+300864394+302186124+304118170+305669067+305959537
1808+305354177+305018558+305866597+308140647+311242839+313789886+314654133
1798+314325821+314622332+316983969+320972584+323797620+322856641+319532174
1788+317243254+317357032+318918349+320708994+322479562+324105274+325115388
1778+325829100+327728496+332049583+338128756+342838571+343326499+340546287
1768+337101674+334589467+334182035+336398093+339735801+341705489+342108616
1758+342476904+343106973+343908162+346257426+351349096+357613788+361513225
1748+361778841+360411328+359553485+360092748+362006434+364379069+365953300
1738+367268211+370726354+376897599+381558901+380420066+376076477+372299681
1728+369941083+369129656+369886419+371582678+374204685+379300153+387982014
1718+397835885+402974658+401050155+396087820+392150504+390930307+393000859
1708+398113367+404485470+409674132+413899493+419914560+428116344+434251304
1698+435593890+433994189+430288157+425498317+422821501+423945105+427964869
1688+434106195+443390703+455205724+462605126+460368410+454398602+451196017
1678+452530717+457377428+462903265+466976428+470919350+476308509+480852377
1668+481522205+480754155+483011420+488855620+494929221+498410772+500795019
1658+505453897+514594309+528685407+543503312+548668531+545234121+544348819
1648+548319635+551550293+548837625+543184660+539841091+540641665+545754644
1638+554540371+563643592+566690614+562590463+558248212+558378198+562720811
1628+568743077+574565244+580267375+585823058+590061299+593435004+598573813
1618+606480859+613874255+616763687+616948916+618340161+621642307+625157611
1608+627345052+628273297+629007051+630211402+631709589+633203072+634942346
1598+637405243+640637783+644218641+647777647+651319288+654868165+658042097
1588+660385609+661990446+663450574+665320593+667908449+671603555+677045967
1578+684171649+690406277+692268338+691768436+694233070+701047119+708772842
1568+713799935+717416030+722714816+731052448+743945851+764663091+793147731
1558+815674213+822096820+823111818+826124326+830639506+834962366+838295334
1548+840928195+844201977+849026765+855122978+861428297+864068248+857115277
1538+844320856+835107438+831107065+828374210+823807441+819240816+818083785
1528+820538651+823988618+826665470+829390077+832065482+832119459+829204920
1518+826129318+823932543+821742641+819845633+820042077+824019007+832125102
1508+841528743+844240253+836050877+825686215+820522950+821246646+825781290
1498+830072458+829627908+824747479+820712810+820927415+824094257+826298919
1488+825155490+821761960+818157515+815558806+814363571+814365742+815599036
1478+818874120+824785393+832359822+838577664+839595991+835036096+829459538
1468+827075290+828478980+830864530+830823433+829196816+830047858+835449750
1458+842805956+845515223+841346263+835545259+831946313+830997374+831525423
1448+831560225+830003938+827850865+826663951+826949537+828720285+832256499
1438+837043879+840313393+839565964+836715604+834932411+834518973+833878485
1428+832413655+831072334+830346467+829896346+829959005+831082030+832030751
1418+830212538+825698443+821208371+818268363+816468962+814848929+813195035
1408+812158330+811866739+811173287+809575033+808821020+810597195+814024949
1398+816892674+818294338+818336015+816864383+814626510+813482647+814105118
1388+814903630+813973360+812164046+812491743+816471784+822748885+828987999
1378+834275353+839108679+843429585+846064254+846754306+847129105+848486706
1368+850333137+851966049+853953067+856662985+858556665+857889622+855451325
1358+853364964+852275729+851328962+850081124+849168581+849150420+849740838
1348+850301084+850508092+850648027+851655573+854353842+858262903+861559260
1338+862645600+861714462+860342173+859912094+860725439+862332881+864457374
1328+867113894+869843131+871820019+873108665+874880209+877928099+881676820
1318+885017169+887621594+889984641+892606721+895683046+899221792+902855469
1308+905651129+906765398+906561935+906608098+908168654+910891452+913255657
1298+914156118+913690584+912656557+911898998+911912022+912256577+911544385
1288+908924549+905263377+901909860+899059862+896371216+894169809+892887965
1278+892089960+891013532+889617367+888516483+888250794+888945476+890435125
1268+892379091+894394979+896339018+898333488+900325354+901737799+901988437
1258+901349830+900823157+901126615+902140455+903325923+904335133+905011798
1248+905075109+904168137+902208903+899545292+896884214+895106664+894682880
1238+895036190+895083511+894668771+894713703+895781231+897384116+898844605
1228+899990277+900811146+901146440+900931690+900435189+899974720+899432129
1218+898455045+897224138+896725684+897932351+900742988+904089776+907068494
1208+909589927+912036183+914731269+917563829+919853219+921005114+921453643
1198+922443173+924761360+928099828+931516005+934125784+935673172+936800393
1188+938513112+941203567+944406297+947455054+949959050+951667717+952497921
1178+952841029+953312929+954163537+955493570+957918698+962077239+967392233
1168+972216370+975564099+977866079+979727778+980880323+980651247+978994892
1158+976897605+975908148+977159893+980660942+985385518+989984847+993453771
1148+995357364+995758573+995104917+994070238+993472077+994112421+996126137
1138+998666166+1000832118+1002863779+1005559660+1008333468+1009274013
1130+1008003891+1006834197+1007866271+1010536394+1013271782+1016168883
1121+1020108188+1024064424+1025615719+1024231275+1021985877+1020934050
1113+1021759188+1024263328+1027419316+1029721875+1030475382+1029925121
1104+1028315435+1026349907+1026034366+1028913523+1033636363+1036921360
1095+1037055072+1036113659+1037514528+1041666846+1045919594+1048344361
1087+1048974791+1047879913+1045294156+1043072490+1043266475+1045881173
1078+1049372817+1051843963+1051726314+1049618897+1048278590+1049361530
1070+1052161241+1055708381+1059536332+1062751723+1064694677+1065671472
1061+1065473508+1062834859+1058092846+1054496215+1055072234+1059388727
1053+1064241082+1067103019+1068264319+1069316146+1070616803+1071289851
1044+1070940303+1070074790+1069030560+1068191819+1068405846+1069676620
1035+1070582217+1070014663+1068734338+1068259182+1068917831+1069608461
1027+1068613650+1065179167+1061385657+1060862168+1064064680+1067168283
1018+1067616668+1067660081+1069859317+1072810178+1073741823+1072445146
1010+1069971757+1066297488+1061282407+1056006557+1052166595+1050790110
1001+1051659602+1053494168+1054781801+1054636367+1053134563+1051522345
993+1051226846+1052077381+1052870105+1053174358+1052842103+1050738449
984+1046369499+1041555419+1038232580+1036166623+1034087135+1031846368
975+1030366632+1030053913+1030573640+1031714247+1033163160+1033682236
967+1031967635+1028517379+1025033622+1022114524+1018932850+1015101427
958+1011774681+1010135908+1009607281+1008197585+1004705146+999979123+995070186
948+989653026+983673305+978831225+976792473+977172193+978340367+979506443
938+980972938+982638409+983635753+983635681+983033830+981585135+978530734
928+974378849+970992410+969834944+970916075+973059308+974737297+975103559
918+974485501+973778373+973764988+974596566+975442977+975245664+973697697
908+971210344+968415191+966011986+964523278+963930762+963868464+963903556
898+963611024+963076102+963000130+963374061+962876185+960750897+958192273
888+956627665+956132032+956298449+957124745+958465848+959446188+959136291
878+957683978+956070747+954748022+953327111+951710262+950653804+950560973
868+950721456+950615890+950956683+952492856+954537396+955632709+955333520
858+954245805+952807890+951138946+949885320+950110706+952049970+954641804
848+956423261+956566742+955200603+953189491+951389584+950021637+949193532
838+949398225+950465826+951258259+951383289+951832108+953248099+955044389
828+956601327+957664731+957466478+955354575+952279480+950465247+951540372
818+955274116+960009184+963633816+964802642+964474294+965129398+967325594
808+968392182+965791954+960786929+957138058+956889807+958603974+959695162
798+959632503+959556964+959713034+959577730+959634601+960564871+961744116
788+962387715+962838995+963516890+964193845+964577183+964414456+963567684
778+962611365+963144912+966168924+969926039+971019615+968355860+964313665
768+961286397+959788790+959894501+961741367+964251512+965067751+962755424
758+958743909+956542068+958359558+962477146+965036711+964551497+963007655
748+962670335+963934886+965581328+965901572+964948293+965128819+968019625
738+971684559+972851576+971297242+969598922+969329905+970048320+971179665
728+972639937+974157949+975756275+977723467+978807565+976441406+970416246
718+964305345+961680226+962744426+965490161+967990611+968308033+965172232
708+960794020+959377812+961937377+965318389+965991582+963310171+959259584
698+955978132+953983083+952914904+952454290+952234982+951656141+950137188
688+947688255+944750056+941395815+937317443+932952255+930215855+930452457
678+932308584+933512212+933161145+931336347+928178406+923732108+918030520
668+913175994+913029041+914671359+912330814+906466354+902103482+902706345
658+906448338+909453755+910812513+912415397+914690243+914700301+909759817
648+902314904+898164249+899480462+901602205+898800396+892496307+888549838
638+888346665+888602440+887584982+887020612+887938582+888156805+885418451
628+880556834+876139840+873553649+871889336+870238191+869671360+870873035
618+873061055+876223266+879651816+879072396+871585806+861974868+858528591
608+864029755+872767366+877889606+880081967+882966117+884063600+878714961
##END=
