##TITLE=<SNM>
##JCAMP-DX=4.24
##DATA TYPE=INFRARED SPECTRUM
##DATE=2/5/2025
##SAMPLING PROCEDURE=Instrument type and / or accessory
##ORIGIN=Admin
##XUNITS=1/CM
##YUNITS=ABSORBANCE
##RESOLUTION=4
##FIRSTX=4497.3318
##LASTX=599.83466
##DELTAX=-1.4281778
##MAXY=1.8311096
##MINY=0.32687092
##XFACTOR=1
##YFACTOR=1.7053537e-09
##NPOINTS=2730
##FIRSTY=0.35520744
##XYDATA=(X++(Y..Y))
4497+208289596+209219917+208621635+207256867+206591006+206806080+206600548
4487+205005869+202652586+201106821+201387761+203044724+204505276+204549036
4477+203417237+202303979+202082929+202764151+203751163+204375292+204443028
4467+204278529+204093408+203677905+203047502+202833075+203484239+204548983
4457+205174091+205025879+204455208+203993097+203874734+203819441+203259955
4447+202066921+200873835+200329238+200421213+200909485+201833235+203077980
4437+203920660+203713818+202809570+202159805+202155086+202397038+202465473
4427+202333269+202023197+201467381+200842466+200515914+200500256+200420374
4417+200136655+200060933+200718895+202129572+203668118+204538777+204442154
4407+203750150+202989937+202351514+201789074+201335456+201066225+200885998
4397+200616906+200230500+199834011+199533900+199400437+199447971+199634962
4387+199951011+200331388+200437745+199953492+199219231+199013804+199448583
4377+199678599+199120878+198405141+198494547+199258482+199609674+198979971
4367+198035547+197785819+198464576+199368981+199553577+198675980+197246954
4357+196154755+196041512+196958150+198273602+198975130+198474957+197128888
4347+195802671+195185253+195535834+196584169+197482912+197390622+196389944
4337+195325112+194630486+193931911+192953723+192185700+192251426+193043391
4327+193836371+193967701+193269161+192205395+191673381+192231014+193484042
4317+194673546+195589397+196247796+196227874+195304578+194263967+194087759
4307+194668933+195129820+195104778+195030401+195358228+196025557+196688097
4297+197094950+197139898+196781540+196135200+195533860+195226426+195101492
4287+194989368+195062137+195527935+196066415+196023477+195188084+194071087
4277+193382735+193394287+193819122+194243608+194541692+194765940+194897725
4267+195023760+195460164+196217598+196678730+196407717+195939227+196057433
4257+196659664+197115100+197321471+197559211+197755883+197703403+197519331
4247+197338300+197105366+196907348+196850220+196708544+196359833+196186054
4237+196470699+196927200+197228884+197423442+197524032+197265828+196638921
4227+196294561+196895797+198109120+198831934+198555048+197808153+197130286
4217+196438561+195635988+195039331+194929042+195250560+195917277+196959321
4207+198230349+199296789+199815259+199763618+199186604+198174584+197157601
4197+196672544+196702288+196717684+196465509+196351829+196910336+198082347
4187+199116771+199184769+198170302+196800641+195979002+196091615+196854327
4177+197648302+198051572+198142027+198300899+198710495+199084336+199038550
4167+198692390+198548163+198753171+198966130+199035614+199254410+199768913
4157+200188681+200062785+199515463+199160198+199408371+200007055+200323611
4147+199922752+198780468+197247461+195981763+195549028+195832817+196133627
4137+196026291+195792326+195874339+196294159+196815198+197370193+198016813
4127+198563576+198560378+197812819+196742045+196047611+196085359+196713437
4117+197599702+198411415+198845181+198827670+198586749+198272623+197738267
4107+196887653+195987355+195528931+195899697+197019228+198193633+198690293
4097+198527209+198296233+198273689+198171421+197665918+196762282+195715834
4087+194874832+194566402+194951655+195848965+196677577+196837235+196381765
4077+196107885+196678416+197750885+198304219+197889292+197118420+196684707
4067+196490709+196194215+196021171+196398035+197183727+197856823+198169394
4057+198223411+198171823+198054875+197826729+197524801+197364269+197515906
4047+197921186+198464908+199070565+199502968+199423156+198800041+197988799
4037+197287043+196696713+196254122+196290681+197078663+198277481+199028222
4027+198810439+198084095+197879052+198740920+200149186+200957736+200461652
4017+199061478+197780558+197273832+197454461+197844659+198060118+198028207
4007+197901525+197891494+198192252+198810876+199364927+199352117+198760161
3997+198144840+198079498+198703487+199671539+200373626+200344617+199625735
3987+198736709+198291724+198510118+198931948+198850109+198264322+198003794
3977+198613120+199617504+200218687+200265941+200171467+200222059+200341733
3967+200414293+200582217+201095095+201933214+202762071+203251077+203271856
3957+202835976+202128506+201619839+201914742+203305899+205236933+206385090
3947+206056650+205267271+205361990+206086150+206095307+204993653+203714167
3937+203363499+204608942+207347758+210220788+211181115+209561026+207100424
3927+206092983+207068024+208566866+209160867+209325191+210408600+212367036
3917+213418377+212126465+209266507+206758546+205589244+205700442+207299560
3907+211104519+216926824+222785252+226293280+226766488+224721250+220588149
3897+215668658+212470597+212747256+215714654+218160769+217855188+217014692
3887+218788777+222427873+224663405+224995951+225066204+223951181+220376868
3878+217018100+217154114+220620567+225350988+229943910+232724056+231774407
3868+228760173+227344324+227861973+227439899+224634378+221397276+220311072
3858+222962736+230329320+241296170+248165674+243241447+232642777+224440240
3848+220893521+221519449+224895378+229444104+234393601+239642912+243906714
3838+244491906+241034453+236533698+233029113+230149687+227551551+226081562
3828+226170880+227469817+230721336+237126056+244262730+246322892+243058004
3818+239755613+237376204+233185521+227705652+224346797+225255658+230300713
3808+236778009+241264749+244295182+248414564+251914221+250859822+246970963
3798+244396716+242965208+240954711+239168411+239309126+241310063+244148840
3788+247668123+252297796+257809051+263799945+270789543+279044035+287019370
3778+293245225+298964686+306729962+318080701+332756620+347983933+359640952
3768+366374146+369731620+370801380+370695268+371246453+372715149+373498202
3758+373461118+375204079+381273754+392073343+404896204+414198961+418073053
3748+421858474+429942263+440193253+446497837+449103890+454404632+465990210
3738+483359315+502446496+517046814+524343181+527628865+531488558+537955211
3728+547089432+557574493+566807312+572815647+575155369+574182145+572008093
3718+572045072+576118772+583027038+588728813+587816789+579154798+568220471
3708+559719920+554940829+554251446+556966267+560262961+561191517+559798386
3698+558435593+559619085+564620887+572528695+580976364+587502156+589772744
3688+586962575+581549359+577171021+575949083+577889554+581867522+587834824
3678+596452951+604496826+605780314+601981927+599529661+598077287+592265484
3668+581876190+571939343+565491074+562797224+563024828+565150367+568021492
3658+569696052+568763722+567479464+570128053+578294886+588692114+592968009
3648+586253619+574837486+566343471+562608241+561154014+558989888+555765894
3638+553689216+554787881+559030642+565161761+572666824+580875389+585487343
3628+581848299+573329818+566343296+564128595+567403864+573994526+578480689
3618+577584602+574629699+573937380+576325720+580746279+586195600+590841071
3608+591915270+589320122+586471576+586180151+588146591+590537972+593196452
3598+597720362+603873851+608345404+608811027+607594366+608731827+612607667
3588+614994924+612896087+609266585+607701388+607893341+608289761+609032130
3578+610670307+612200972+612173500+610707495+609631758+611126214+615767911
3568+620982742+622468949+618714810+612075706+605683359+601537274+599985568
3558+599886096+599944185+599876449+599942438+600099719+600178710+600317747
3548+600630563+600770229+600241413+599220620+598613303+598792814+598768347
3538+597315065+594606814+591988249+590461428+590006150+589946803+589747859
3528+589684806+590335813+591212675+590960955+589144736+586577759+584015606
3518+581726878+579949315+578773058+577906820+577264062+577206218+577723849
3508+578234735+578327112+578033240+577409391+576377972+574948981+573319403
3498+571760322+570409307+569250316+568272653+567305581+565945129+564214926
3488+562796664+561986489+561069537+559383163+557502144+556807028+557901779
3478+559556347+559713454+557977763+556039389+554911050+553513445+550912461
3468+548155977+546813455+546955079+547243289+546441711+544652790+542948800
3458+541984943+541614597+541625152+541981273+542102939+540773350+537421817
3448+533440773+531548849+532997064+535813734+536829284+535121974+532295727
3438+530101473+529130416+529007282+529039927+528965235+528830288+528304268
3428+527028888+525456561+524461422+524287014+524291942+523614023+522046170
3418+520372273+519710362+520328269+521272798+521552305+521466289+521742057
3408+521600084+519440991+515647671+512638628+511804581+512133020+511935893
3398+510647197+508941250+507950830+508212791+508977041+508831363+507370845
3388+505842417+505628234+506433446+506642351+505519570+503980027+503207459
3378+503458376+504050804+504152827+503739526+503747600+504863006+506524810
3368+507607781+507646822+507005008+506190324+505292595+504163627+503049828
3358+502547680+502821280+503353207+503481828+502882760+501798425+500972976
3348+500913314+501324448+501675186+501760678+501405745+500570824+499876268
3338+499942012+500308968+499929429+498498236+496759679+495830354+496310658
3328+497610538+498294434+497459793+495479441+493298748+491603706+490744144
3318+490815445+491526953+492314340+492848958+493208259+493369630+493041890
3308+492283792+491612409+491238883+490861407+490224416+489265941+488014678
3298+486897873+486641609+487436161+488671382+489625802+490066785+490204074
3288+490233468+489974233+489211557+488396593+488421898+489542408+491027286
3278+491984957+492121617+491623664+490755294+489766761+488858442+488016356
3268+487192060+486747023+487151901+488077206+488403548+487451924+485755799
3258+484344772+483624317+483269874+483050169+483187074+483686461+484077708
3248+484206225+484476924+484983825+485220132+484875930+484241281+483754617
3238+483594713+483572554+483153696+481878386+479895274+477819540+476139632
3228+474970015+474183327+473628822+473229991+472767233+471856642+470582835
3218+469627961+469258838+468848333+467844876+466506024+465367235+464666178
3208+464422776+464493308+464436791+463719377+462283395+460802361+460114691
3198+460329607+460680940+460306400+458965486+457033857+455058190+453377757
3188+452214327+451958552+452737097+453637761+453359233+451876696+450365673
3178+449429707+448529322+447128642+445402912+443784379+442562859+441860789
3168+441431515+440620116+439034682+437151636+435819704+435291902+435093482
3158+434705870+434126095+433738973+433673404+433447757+432542653+431171087
3148+430071269+429695191+429894519+430085005+429496212+427741787+425389972
3138+423587524+422950708+422986743+422681302+421618986+420331304+419445913
3128+418961800+418626300+418430153+418298490+417852055+416951215+416045762
3118+415593210+415426282+415048946+414424293+413969994+413750533+413231853
3108+412022707+410408228+408930794+407852296+407188043+406887495+406822625
3098+406790435+406627770+406245681+405606034+404856394+404390211+404448895
3088+404701944+404613936+404142650+403547286+402763779+401660011+400579311
3078+399962103+399732472+399475124+398919011+398126311+397459367+397255670
3068+397365138+397255774+396643599+395702111+394730704+393905710+393261659
3058+392751437+392334815+391951887+391414158+390593113+389705974+389110995
3048+388868607+388713142+388336960+387575122+386528954+385576421+384988537
3038+384551749+383875053+383015002+382392831+382083755+381606387+380558402
3028+379190331+378165134+377826139+377859169+377760850+377403471+376875005
3018+376087862+375005415+373999686+373468563+373235192+372736539+371733921
3008+370518588+369451659+368600835+367872726+367277677+366946896+366956647
2998+367156605+367156011+366593606+365499100+364309247+363467406+363026003
2988+362643704+362013564+361259975+360744755+360536130+360331139+359866739
2978+359170890+358419153+357680838+356877094+356041788+355472254+355352545
2968+355371698+355062482+354391973+353683646+353085871+352453948+351771171
2958+351361784+351429415+351622383+351435008+350837931+350111150+349361686
2948+348642314+348178683+348046217+347908438+347436977+346790375+346355963
2938+346129967+345708067+344899395+343956404+343120644+342370899+341698363
2928+341214844+340926984+340682393+340299115+339650066+338799347+338022970
2918+337487932+337057085+336553295+335976071+335403531+334940249+334688913
2908+334547849+334224338+333636978+333045214+332632962+332302320+332018270
2898+331959377+332108515+332042037+331393093+330314630+329250252+328414527
2888+327744053+327214852+326911893+326773275+326503555+325889143+325090641
2878+324478990+324244396+324275537+324359770+324399161+324452392+324617992
2868+324844338+324874990+324481681+323758885+323058177+322566410+322091314
2858+321386518+320536428+319835650+319403999+319094504+318708220+318198068
2848+317720352+317516549+317644052+317833210+317730592+317277691+316736712
2838+316335888+316017760+315584781+314992144+314402372+313955378+313530717
2828+312843186+311875485+311052832+310740365+310736730+310586334+310198547
2818+309796221+309466593+309120888+308745405+308456565+308357967+308378694
2808+308256014+307807167+307170980+306606933+306187900+305852156+305546400
2798+305193460+304738182+304255607+303816581+303321179+302656262+301886490
2788+301133286+300438590+299873075+299564069+299467149+299297564+298867032
2778+298330946+297918553+297579384+297094432+296427383+295759495+295198034
2768+294632939+293963233+293323656+292898454+292608794+292209892+291605703
2758+290865326+290087988+289427195+289004177+288662439+288109192+287371349
2748+286776125+286444313+286139064+285643050+285008244+284405051+283905839
2738+283459578+283007271+282585791+282280245+282071533+281831451+281513288
2728+281213876+280954274+280554848+279885212+279101146+278460695+278012949
2718+277607791+277148476+276738478+276563301+276614208+276600280+276249629
2708+275615504+274932500+274315012+273773666+273355104+273092671+272948339
2698+272855595+272700498+272339537+271788561+271275176+270968600+270786485
2688+270523160+270042997+269396779+268861165+268715732+268878483+268941676
2678+268638926+268083826+267535018+267139542+266906451+266752210+266567648
2668+266337703+266181487+266210759+266347367+266338035+265998394+265396477
2658+264759433+264277243+263998732+263797743+263478706+263035783+262671676
2648+262450224+262183369+261782633+261420431+261229054+261125807+261033395
2638+261019590+261105500+261127275+260924032+260553372+260183253+259870332
2628+259584482+259332045+259105122+258838512+258531848+258273609+258095304
2618+257950884+257842342+257812406+257813053+257697171+257373224+256929584
2608+256571174+256446118+256566701+256827474+257022188+256964414+256713025
2598+256548666+256632060+256817495+256849843+256621976+256242613+255941803
2588+255860209+255867671+255677762+255207665+254721157+254522091+254596678
2578+254686520+254648161+254561272+254494812+254378406+254180738+254052535
2568+254171004+254507307+254841600+254992101+254982262+254983748+255129758
2558+255402834+255691638+255919067+256078428+256162399+256111964+255856224
2548+255402484+254878352+254446998+254144633+253847073+253448609+253014494
2538+252673210+252406635+252088384+251734710+251519304+251465427+251353355
2528+251069863+250823770+250848446+251073428+251230780+251169580+250971248
2518+250804686+250730327+250685292+250644923+250671766+250766677+250818649
2508+250751647+250599871+250413929+250213028+250034862+249908880+249773740
2498+249549823+249305879+249216893+249323565+249453951+249418493+249195782
2488+248916258+248729267+248672890+248634898+248471098+248170078+247864358
2478+247699264+247713035+247792393+247745540+247492177+247161309+246914464
2468+246732419+246489733+246167620+245860240+245610861+245347169+244987816
2458+244582361+244308866+244282407+244396367+244429955+244288751+244061322
2448+243874349+243768586+243716473+243703488+243729003+243726626+243580162
2438+243268587+242915962+242669152+242574957+242557499+242488260+242318029
2428+242126198+241994728+241907978+241831067+241802774+241897161+242122773
2418+242362015+242426816+242239860+241958518+241844996+241995042+242250992
2408+242415212+242476604+242540198+242624676+242673451+242690070+242729915
2398+242837688+243078294+243569047+244497743+246211589+249259376+254262681
2388+261759513+272167960+285837660+303052367+323871918+347933358+374527488
2378+402958808+432711469+463066204+492574449+519295068+542054496+561386302
2368+578429939+592723069+602121104+605417867+603672041+598583454+591077064
2358+580938791+566638916+546168531+519618090+491674343+469601083+458347124
2348+459244504+471111371+489815064+508235755+520806126+527254605+529963834
2338+530762545+530454833+529466859+528225907+526801564+524711884+521586068
2328+517636376+513073494+507506422+500425286+492034728+483076767+473873832
2318+464136663+453798888+443432907+433572149+424033435+414177780+403578743
2308+392259215+380563784+369016059+358135102+348210244+339200940+330830513
2298+322818794+315083017+307722270+300863705+294598547+288962095+283867148
2288+279162049+274818610+270948135+267623445+264806094+262426352+260437612
2278+258809502+257497057+256392328+255347121+254305794+253352527+252541880
2268+251757237+250867774+249972701+249311297+248919316+248550787+247987736
2258+247281245+246624873+246123092+245761886+245484319+245187738+244747052
2248+244163048+243602077+243194665+242894711+242600594+242291553+241990638
2238+241714662+241506805+241427308+241456422+241454500+241305554+241091302
2228+240996828+241028232+241001302+240845820+240728610+240819205+241078422
2218+241320863+241407368+241355343+241289931+241319168+241475978+241724046
2208+241976151+242173487+242370072+242655503+242997416+243268570+243422391
2198+243529727+243648615+243767222+243882195+244034199+244237355+244449650
2188+244647650+244874887+245163657+245427278+245519567+245452129+245443898
2178+245639766+245886051+245918644+245676360+245319995+245039719+244917878
2168+244898497+244843833+244665161+244418316+244242143+244191551+244177658
2158+244098667+243962706+243837422+243750114+243671123+243568838+243500071
2148+243597079+243913075+244437644+245329414+246859835+249057846+251702066
2138+254674200+258056682+261914260+266163120+270644110+275302881+280304595
2128+285879934+292079785+298771964+305788509+313002286+320323608+327596837
2118+334506186+340701057+345929660+349943768+352483587+353463941+353021980
2108+351391388+348812318+345513352+341748099+337737696+333454461+328623502
2098+323028713+316667543+309716427+302541236+295562229+289020115+283013702
2088+277626193+272869401+268697854+265129535+262198328+259863185+258034278
2078+256572939+255320331+254214466+253259347+252409239+251640901+251027869
2068+250632393+250425952+250306663+250136536+249846719+249486456+249132887
2058+248865421+248766892+248793892+248798995+248770073+248823724+248969244
2048+249107040+249200501+249316819+249527262+249766872+249855352+249773845
2038+249756194+249971076+250321797+250620754+250797312+250965778+251325359
2028+251890052+252443387+252857719+253220778+253636648+254157390+254769513
2018+255232707+255214201+254753855+254284683+254129376+254238967+254381516
2008+254387178+254231242+253997627+253793440+253682032+253663001+253683133
1998+253726281+253976201+254739175+255947098+256881229+256836054+255980232
1988+255062721+254524014+254338194+254376256+254546085+254758381+254935148
1978+255017284+255032890+255134476+255414927+255827110+256420935+257323540
1968+258303912+258784390+258539485+257978793+257572727+257443179+257587738
1958+258040412+258664174+259147378+259358381+259476062+259726175+260183568
1948+260900632+262095554+263897110+265694840+266241604+265101731+263401883
1938+262436103+262388604+262729871+263056387+263270430+263416510+263579524
1928+263926330+264800397+266337423+267919782+268845122+269504971+270580411
1918+271396528+270763627+269160874+268229347+268668652+269818469+270659733
1908+270730091+270311704+269952298+269872591+269927657+270036706+270425349
1898+271348977+272573572+273423347+273777144+274476505+275920596+277001418
1888+276570414+275195178+274145392+273793046+273846138+274086045+274377680
1878+274586952+274720606+274987478+275951248+278473120+282700485+286793583
1868+287792916+285102648+281293443+278798431+278039197+278221644+278542184
1858+278640765+278585751+278673584+279089192+279839304+280979054+282740993
1848+285549485+289582502+293517882+294497677+291692488+287967726+285972311
1838+285795718+286190076+286623072+288021953+291385509+295787946+298619575
1828+298868744+298063078+297053679+295201390+292708161+290954243+290597091
1818+291044837+291610509+292456091+294173397+296604377+298501649+298820371
1808+298030782+297539260+298432829+300999247+304527110+307380409+308250212
1798+307727932+307901291+310413744+314830982+318035754+316966238+313066701
1788+310249367+310163072+311775104+313684014+315556505+317212402+318136449
1778+318775432+320884824+325877434+332928337+338280772+338542768+334962443
1768+330670925+327432041+326493559+328474084+331795769+333794784+334299798
1758+334909142+335767376+336697260+339297615+344998762+352119148+356596468
1748+356736659+354765360+353408159+353885911+356045388+358616594+360158584
1738+361460561+365377609+372530256+377818345+375961233+370052650+364765434
1728+361293214+359848144+360384440+362089304+364879795+370444910+379916308
1718+390267889+394565349+390539742+383404326+377854275+375554503+376908383
1708+381517296+387457755+392234819+396190838+402179075+410407703+416239778
1698+416841013+414025497+408511376+401838543+397896365+398331092+401837215
1688+407544583+416682508+428513656+435254958+431283666+423330490+418579850
1678+419056518+423739702+429417257+433407807+436813375+441034676+443312708
1668+440739580+436856540+436826971+441001507+445310780+446466660+446411857
1658+449365222+458089287+473206748+489805557+495508207+491385364+490573372
1648+495839232+500640098+498714376+493566791+491371139+494060656+501592316
1638+513458904+526548864+533530004+531753909+528758427+530837586+538397453
1628+548712125+559572704+571052450+582816840+592576692+600140263+609040589
1618+621502401+634094791+641149818+643854923+647036138+652013229+657211843
1608+661153671+663840322+666080293+668428333+670926456+673527615+676445435
1598+680069764+684659313+689946914+695180269+699976522+704723493+709719108
1588+714627765+719071916+723006544+726407323+729376732+732784082+738106913
1578+745827976+753479695+757438999+759445564+764524713+773926173+784385824
1568+792544270+799547568+807996880+818677494+832537785+851790810+874286704
1558+886897269+885414348+881512854+880073202+879611493+878387911+875944872
1548+873584039+873669111+877166846+882969981+889144231+891314857+883289088
1538+869392867+859894592+856465501+854358276+849277449+842935782+839629651
1528+840229279+842698252+845754060+849792983+853611783+854150665+851564534
1518+848691872+845978938+842754663+840241442+840559221+845017213+853661134
1508+863050221+863737437+852008139+839265457+833060520+832586647+835117135
1498+837869844+838200764+835776250+833488815+833962478+836976624+839671034
1488+838951243+834700653+829545169+826027162+824835596+825211185+826695924
1478+829806606+834836894+840536572+843662144+840956339+834003231+828332912
1468+826895986+828713324+830852984+831211446+831336852+834794672+842917957
1458+851455416+851383276+841860954+831995059+826389120+824296784+823476823
1448+821570079+817733595+813627215+811326988+811372355+813521172+817637408
1438+822478608+824560249+821899882+817924639+816417112+816959769+816450036
1428+813581428+810612789+809869371+811379415+814358959+818442970+821915959
1418+821438312+816740134+811266731+807391381+805116319+803506733+802293637
1408+802325652+803934539+805520777+805436544+804590998+804866136+806447551
1398+808336329+809809814+809994078+807904748+804465172+802219470+802297481
1388+803082771+802234569+800234505+800077223+803387269+808977479+814698408
1378+819683888+824490346+829227181+832512620+833373615+833152302+833803518
1368+835716762+838287514+841161924+843777064+844855457+843709748+841244829
1358+838853728+837228694+836275567+835672094+835518238+836258091+837908850
1348+839746249+840959905+841529334+842300853+844044093+846374379+847959009
1338+848194303+848014792+848492509+849698964+851292542+853251153+855618487
1328+858136043+860521621+862688683+864672459+866838193+869879601+874059939
1318+878690311+882762649+885963086+888813869+891903161+895188321+898300471
1308+901380885+904987389+909067695+912717259+915147995+916418412+917120727
1298+917687989+918201357+918645730+918992798+919035229+918524239+917526863
1288+916266652+914769331+913106339+911555052+910155106+908585644+906700990
1278+904785229+903235061+902435022+902850315+904660383+907248330+909504239
1268+910831207+911653336+912709080+913979707+914765276+914889983+915179591
1258+916376680+918317046+920635308+923337967+926168058+928442142+930043199
1248+931592948+933136965+933702969+932647644+930475409+927982949+925452951
1238+922887931+920363805+918043865+916266093+915492337+915739863+916262039
1228+916169347+915142193+913510658+912005088+911139829+910571587+909745264
1218+909098243+909437132+910559145+911782866+913096203+914737525+916591911
1208+918476145+920017436+920451673+919813389+919742088+921747954+925232057
1198+928019159+928628433+927730110+927274063+928458988+930954944+933913377
1188+937044191+940483138+944041898+947110149+949372419+951102307+952520918
1178+953656562+955067553+957530794+960890051+964218551+966736526+968014352
1168+968155206+968071393+968583152+969444217+970121437+970911970+972601525
1158+975595329+979660396+983654862+985683655+984970226+983219995+982755909
1148+984061627+986243438+989111697+993064500+997154523+999325569+998736777
1138+996733218+995818118+997858865+1002385991+1007030554+1010304529+1012713036
1128+1014668152+1015283089+1013932494+1011787451+1010977485+1012646838
1120+1016017210+1018982424+1020392087+1021470830+1023579732+1025760845
1111+1026607789+1027324994+1030352561+1035884752+1041425261+1044025652
1103+1042688268+1038889671+1034629994+1030707109+1027546167+1026339851
1094+1027554485+1029848700+1032285518+1035472534+1039469097+1042606761
1085+1043445807+1042739297+1042471429+1043980704+1047103619+1050297695
1077+1051609984+1050183893+1047347161+1045888076+1047717857+1051787048
1068+1054551990+1053739368+1051388392+1051426419+1054983431+1059605485
1060+1062242855+1061411429+1057677562+1053802351+1053112408+1056867246
1051+1063441551+1069944274+1073741823+1073073830+1068578370+1064213419
1043+1063965543+1067104326+1068844002+1066175596+1061054993+1057416264
1034+1057230392+1059378441+1060903304+1060038744+1058498083+1059572142
1025+1064013776+1068783116+1070183273+1067854735+1064765793+1063736122
1017+1064533715+1065097762+1064886725+1064655276+1064232153+1063075399
1008+1061571996+1060378403+1059988973+1060914069+1062652346+1063088261
1000+1061061145+1058605174+1057782766+1057173212+1054138444+1048616389
991+1042759779+1038514292+1036363378+1035847074+1036572597+1038475636
983+1040991723+1042616827+1042336446+1040836189+1039550953+1038962090
974+1038249010+1036637607+1034534087+1033107018+1032688019+1031760267
965+1028568567+1023344998+1017897110+1013820998+1011687979+1011239272
957+1011636810+1011625416+1010154378+1006813296+1001744911+995887322+991238914
947+989516156+990247201+991064646+989726074+985937473+981614394+978910477
937+978038158+977686826+977146336+976524130+975136626+971776879+966892689
927+962900181+961908328+963678830+966012820+967339648+968048674+968856962
917+969326920+968792861+967716216+967109528+967189567+967395361+967501893
907+967796744+968008830+967154895+964846070+961878759+959462982+958543408
897+959340442+960909484+961748599+961281088+960211713+959603137+959858563
887+960101336+958999316+956666094+954571522+953230573+951889764+950903783
877+951926044+955259017+959145902+961695473+962050790+960055270+956516921
867+953712834+953840197+956476797+958800581+958466655+955319344+950803682
857+946844098+944590636+943689028+943300157+943559847+945345658+948687020
847+952042712+953678441+953158433+951287201+949002632+946826413+945455895
837+945892858+948461303+952125547+955188066+956442405+955559950+953176818
827+950976412+950324217+950647449+950884350+951362207+952307155+952537206
817+951733391+951677609+953575404+956913201+960595899+963128903+962778270
807+959354632+955158287+953176678+955112221+960431488+966401131+969972404
797+969875938+966446708+961077042+956237729+954339444+956003065+959795161
787+963472896+965674210+966270413+965297433+962907101+960455464+959860870
777+961380420+963108492+963292686+962231978+960965267+959341001+956874265
767+954465409+953982729+956224727+959682198+961965299+962421975+962400445
757+963084725+964133129+964398900+963673098+963097307+963786830+965701892
747+967588713+968053358+967017256+965629263+965097231+966201418+968737498
737+970521352+969424365+966372890+963447451+962072879+963544756+968175688
727+973619661+976276953+974637518+969237234+961328273+953825377+950488979
717+952036491+955302916+957247268+957946157+958095400+956640090+953271956
707+950501212+951484327+956368867+962279163+966375756+968622857+970966145
697+972923078+970593352+962301112+951924226+944455584+940961833+939367836
687+938813995+940767922+945073526+947634141+945131056+940197584+937303601
677+936559484+935212524+932882728+931864940+932795768+933029035+929044146
667+921957033+916478808+913714495+913150588+915494784+920866058+925666295
657+924372391+916156206+906697705+901932419+902143806+903465252+904051458
647+904798721+904216639+898601683+888928370+882150788+883506836+891130733
637+898321791+899666864+894515295+886165945+878933364+875579140+876895902
627+882318276+889839485+895391738+895074659+890065761+886004678+886114426
617+887487320+884807241+877363553+869610825+865107046+863431612+863466913
607+865815792+870788620+877467988+884959629+891228108+892190951
##END=
