##TITLE=<SNM>
##JCAMP-DX=4.24
##DATA TYPE=INFRARED SPECTRUM
##DATE=2/5/2025
##SAMPLING PROCEDURE=Instrument type and / or accessory
##ORIGIN=Admin
##XUNITS=1/CM
##YUNITS=ABSORBANCE
##RESOLUTION=4
##FIRSTX=4497.3318
##LASTX=599.83466
##DELTAX=-1.4281778
##MAXY=1.8049796
##MINY=0.2530098
##XFACTOR=1
##YFACTOR=1.6810182e-09
##NPOINTS=2730
##FIRSTY=0.27285585
##XYDATA=(X++(Y..Y))
4497+162315819+162716205+162931786+163037254+163370253+163685204+163464712
4487+162827559+162423539+162605524+163123965+163453986+163214772+162424886
4477+161467676+160826304+160867913+161597256+162374997+162352482+161537545
4467+160843660+160848376+161207543+161428709+161496166+161649733+162098323
4457+162844773+163398052+163050285+161855599+160828130+160803983+161589065
4447+162463304+162997879+163056330+162549430+161613211+160647545+159958287
4437+159569550+159333474+159071195+158748142+158571032+158696799+158913622
4427+158892489+158609255+158238193+157838445+157406538+157040315+156825815
4417+156721251+156713805+156918874+157393064+158014101+158579524+158835615
4407+158551317+157912126+157611376+158102887+158948973+159245238+158557398
4397+157272083+156158470+155695715+155839424+156387809+157231467+158044240
4387+158216883+157500021+156326716+155227003+154331649+153632959+153311378
4377+153558215+154227173+154807222+154847165+154450023+154172480+154362408
4367+154826564+155246168+155571295+155793010+155648805+154918044+153906000
4357+153292497+153438741+154053574+154640501+154992204+155036153+154580436
4347+153614380+152599817+152110593+152357147+153151855+154032317+154466618
4337+154274899+153759418+153241668+152724805+152107668+151400593+150747005
4327+150509848+151038820+152062176+152777778+152834174+152655521+152630559
4317+152651053+152546135+152360728+152177164+152082068+152247016+152741700
4307+153280548+153434220+153245657+153345772+154092240+154920260+155108061
4297+154754727+154310551+153741831+152927427+152278591+152225032+152542979
4287+152688585+152481514+152172998+152068399+152245934+152523832+152660928
4277+152630790+152609409+152655521+152653021+152710108+153223904+154192460
4267+154846810+154502571+153518928+152822153+152714735+152803574+152878283
4257+153117798+153505951+153756156+153806258+153818632+153807038+153731425
4247+153791844+154217688+154861365+155235513+154969936+154234336+153668417
4237+153764737+154403769+155070689+155383388+155329617+155110224+154906769
4227+154859220+155111766+155664140+156301878+156829999+157134047+156989487
4217+156236034+155146940+154286813+154140834+154952934+156492409+157931645
4207+158502634+158299552+157983643+157936130+158102142+158273792+158180557
4197+157677646+157017481+156594190+156468440+156478775+156597788+156745770
4187+156541376+155774147+154905776+154594052+154899801+155405903+155921242
4177+156569121+157277100+157714628+157809281+157885887+158173199+158536603
4167+158801949+159007584+159211553+159286422+159031731+158410764+157620453
4157+156921019+156501291+156562118+157231307+158195360+158805370+158823400
4147+158626789+158513307+158366300+158111539+157943647+158007453+158230693
4137+158453792+158550378+158576510+158814625+159369889+159785556+159501347
4127+158690736+158130650+158165328+158303771+158026937+157531880+157333052
4117+157508230+157747975+157865942+157890142+157773062+157346934+156665193
4107+156181181+156373059+157255418+158398886+159293584+159540191+158984679
4097+157963894+157142681+156829202+156734442+156556729+156397986+156417930
4087+156505599+156572862+156824982+157410615+158032557+158226403+157945899
4077+157626817+157665572+158021193+158375289+158501429+158349600+157937212
4067+157395528+157047886+157165657+157638820+158116538+158432553+158644907
4057+158757503+158692474+158502209+158389330+158512917+158865967+159297006
4047+159593997+159571163+159148173+158446168+157810363+157567958+157700587
4037+157899450+157976339+158063334+158398088+159059795+159867428+160426964
4027+160402215+159909675+159557352+159848671+160576949+161081810+161076403
4017+160903938+160883621+160814248+160398137+159812096+159502375+159598678
4007+159834523+160004737+160284798+160990649+162060171+162915617+162982933
3997+162319613+161539619+161110655+160999177+161037542+161219527+161493826
3987+161651701+161578694+161366605+161152388+161038552+161121186+161489713
3977+162200883+163148839+163920907+164074172+163699812+163366459+163370271
3967+163492528+163655703+164213538+165259657+166215324+166482461+166113331
3957+165608275+165394360+165576115+166059453+166910716+168206899+169382048
3947+169655071+169384158+169658599+170465416+170651833+169688543+168169208
3937+167001470+167222636+169631155+173515627+176402892+176423901+174603692
3927+173399964+173720429+174354976+174200434+174099771+175474439+177947402
3917+179266969+177729356+174152283+170815363+169246424+169622344+171746618
3907+175840519+181899030+188535604+193408594+195216499+193934180+189740147
3897+183981482+179680988+179184070+181811149+183999530+183361615+182437788
3887+184534513+188426430+190317678+190123726+190349838+190065292+187224121
3878+184307939+184908057+188660893+193116265+197298828+200285605+199916599
3868+197078229+195484522+196000340+195723701+192737367+189117674+188150678
3858+191841693+200919514+213485480+220735964+214417887+201538991+191395638
3848+186981078+188041965+192782859+198833586+204659709+209800758+213202174
3838+212918107+209167416+204848183+201751399+199403033+197184743+195610627
3828+195140354+195779812+198643038+205177955+213017157+216016398+213437346
3818+210396337+207774807+202754615+196293821+192497426+193766768+199682598
3808+206783416+210898716+212799945+216112647+220016745+220414170+217830473
3798+215558270+213484735+210500192+207925058+207520116+209329829+212838044
3788+218076282+224710870+231359322+237270507+243731353+252059142+261203179
3778+269379085+277322834+287378855+300868293+317097919+332894007+344038466
3768+349458990+351132547+350753826+350345959+352332960+356589486+360020528
3758+361024187+362515954+368783557+381804708+399115078+413450744+420610067
3748+425701405+434131878+444480990+450671048+452321238+455384090+463857112
3738+478512675+497217694+514432116+524724567+528708816+531886691+538526562
3728+548933541+559949041+567607747+571107399+572296749+572207750+571248023
3718+570366763+570336412+571428821+573274772+573917828+570931884+564943650
3708+559016261+555322799+554446787+555571533+556803964+556825770+556039891
3698+555586283+556706030+560880083+569002396+579696934+588266117+589257827
3688+583368945+576843069+573308066+573023201+575835865+581459064+589006540
3678+596810409+601102393+598670933+593715965+592152965+592777902+589331366
3668+580249681+570457322+563840533+560579014+559004241+558497696+559854618
3658+562695257+564942799+566510729+570171960+577076699+583707351+583727349
3648+575787394+565266774+556891686+552170418+550666489+550998797+551636145
3638+551768649+551812616+553128195+557440354+565900293+576934124+584135252
3628+582066273+575320526+570947273+570906107+574528867+580506180+586145335
3618+588998598+590215143+592005887+593904847+594646794+594931731+595335662
3608+594583574+592799921+592649617+595395443+599072382+601176925+601825513
3598+602985185+605487702+607967455+609034086+610263680+614358947+620223044
3588+622233695+617611956+611122106+607386874+606010699+605147948+605145112
3578+607246250+610295663+611189900+609107838+607431125+610096321+617208592
3568+624423903+626837209+624031956+619021603+614256971+610817739+608838574
3558+607777332+607093003+606569863+605935813+605117100+604824009+605381542
3548+605519684+604144289+602177535+600649885+598909136+596645248+595438560
3538+596400592+598023763+598237430+597063859+595965387+595983966+596868772
3528+597325748+596233941+593768939+591053570+589036147+587847223+586952134
3518+585784733+584208010+582286712+580008215+577803257+576846402+577863287
3508+579975417+581517391+581525724+580064628+577706990+575125368+572867827
3498+570937238+568664060+565802324+563733913+564348249+567622710+571429530
3488+573854608+574596981+573701006+570600038+565614647+560910896+558296262
3478+557134888+555949155+555009497+555448567+556610082+556423576+554250459
3468+551776343+550894587+551663837+552722880+553193862+553395012+553510852
3458+552523539+549605744+546001670+544070479+544708181+546518427+547362882
3448+546345111+544295527+542631579+541909205+541482403+540469738+538985417
3438+538065509+538249852+538771751+538339560+536341496+533237337+530161295
3428+528222233+527953820+529096295+530555760+530845199+529287943+526758336
3418+524647872+523295099+522139292+521097445+520741559+521212186+521813793
3408+521731886+520746275+519243233+517696401+516256650+514873419+513498911
3398+512098873+510864882+510290152+510504953+510944519+511255410+511790144
3388+512556487+512732037+511878221+510502542+509016555+507379342+505978701
3378+505624765+506318029+506911835+506430819+505155663+504044709+503656698
3368+504034639+505106022+506675157+508241951+509191360+509101653+507764197
3358+505268382+502407000+500536264+500441415+501625837+503075728+504103001
3348+504243058+503340879+502053879+501340369+501243002+501056886+500684228
3338+500723480+501148366+501194071+500803684+500719544+500902150+500458222
3328+499294579+498267837+497738067+497364665+496913291+496209815+494937566
3318+493174266+491520530+490485775+490257145+490933709+492516743+494631745
3308+496468123+497225672+496786673+495734827+494620080+493555717+492472811
3298+491345299+490242820+489406201+489027764+488897812+488684961+488528629
3288+488874694+489784497+490816628+491636299+492296871+492760407+492740019
3278+492317082+492113733+492361475+492289283+491129753+489418292+488525899
3268+489103997+490636859+492272157+493412647+493762080+493548661+493451331
3258+493753393+493844129+492879331+490755996+488270038+486371326+485326536
3248+484711030+484119812+483496222+482875787+482388814+482347613+482814765
3238+483318651+483333224+482788420+482035055+481522943+481375865+481163298
3228+480297498+478700777+476805576+475062167+473716769+472779699+471997543
3218+471093803+470088265+469275793+468874946+468671456+468102576+466945032
3208+465790785+465358948+465455357+465269560+464565907+463735564+462922453
3198+461971236+460990908+460231976+459633561+458972456+458204057+457401088
3188+456658608+456125683+455784795+455331045+454623598+453935191+453355710
3178+452366518+450522127+448206967+446227554+444936902+444078442+443258204
3168+442291173+441169653+439984771+438876654+437877959+436875045+435871528
3158+435102349+434673952+434251405+433290969+431582983+429547086+427945685
3148+427199447+427034960+426878486+426404987+425659423+424915455+424356929
3138+423730182+422630115+421201391+420087743+419689981+419871524+420223900
3128+420296978+419823692+418952502+418068866+417417867+417019644+416759032
3118+416467891+416057612+415540784+414826529+413710045+412239623+410886247
3108+410152810+410075832+410219966+410140896+409762920+409334700+409128195
3098+409155746+409155285+408866236+408262395+407472828+406602915+405697508
3088+404726541+403675334+402752092+402271750+402247887+402332843+402134636
3078+401392759+400080798+398630516+397753228+397687064+397847048+397535164
3068+396767262+396001097+395301451+394361544+393231621+392357949+391904377
3058+391572495+391073573+390428141+389860786+389559965+389418596+389019664
3048+388060646+386727623+385530791+384875360+384778349+384845150+384589786
3038+383868616+382901585+381922782+380971068+379943759+378771925+377596687
3028+376674509+376023723+375379142+374586242+373763948+373039197+372431208
3018+371992848+371802866+371825382+371887893+371752836+371256786+370499025
3008+369841679+369610354+369718393+369564649+368524788+366751277+365188028
2998+364492955+364312761+363927941+363161315+362306329+361634942+361267993
2988+361115809+360820945+360147253+359388109+358986447+358863551+358509969
2978+357684448+356717275+356050498+355651920+355092685+354209227+353373175
2968+352899322+352527125+351839924+350918384+350169381+349715454+349378750
2958+349161573+349283547+349638582+349618478+348803382+347558009+346558109
2948+345971713+345473323+344829274+344119805+343544224+343212697+342994953
2938+342536558+341586830+340286534+339024567+338103666+337584072+337315766
2928+337077279+336743730+336348699+336020753+335856266+335771522+335512435
2918+334933272+334184517+333494586+332919466+332427351+332054977+331846771
2908+331727386+331535277+331179320+330716351+330239732+329734818+329116511
2898+328383250+327662400+327105221+326742421+326425395+325971611+325392697
2888+324869274+324489099+324161259+323801720+323441827+323111824+322743847
2878+322257689+321687888+321157303+320715502+320270795+319729466+319128285
2868+318572276+318107677+317707398+317333073+316964528+316573007+316092275
2858+315483576+314863567+314465061+314385459+314455345+314403932+314062867
2848+313455090+312809729+312405620+312312190+312365979+312369418+312187415
2838+311751926+311138548+310552755+310135030+309855271+309605225+309249941
2828+308613551+307620068+306492095+305636684+305242999+305106985+304927676
2818+304638450+304337345+304014363+303514625+302773032+301982756+301442172
2808+301223187+301102418+300885135+300605943+300290903+299784393+299010641
2798+298195013+297661200+297500968+297438847+296999936+296005071+294903266
2788+294308768+294246859+294232198+294004082+293706204+293395224+292888147
2778+292125865+291268273+290403908+289486287+288565598+287822428+287343362
2768+287033694+286768295+286511459+286266536+285958996+285428942+284615176
2758+283709433+282984079+282483987+282056796+281645719+281328677+281076273
2748+280707107+280127661+279460316+278901063+278529806+278251536+277863667
2738+277201853+276287760+275353650+274667052+274295405+274102959+273968930
2728+273845910+273607122+273112029+272469983+271953670+271618543+271306642
2718+270995520+270783963+270550706+270008703+269138418+268262033+267652023
2708+267292112+267017051+266692792+266270476+265814068+265456284+265254035
2698+265129490+264953036+264613371+264072432+263453966+262982594+262732601
2688+262531256+262181858+261687404+261215447+260924785+260834439+260789089
2678+260561133+260046539+259381658+258850807+258638735+258633683+258521868
2668+258156124+257753221+257594992+257625006+257518563+257105129+256540185
2658+256055570+255685004+255280789+254734957+254132411+253677598+253469409
2648+253384843+253228529+252959300+252692962+252513511+252379199+252184023
2638+251813351+251225147+250602975+250291250+250405246+250644744+250673553
2628+250518019+250396204+250328250+250138375+249743344+249249368+248820315
2618+248578087+248556848+248624874+248538641+248210358+247845288+247693424
2608+247747940+247789655+247663834+247414746+247166029+246968673+246837941
2598+246857106+247081233+247355000+247393897+247071588+246554814+246155385
2588+246047240+246105124+246075039+245896581+245727981+245678075+245689066
2578+245671107+245598579+245467280+245257691+244995235+244816972+244859592
2568+245057073+245212908+245296747+245459178+245749752+246064330+246353380
2558+246626119+246775625+246669873+246409278+246248319+246234810+246135955
2548+245760531+245164491+244523633+244001451+243731850+243724209+243782838
2538+243661999+243283579+242759198+242280664+241994203+241896997+241860919
2528+241779526+241650638+241528275+241445783+241378538+241278548+241142763
2518+241003008+240884651+240847633+240963951+241158453+241234137+241159464
2508+241131311+241252291+241341804+241175207+240776949+240393494+240231879
2498+240270067+240327862+240293025+240204151+240102920+239926182+239617915
2488+239271407+239077703+239137041+239330798+239384658+239112753+238611668
2478+238143381+237842241+237644760+237461658+237255881+236986032+236651632
2468+236369533+236241496+236191607+236086671+235929966+235767270+235525929
2458+235156231+234807543+234639882+234583398+234487929+234372657+234327502
2448+234295058+234128993+233796101+233410607+233123880+233030237+233102464
2438+233159604+232989107+232608187+232311302+232313270+232460276+232466907
2428+232290967+232080846+231926588+231852110+231885582+232002130+232124423
2418+232216187+232266661+232243879+232172840+232158799+232253151+232408420
2408+232582551+232737926+232762835+232582073+232310646+232132507+232118236
2398+232310220+232809213+233607485+234556521+235698199+237453751+240365394
2388+244847785+251263139+260024466+271485932+285779103+302786896+322218367
2378+343631201+366357203+389487277+412112402+433650366+453750813+471878583
2368+487350413+499730777+508662477+513526106+513974750+510442796+503453811
2358+492889684+478498386+460361786+439141380+417708654+401145621+393453337
2348+395820973+407068188+423447303+439184815+450135853+455784724+457221460
2338+455870460+453386523+451066895+449370539+448080242+446606452+444180417
2328+440308888+435165924+429188895+422499312+415069767+407068649+398677569
2318+389989851+381295362+372998740+365109809+357171840+348854334+340361030
2308+332103057+324226111+316631902+309249196+302110332+295314767+289019915
2298+283336775+278206115+273489634+269135404+265143390+261443510+257936022
2288+254637644+251702067+249271972+247348369+245827811+244619563+243670225
2278+242903191+242213100+241535543+240878020+240268560+239704963+239155213
2268+238576494+237944323+237300575+236749371+236357956+236080572+235807674
2258+235463594+235042590+234580438+234105006+233615214+233129589+232743634
2248+232571435+232595830+232637918+232532255+232287846+232025798+231814649
2238+231621104+231377494+231069386+230790371+230687155+230817266+231102096
2228+231429279+231734852+231988727+232181829+232345731+232543991+232824797
2218+233177102+233538768+233862654+234169840+234520124+234954851+235487103
2208+236111119+236795040+237496708+238203535+238909812+239566449+240135576
2198+240674725+241276881+241968089+242734821+243581599+244497501+245402251
2188+246149836+246627360+246895578+247128179+247373190+247561291+247727693
2178+247956571+248181141+248300296+248352507+248376831+248289552+248023923
2168+247614407+247092473+246471489+245856816+245397376+245072816+244716858
2158+244318174+244062260+244009907+244018222+244013311+244097877+244427224
2148+245105472+246132409+247543705+249682002+253004987+257526949+262826953
2138+268593029+274794078+281444835+288510090+295925221+303612488+311551024
2128+319747549+328146749+336708876+345465558+354410058+363438734+372314340
2118+380600963+387799998+393544001+397613384+399983857+400845225+400446931
2108+399122063+397395462+395723572+394202269+392611470+390600429+387974343
2098+384843626+381265223+377009689+371969729+366368939+360418964+354173521
2088+347644454+340810595+333662583+326243782+318582240+310794397+303177283
2078+295984967+289319123+283271551+277889710+273119210+268965882+265515179
2068+262777153+260639068+258840488+257080912+255353796+253894137+252740953
2058+251770288+250986270+250365924+249767384+249219992+248894297+248840685
2048+249091175+249755116+250870891+252438909+254496630+257017372+260013528
2038+263690821+268203085+273439107+279151765+285004321+290577916+295617769
2028+300139429+304245439+308004994+311381573+314224553+316456458+318035698
2018+318654608+317948544+316053484+313493632+310602182+307378709+303739035
2008+299697665+295375524+290929938+286528319+282367580+278581450+275095821
1998+271774379+268817971+266725307+265543031+264434896+262529164+259971759
1988+257524839+255571700+254084153+253037147+252377621+251915734+251488046
1978+251068762+250719169+250485220+250309032+250186030+250410884+251248407
1968+252278216+252591518+251873611+250780546+250052888+249820552+249916979
1958+250318499+250965403+251554210+251849765+251974682+252217052+252747814
1948+253655437+255124830+257241445+259340315+260024183+258678980+256465866
1938+254950645+254594209+254953411+255510040+256000026+256378765+256707811
1928+257183703+258291536+260328301+262606266+264131310+265147450+266456894
1918+267486242+266983047+265395670+264508346+265217974+266909136+268366154
1908+268880606+268712148+268566684+268771273+269176765+269669446+270434884
1898+271657582+273023882+273841585+274089946+274735272+276144157+277026906
1888+276167772+274307478+272876095+272171183+271710538+271267816+270954531
1878+270830873+270788768+270826672+271563762+274119571+278729112+283244709
1868+284173837+280741146+275910864+272592471+271391243+271415833+271658202
1858+271619642+271362221+271236117+271445032+272007494+273052638+274902135
1848+277997838+282420855+286578332+287293987+283856652+279631647+277482658
1838+277295018+277556463+277769421+279199154+283107737+288340692+291615951
1828+291621340+290320282+288930597+286727873+283862538+281918051+281624144
1818+282155296+282621810+283322893+285123902+287875986+290031658+290292129
1808+289199649+288411039+289217803+292011922+296027391+299359542+300396673
1798+299732697+299800810+302607198+307717789+311424016+309985258+305088688
1788+301459227+301169468+303071478+305408231+307596772+309381169+310243956
1778+310742488+312857986+318180542+325852580+331773941+332126637+328186993
1768+323449769+319951926+319081020+321482128+325357417+327632297+328041405
1758+328492034+329349324+330474744+333552665+340070066+348073064+352995128
1748+353043314+350798644+349224971+349554158+351598884+354034812+355375955
1738+356600727+360935437+369051686+375101226+372969878+366172611+360083607
1728+356091451+354409987+354908058+356624341+359512884+365559161+376142506
1718+388009516+393284984+389016721+380900117+374364881+371468077+372761707
1708+377812269+384420015+389706794+394033456+400715522+410153944+417039359
1698+417771378+414280059+407649726+399934961+395581174+396310428+400481893
1688+406996528+417265187+430446890+437515052+432244052+422793999+417296815
1678+417677274+422510304+428245549+432236925+435977758+440989990+443977352
1668+441426897+437163633+436919402+441092994+445362605+446424839+446477565
1658+449903110+459607109+476499046+495416135+502067105+497096961+495696214
1648+501333064+506582932+504033008+497550320+494315216+496724055+504832007
1638+517902941+531939204+538292011+534460726+529431687+530027550+536467973
1628+545795272+555551429+565489199+575056580+582208174+587443965+594652078
1618+605710445+616515470+621276911+621848131+623495910+627537706+632113776
1608+635327286+637186108+639027060+641655167+644663378+647503805+650473368
1598+654361562+659692876+666204569+672743563+678313506+683306413+688794307
1588+694745984+699816898+702970769+704705064+706551902+710100627+716668342
1578+726428648+736049605+740204369+740692689+744712148+754972616+767710781
1568+777610222+785082741+793806625+805490356+821428061+844807650+874866716
1558+895007549+894766084+888108306+883738741+881408547+879379884+876715326
1548+874342867+874736516+879030770+885913135+893299492+896533426+887854644
1538+871263387+859365776+855335255+853999572+849479809+842918760+839658233
1528+841464791+846007956+850766419+855352558+858845473+858713359+855116270
1518+850655295+846045470+841437276+838590467+839346420+844519452+854261036
1508+865801873+869066797+857796003+843570468+836103977+835565733+838827110
1498+841901202+841268640+837266202+834461091+836299206+841597260+845085920
1488+842447885+835351569+828321985+824061274+822858203+823908807+826793556
1478+831652576+838258727+845542754+850959166+850338093+842918051+834536757
1468+830656292+831661015+833789881+833403324+832262090+835101736+843478491
1458+852608150+853033144+843730523+833549337+827138131+824414714+824110844
1448+824303520+823301492+821182412+819052978+817489304+817022471+818732514
1438+822560998+825291861+823555154+819376209+816768454+816318924+815790821
1428+813880372+811831711+811025975+811667614+814078863+818490268+822314923
1418+821016187+814973242+809024543+805506454+803612671+802256139+801513518
1408+801977585+803290220+803761663+802462359+801027112+801546280+804064682
1398+807234225+809788865+810162941+807076936+802362724+799914811+801137172
1388+803416945+803182004+800701896+799513504+801634073+806366014+812304572
1378+818660251+824986572+830396814+833481685+833884198+833413181+834008866
1368+835816842+838408287+842110684+846335441+848394456+846690229+843365098
1358+841222687+840679692+840700824+840623811+840402840+840149957+840093084
1348+840316962+840296042+839559094+838976883+840215979+843471684+846581232
1338+847263150+845900307+844849064+845619342+847751116+849975008+851861416
1328+854020279+856924955+860300364+863836679+867738631+872120748+876607394
1318+880943771+885226182+889274786+892543893+894770764+896286500+897958674
1308+900846046+905172495+909670913+912790815+914466890+915836895+917567645
1298+919342149+920641807+921222671+920906887+919560638+917461414+915245819
1288+913403024+912067128+911040280+909860681+908182054+906288554+904858271
1278+904026368+903351754+902850244+903181346+904452992+905764706+906497115
1268+907182366+908510177+910403322+912544953+914906278+917464535+919996410
1258+922111803+923434721+924225422+925442677+927357876+928737456+928442662
1248+927100668+926097931+925695560+925060942+923651579+921683618+919435473
1238+916955649+914444693+912286185+910565363+909056719+907764294+906841691
1228+905917740+904289179+902092305+900542956+900383113+900740596+900445164
1218+899968616+900816758+903227724+905677409+906771627+906737871+906680714
1208+907154213+908095041+909533338+911464139+913439829+915225041+917196192
1198+919537449+921825803+923842836+926012904+928474219+930608191+932010321
1188+933202614+935081931+938102978+941878701+945302474+947325110+947836052
1178+947628200+947573950+948130278+949363559+951157494+953504140+956579225
1168+960187234+963333730+965148017+965914679+966381512+966650350+966687297
1158+967496294+970676403+976503271+983088218+987794346+989182293+987642659
1148+984616790+981651269+980108373+980674629+982854128+985655339+988474349
1138+990809861+991842028+991251661+990107165+990150140+992221352+995556410
1128+998490728+1000236016+1002041368+1005349266+1008734248+1008947702
1120+1005739582+1003100199+1004983628+1011470146+1018758357+1022388280
1111+1021313422+1018388323+1016880388+1017684280+1019372835+1020224949
1103+1020370537+1021742458+1025261044+1029192993+1031598782+1032952548
1094+1034401624+1035049857+1033350735+1030203247+1028075374+1028148274
1085+1030279339+1033988828+1038275635+1041964559+1044762224+1047026750
1077+1048874368+1050152113+1050547606+1050126726+1050718511+1054868382
1068+1061897966+1067406070+1068732463+1067836099+1066714295+1064465796
1060+1060826512+1058387180+1059069524+1061483114+1063645593+1065676881
1051+1068041397+1070184517+1072059579+1073741823+1073568223+1070470730
1043+1066777339+1065129985+1065516046+1066727273+1067721358+1067369975
1034+1065293515+1062827873+1061744648+1062602506+1064845190+1067430607
1025+1068848267+1067462235+1062654274+1056441913+1053006085+1054707121
1017+1059620391+1063676654+1064787324+1064222132+1064150650+1064839943
1008+1064570679+1062078373+1058312578+1055345994+1054459983+1055179556
1000+1055755315+1055511225+1055908491+1057519465+1057951408+1055305501
991+1051042876+1047631938+1045507398+1043517312+1041059755+1038843380
983+1037691935+1036921231+1035063473+1032238931+1029998799+1028961172
974+1028277765+1026906057+1024900228+1023879337+1025210623+1027211984
965+1026038697+1020699441+1014696705+1011657716+1011082809+1009435810
957+1005216300+1000908786+998948626+998248979+996336900+992967661+989647991
947+987175471+985449473+984310508+983026806+980250345+975926732+972016554
937+970362676+970767955+971743248+972476012+972977948+972887531+971756509
927+969950660+968138216+966760765+966171816+966250461+966125438+965362322
917+964818901+965250064+966035730+966274501+966126147+966108773+965945456
907+964841452+962332766+958572501+954398449+951201745+949897336+950033706
897+950654140+951632695+953239557+954913929+955492170+954611903+952987951
887+951126576+948747096+945721652+942999583+941913095+942704789+944375829
877+945930000+947268520+948688804+949916838+950111712+948717595+946076511
867+943368766+941923520+942367589+944254351+946546747+948647460+950577836
857+952022444+952083998+950522593+948337917+946624754+945664282+944958182
847+943633988+941536324+939785009+939229036+939206272+938851910+938585625
837+938972253+939278038+938968920+939301298+941473777+944649419+946979045
827+947528565+946748997+945881778+945966522+946939474+947841016+947850093
817+946995710+946343931+947518991+951254648+955991127+958484496+956740911
807+952207603+948228424+946760556+946876006+946379814+944818267+944135711
797+946225999+950849440+956150969+960161492+961447960+959788551+957177747
787+956213587+956834376+956792324+955573864+955133198+956682264+959544603
777+962434741+963804109+961860330+956608583+951343788+949535528+951457748
767+954659912+956234578+954929176+952186966+950777674+952182570+955956024
757+960911985+965425437+967558132+966457532+963202041+960368706+960517627
747+964051460+968751489+971849266+972771656+972578413+971342720+968604837
737+965071784+962135693+961096860+962506153+964769261+965239214+963662066
727+962048042+961477957+961544546+961954647+962430486+962142643+961126006
717+960903191+962195687+963397128+962306740+958830986+955114548+952808465
707+951371090+949702107+948227999+947991214+948646397+948775746+947688974
697+945966025+944750189+944604955+945099941+945610103+945676621+944858618
687+942670396+939197550+935262267+931496117+928359834+926301599+925009954
677+923547192+921143034+917836554+915147389+914677223+915822499+916286992
667+914594466+911686102+908828940+905946603+903022993+900101652+897414473
657+895969155+896869917+900318723+904521496+906003760+902654093+896325716
647+891373726+890817399+894301945+898434229+899180964+894318610+885284332
637+876927575+872746147+872304134+872717852+871465991+868095262+863417997
627+859105235+858071011+862362712+870126833+875525941+874075731+868478132
617+864932456+866267288+871257359+877269881+881853610+881030713+871710718
607+858413247+849386060+847885571+851411674+856004976+859251958
##END=
