##TITLE=<SNM>
##JCAMP-DX=4.24
##DATA TYPE=INFRARED SPECTRUM
##DATE=2/5/2025
##SAMPLING PROCEDURE=Instrument type and / or accessory
##ORIGIN=Admin
##XUNITS=1/CM
##YUNITS=ABSORBANCE
##RESOLUTION=4
##FIRSTX=4497.3318
##LASTX=599.83466
##DELTAX=-1.4281778
##MAXY=1.7396438
##MINY=0.28247148
##XFACTOR=1
##YFACTOR=1.6201696e-09
##NPOINTS=2730
##FIRSTY=0.29976571
##XYDATA=(X++(Y..Y))
4497+185021194+184933489+184651758+183922468+182762047+181572231+180698636
4487+180225601+180243683+180987946+182562742+184589106+186206338+186705916
4477+186308023+185938991+186135501+186645012+187021935+186935922+186119975
4467+184758851+183588699+183140166+183308053+183752024+184206683+184569037
4457+185067714+185916200+186660555+186516930+185414691+184158746+183684590
4447+184379150+185702106+186386697+185648872+184239259+183632478+184265582
4437+185178247+185283519+184470075+183391233+182598133+182210173+182260335
4427+182842357+183692481+184067712+183451126+182074752+180449113+178866941
4417+177764352+177944969+179726188+182139354+183705320+183950961+183510375
4407+182944576+182319492+181786969+181686314+182067210+182660785+183126020
4397+183072970+182298301+181157599+180351475+180392587+181361171+182739458
4387+183506824+183006989+181656349+180405960+179786210+179648600+179451558
4377+178832378+178107687+177889638+178196680+178507787+178607063+178659543
4367+178579912+178105921+177410147+176941637+176769924+176719173+176958302
4357+177779399+178935719+179793549+180022433+179798277+179507606+179384748
4347+179237574+178596762+177366515+176102348+175432105+175483996+175974671
4337+176552776+176983319+177260727+177566832+177919547+177994781+177565102
4327+176905749+176368572+175821132+175024500+174346862+174494111+175547935
4317+176789330+177571301+177935882+178218275+178445191+178428691+178142342
4307+177738986+177421441+177367655+177603216+178010012+178499896+178938864
4297+178973096+178339422+177340376+176726770+177060355+178241084+179620696
4287+180521919+180621765+179993701+179108977+178618615+178690482+178798458
4277+178528132+178184668+178272337+178764152+179173468+179254993+179423653
4267+180179854+181306834+182148367+182347911+181767048+180393249+178894625
4257+178317661+178817626+179567554+180012114+180395880+181038862+181698105
4247+181783842+181088656+180165414+179790698+180188168+181040425+182043812
4237+183020178+183604077+183330163+182158208+180607436+179323679+178765293
4227+179164713+180355044+181708185+182624437+183023084+183197078+183371698
4217+183496468+183421510+183216080+183093370+182997534+182626368+181906902
4207+181200329+181091342+181897392+183140221+183859890+183748823+183398039
4197+183265635+183187403+182990011+182846901+182952835+183230336+183384905
4187+183247847+183049204+183092321+183234714+183123647+182829463+182751157
4177+182979949+183228754+183377235+183647138+184173738+184748495+185046873
4167+184914708+184508262+184224617+184221766+184076339+183454290+182912386
4157+183244205+184266649+185089457+185379208+185544906+185824320+185943756
4147+185680161+185183857+184660605+184178815+183831121+183735506+183909482
4137+184361583+185109267+185929077+186361735+186148873+185536150+185062527
4127+185028497+185173317+185063851+184800699+184911618+185487956+185971550
4117+185950028+185688788+185656635+185872661+185972672+185717355+185143978
4107+184388016+183723862+183556067+183964095+184500757+184727617+184680803
4097+184669159+184875013+185175414+185214797+184788448+184174253+183889284
4087+184186118+184925340+185818636+186655294+187307566+187629691+187539521
4077+187222491+186935959+186592183+185963346+185224988+184798215+184784346
4067+185034328+185565177+186407869+187256742+187695930+187624633+187205421
4057+186622184+186185865+186376506+187321730+188441241+189007886+188896562
4047+188525967+188322523+188380779+188404581+188009815+187200804+186395949
4037+185996198+186097718+186536962+187162506+188119557+189534835+190865002
4027+191256181+190697391+190038221+189821202+189909698+190145958+190570799
4017+191054908+191251343+190942462+190297088+189738813+189506692+189494459
4007+189637569+190107679+190937679+191881578+192722541+193305612+193369680
3997+192832375+192127697+191840172+192104704+192611327+192975172+193023292
3987+192981684+193269375+193893098+194306129+194099706+193602942+193614365
3977+194621817+196282534+197652764+198060388+197689811+197161353+196837940
3967+196810201+197220970+198187200+199451937+200407553+200643390+200372990
3957+200086274+199928393+199770549+199838848+200749839+202565512+204207319
3947+204563549+203978050+203657451+203900130+203843953+202821656+201223775
3937+200110076+200546598+202964141+206492201+209055172+209166569+207756607
3927+207023933+207730100+208618227+208552356+208231168+208929941+210498502
3917+211302694+209994527+207097916+204429544+203320664+203967749+206290063
3907+210689198+217309018+224613777+229765250+231158933+229036862+223953247
3897+217358720+212414057+211798372+215048711+218365510+218592572+217584329
3887+218832217+221958190+223839127+224220317+225008488+224864532+221524188
3878+217706892+217734116+221757542+227018168+231851323+235204065+235263994
3868+233063985+232158991+232880646+231837730+227495654+222856544+221540394
3858+225193979+234440451+248046675+257462708+252872435+240099338+228931976
3848+223052262+222717904+226737228+233043806+239628584+245369254+249173729
3838+249429432+246355497+242549697+239526494+236737730+233956471+232245611
3828+232040438+232719749+235062003+241199517+249909015+254856915+253543856
3818+250618825+248019451+243483405+237520474+233824159+234684160+239581678
3808+245204438+247947602+249060860+252388474+257216442+258751450+256440816
3798+253723111+251116012+247538047+244269792+243517491+245651941+249718834
3788+254902920+260399641+265104328+269166438+274679033+282721709+290743158
3778+295565644+298434167+303473304+313200813+327049128+341654269+353031642
3768+360555463+366486755+372253195+378631549+387044379+397428703+406473644
3758+411535535+415466639+423721938+439283376+460077628+478430222+488981384
3748+496119140+505628654+516721941+523140285+524376731+527115830+535983300
3738+551202452+568234426+579304536+580549885+576027617+572328505+573127602
3728+578411958+584930110+588112187+586514214+582545917+578363764+574415517
3718+571293848+570639075+574160936+581895448+590471364+594458534+592338156
3708+587564397+584024067+583697637+585553282+586233586+584404246+582674384
3698+583375107+586442549+591373103+598432976+607696260+617328393+623241512
3688+622954335+618802240+614191089+610936905+609875024+611422007+616309076
3678+624943598+633671159+635621867+631857896+629822279+630861867+629432903
3668+622932409+615238218+609950257+608032660+608967104+612299281+617717549
3658+622739340+623576808+622142473+625525602+636807360+651002082+657214517
3648+650811367+639286948+630336003+626289492+625614264+625547823+625317523
3638+626604848+630351896+634805883+638113080+641333601+645855354+648615717
3628+645646981+640980278+640533805+645212354+653081257+660886367+664476619
3618+663241755+662589778+666874683+674542864+681117819+683509775+681285062
3608+676307492+671614742+669224184+669651453+673025827+678740946+684595055
3598+688102899+688394343+686206272+683424424+682639197+685380944+690440481
3588+694240726+693892848+690080978+685618308+683018199+683743092+687264475
3578+690959723+692369630+691447768+690115927+690164195+692363744+696732086
3568+702268705+706269377+706361570+703183430+698998812+695362574+693003801
3558+692451008+693620608+695458005+696660200+696569111+695705449+695264715
3548+695697281+696663217+698234702+700558893+702741666+703981239+704658748
3538+704458027+701583912+695973715+690864071+689501990+691957077+695492072
3528+697274653+696568743+694626865+693125794+692887695+693653350+694619213
3518+695212253+695528199+695887996+696238155+696151112+695150963+693184289
3508+691173983+690449973+691268605+692456600+692964363+693356904+694492143
3498+695432988+694585734+692031097+689031089+686493889+685055066+685143507
3488+686110179+686967292+688092010+690181927+692466165+693853483+694415695
3478+694203642+692561154+689627588+686917038+685736695+685910561+686432819
3468+686589909+685937858+684352394+682748829+682245259+682091333+680368130
3458+677524844+676512039+678539489+681533978+683386237+683909232+683077135
3448+680370779+676740794+674592676+674695097+675199182+674140391+671389446
3438+668086370+665706774+665641584+668282676+671918547+673477524+671830989
3428+669496939+669415929+671200644+672329408+671998821+671332717+670760793
3418+669587587+667510252+665489056+665177452+666932589+668550281+667673154
3408+665098576+663433941+663680134+665002189+666327922+666963712+666600603
3398+665409813+663647539+661189436+658171181+655535828+654169847+654172128
3388+655293314+657319513+659516634+660567332+659952511+658582557+657625378
3378+657627879+658169268+657568281+654656494+651140114+649665753+650059397
3368+650215383+649753311+649958815+650851025+650912831+649622415+648374528
3358+648421103+649103615+648921067+647482685+645418962+643597311+643142597
3348+644513213+646188811+646232664+644989853+644227582+644413735+644750724
3338+645150842+646400128+648314267+649148718+647735795+645244287+643678026
3328+643642341+644494156+645413075+645585616+644737700+643901483+644351709
3318+645851896+647049162+647167991+646323018+645117511+644759480+646098531
3308+648098535+648873830+648179104+647440819+647492324+647552070+646689217
3298+645392032+645072702+646407192+648530440+649946160+650146440+649770455
3288+649389466+648930191+648057184+646617699+644898322+643540876+642925615
3278+642933561+643363920+644096760+644753593+644854911+644269154+643302924
3268+642885146+643824226+645218019+645257163+643973443+642873963+642272902
3258+641530717+640821938+640605471+640524682+640110657+639422920+638749532
3248+638716422+640079754+642603857+644782730+645015091+642739314+638796622
3238+634990491+632832882+632684548+633859593+635248162+636034788+636188787
3228+636150600+636120727+635869457+635017715+633527166+632016972+631167732
3218+630874449+630527821+629929409+629531645+629809035+630429006+630341963
3208+629065380+627365574+626114302+625265650+624684234+624904675+626262268
3198+628130715+629208784+628165444+624728455+620658546+618720126+619935713
3188+622236138+622445983+619715935+616122482+613801676+612947616+612677731
3178+612448718+612127696+611581598+610879735+610469794+610687732+611278419
3168+611606652+611163637+609811084+607948045+606462537+605874389+605601891
3158+604809196+603670130+602887552+602540593+602213244+601633741+600694735
3148+599352998+597819811+596699361+596629020+597424512+597805684+596600251
3138+594139021+591851950+590774544+590855075+591176391+590627129+588879314
3128+586733845+585225159+584649630+584611075+584570607+584114054+582980691
3118+581260835+579579093+578577214+578254243+578291473+578661388+579255901
3108+579392057+578592887+577474938+576884583+576560176+575625438+574115722
3098+572958078+572524555+572201583+571453439+570475731+569694403+569291783
3088+569216512+569263455+569177148+568879229+568617879+568658899+568693996
3078+568008982+566509861+565065961+564466188+564464238+564236661+563383373
3068+562296070+561831902+562417916+563348534+563547526+562966037+562343528
3058+561801072+560704977+558807614+556694960+555054496+553943942+553046434
3048+552409614+552258080+552310026+552034475+551352184+550522552+549559523
3038+548312297+547016694+546215684+545987628+545592513+544263616+542324718
3028+541020359+541119395+542036254+542472168+541833546+540650517+539456857
3018+538014428+536195647+534784747+534566477+535263300+536014865+536378526
3008+536400452+536123393+535430580+534326575+533127285+532156567+531414788
2998+530725801+529917065+528815341+527519296+526524187+526049018+525590993
2988+524626787+523296822+522132262+521615117+521901741+522431652+522201941
2978+520935548+519464019+518555033+517993226+517264838+516541895+516343785
2968+516574821+516651894+516415414+516154505+515894259+515378880+514518271
2958+513296394+511626829+509764232+508419147+507992614+507986838+507577632
2948+506633660+505754326+505309839+505003018+504539144+504033550+503531967
2938+502857622+502030934+501246957+500579271+500056277+499637653+499028167
2928+498046854+497050714+496499319+496378356+496353192+496123076+495472019
2918+494331960+492874264+491368153+490017881+489003310+488452025+488240966
2908+488033402+487689460+487427963+487426160+487503013+487323224+486691003
2898+485641335+484466216+483466177+482484164+481075839+479304479+477873418
2888+477340675+477563212+477912194+477818014+477173726+476310689+475613719
2878+475229125+475107169+475151611+475257195+475283831+475064494+474439704
2868+473320946+471804866+470218923+468951500+468175323+467753940+467386343
2858+466815302+465982249+465044236+464178183+463436330+462858887+462478856
2848+462114643+461497101+460704589+460145394+460003572+459942060+459457474
2838+458410712+457113086+455911553+454837015+453787127+452856729+452174328
2828+451576615+450821959+449999170+449337811+448752864+447986914+447079731
2818+446322537+445804803+445301638+444628139+443885219+443246266+442639723
2808+441847064+440837754+439778301+438793235+437916145+437173740+436608732
2798+436309232+436341459+436526840+436452452+435813903+434620610+433114242
2788+431631493+430430254+429553863+428928558+428477707+428071923+427564122
2778+426931864+426254907+425631846+425186955+424963829+424751887+424242615
2768+423439177+422703136+422271158+421896645+421168073+420034084+418772584
2758+417632820+416752861+416178435+415722066+415049156+414064752+413018910
2748+412221726+411805604+411650575+411451031+410982852+410289781+409483032
2738+408525521+407418131+406420999+405842563+405671273+405580293+405273840
2728+404724173+404079885+403460908+402911241+402427243+401871102+400994233
2718+399814626+398803844+398320582+398055700+397471488+396568573+395785001
2708+395369541+395212893+395095903+394885837+394592039+394243278+393694458
2698+392732679+391414377+390119841+389243818+388878134+388747459+388491370
2688+388057773+387677484+387433755+387112881+386555194+385904247+385373012
2678+384928121+384366387+383648889+382981092+382531382+382235192+381942535
2668+381620004+381332939+381085311+380729670+380082366+379149135+378153511
2658+377340287+376860409+376728153+376671828+376247576+375407496+374698753
2648+374581580+374808458+374761957+374173846+373286639+372502589+372052657
2638+371887327+371763900+371478305+371015167+370488310+370028703+369679574
2628+369345639+368918922+368435071+368006183+367649034+367281143+366832095
2618+366303177+365781801+365393713+365174854+365043591+364946835+364902835
2608+364807404+364376236+363477550+362385796+361490606+360867950+360353122
2598+359918790+359696399+359654129+359523343+359123813+358593535+358186168
2588+357936444+357653498+357209601+356715191+356398584+356381808+356567189
2578+356738369+356776519+356668800+356311725+355596912+354768053+354310911
2568+354331439+354368486+353974952+353243106+352622363+352374367+352335518
2558+352177398+351789346+351338863+351041570+350980537+351084981+351202118
2548+351234897+351208556+351130122+350864430+350295560+349543406+348871158
2538+348419903+348164659+348070774+348123934+348230438+348246883+348066506
2528+347601565+346897862+346337085+346333738+346711562+346840140+346481446
2518+346007418+345774910+345800957+345998662+346258982+346365119+346187942
2508+345881857+345667082+345551564+345432955+345307394+345177271+344890978
2498+344331194+343681388+343258644+343153795+343227483+343339028+343412790
2488+343396456+343264530+343007779+342660894+342376330+342305879+342356868
2478+342267728+341955646+341574290+341232298+340903256+340608538+340455458
2468+340477532+340599414+340733180+340776701+340622555+340307051+340018624
2458+339874558+339825371+339781077+339684763+339510382+339304069+339142123
2448+338997578+338754402+338377497+338014094+337897877+338091719+338339568
2438+338336477+338137448+338075275+338286555+338572406+338713824+338661583
2428+338408584+337952509+337455304+337195609+337253221+337411819+337442023
2418+337338498+337243141+337267311+337401997+337512511+337424548+337088737
2408+336674933+336437496+336435435+336491833+336523766+336714702+337176038
2398+337665370+337864436+337753701+337533665+337323231+337079944+336756016
2388+336388934+335939812+335150832+333763551+331796031+329392412+326521388
2378+323076710+319225255+315430455+312062667+309092643+306262399+303452371
2368+300709575+298081543+295732538+294072189+293497358+294183384+296275950
2358+299995020+305293502+311715341+318882196+326525287+333693651+338820181
2348+340861390+340086059+337966820+335998564+334358468+332354894+329801765
2338+327216371+325025468+323105957+321199949+319436940+318132875+317290588
2328+316642547+316064737+315679518+315600973+315759056+316052081+316532879
2318+317249494+318046053+318752846+319437749+320286180+321353727+322536278
2308+323655698+324526018+325053685+325338028+325627411+326110637+326751136
2298+327372504+327867980+328246136+328517824+328659425+328688967+328710562
2288+328835645+329043210+329173590+329128229+329018561+329028273+329165202
2278+329229252+329029083+328585074+328099274+327774867+327697868+327807058
2268+327902967+327790760+327521905+327418013+327733406+328314159+328698091
2258+328599091+328198016+327862536+327716078+327655634+327652396+327780569
2248+328000458+328134702+328076170+327895168+327738115+327698824+327780091
2238+327930632+328107478+328289290+328438212+328532098+328653576+328926147
2228+329318576+329638347+329759678+329739518+329663658+329508004+329248898
2218+329017016+328983243+329136728+329350730+329592839+329844735+329945206
2208+329803347+329634080+329720939+330082208+330523273+330843376+330910479
2198+330718477+330441712+330328070+330504033+330894476+331285986+331475524
2188+331425785+331288598+331235953+331267922+331241692+331094057+330946900
2178+330944767+331074596+331227712+331371116+331550463+331762773+331936675
2168+332023498+332030525+332013675+332084752+332314463+332600646+332798351
2158+332948929+333156456+333334700+333362181+333367405+333557936+333889553
2148+334153847+334275545+334324990+334350117+334370461+334467695+334730443
2138+335105766+335414206+335559045+335644175+335818739+336070119+336265838
2128+336351998+336396549+336455044+336505114+336513171+336506954+336579538
2118+336809103+337138991+337386214+337436284+337368040+337337358+337416639
2108+337576414+337750721+337892138+338000114+338125970+338362303+338780118
2098+339313597+339755766+339967671+340060564+340266325+340643120+341016309
2088+341218502+341270522+341282294+341301167+341320996+341331445+341304588
2078+341224535+341143783+341139111+341228766+341372832+341529186+341710336
2068+341986917+342371253+342704930+342758532+342463446+341998947+341654527
2058+341592169+341740098+341954910+342203936+342479744+342685027+342754412
2048+342748525+342744920+342798706+342989678+343308530+343567084+343602034
2038+343480335+343379496+343372396+343421141+343498472+343619950+343755591
2028+343796096+343691431+343566274+343610495+343928243+344544498+345376227
2018+346085963+346223848+345729329+345067602+344707952+344705634+344853637
2008+344959369+344910770+344728112+344596260+344677123+344902125+345046596
1998+345019556+345099499+345762402+347045166+348219218+348486454+347857838
1988+346917103+346093247+345570657+345455507+345676683+345982107+346184925
1978+346276751+346322922+346348674+346316116+346269209+346485934+347211747
1968+348153954+348607306+348294599+347687615+347304088+347170690+347125072
1958+347173413+347337566+347493515+347533762+347515037+347608518+347970266
1948+348680296+349869284+351674932+353618024+354392252+353248146+351177800
1938+349722385+349362440+349613232+349918913+350033989+349934107+349721465
1928+349721613+350539509+352442648+354620197+355979335+356694773+357526282
1918+357945200+356838509+354776624+353543636+353926759+355200987+356159160
1908+356163575+355442876+354630645+354147457+354061664+354329085+354983858
1898+356094227+357443028+358462823+359053951+360023676+361722414+362913720
1888+362362140+360788301+359673406+359377254+359469889+359728406+360129076
1878+360562416+360932956+361361218+362477474+365360603+370300795+375204972
1868+376503702+373329940+368647087+365353134+364050210+364004003+364434068
1858+364830729+364964494+364944297+365019052+365428552+366465712+368442944
1848+371692271+376262660+380641965+381633800+378309313+373916726+371418781
1838+370871101+370940926+371210554+372827621+376873433+382102200+385227731
1828+385035398+383668424+382385071+380225880+377141626+374870779+374431958
1818+375072862+375727525+376494652+378190742+380744680+382709883+382850748
1808+381712161+380908870+381703589+384482567+388421544+391524561+392232310
1798+391294114+391141880+393683016+398541611+402171007+400779310+395839154
1788+392015401+391393591+392832378+394706821+396596532+398174602+398735232
1778+398904940+400961343+406580700+414513690+420041258+419325121+414329450
1768+408941239+405076208+403941815+406124699+409783526+411770765+411781802
1758+411710431+411915199+412299167+414613499+420399842+427757228+432096360
1748+431473814+428379774+425848939+425253028+426543886+428457510+429388201
1738+430141680+433990670+441821790+447846600+445663312+438611570+432194146
1728+427876131+425878370+426166392+427900890+431014686+437413605+448516052
1718+461093855+466977910+462881402+454705126+448243040+445594848+447153162
1708+452467059+459489223+465314047+470065659+477038710+486800119+494071714
1698+495248341+492322831+486143691+478483309+474063535+475025350+479749223
1688+486906697+497922617+512211298+520552647+515990242+506641864+501114038
1678+501605394+506732990+512846426+517205350+521373082+526965509+530464303
1668+527921769+523255398+522717835+526867356+530925492+531108555+529850808
1658+532091082+540962784+557152213+574909632+579860861+573612704+571380302
1648+575771417+578624452+573019847+564024166+558966359+559722412+565943198
1638+576782346+588242384+591643503+584544303+576050168+572954436+575236871
1628+579660728+583888831+588181939+592268293+594116175+594395000+597006256
1618+603233701+608372150+607321894+603179032+601419260+603124180+606383845
1608+609343936+611760945+614245426+616883759+619153061+620909301+622837346
1598+625669448+629307305+632904989+635733632+637810305+639529683+641013830
1588+642234862+643484662+645241491+647671193+650689006+654709985+660925731
1578+669753286+677918341+680081101+678152026+679175131+685012685+690923596
1568+692240500+691104452+691597205+695262655+703765361+720012254+741277849
1558+750812049+742622345+731632325+725375375+723743997+725410325+729013968
1548+733989479+741381962+752376764+766590249+782372348+795235083+796521820
1538+787481771+780464169+780766208+784987983+787262361+787064803+788678301
1528+793959088+801075432+808498377+817114246+826351705+832216262+833421548
1518+833117596+832243486+829762206+827304250+828402038+835255781+847769975
1508+861801132+866233414+855630122+842538780+836208252+836322887+839996503
1498+843909396+844871579+842974437+842547315+847094747+855323006+861168285
1488+859641904+853161276+847256398+844454905+844180679+845196721+847507742
1478+852042665+859022669+867105169+872943238+872142633+864903928+857505411
1468+854736587+856589141+859911495+861760149+863193822+867835949+877273099
1458+887468032+888836515+879387445+868525819+862107659+860306536+861174687
1448+861999646+860949169+858387100+855697446+854033105+854738206+858927827
1438+865350033+869480571+868348569+865308756+864252392+864736905+864273509
1428+862472902+861577160+863134665+866478650+870619121+875418632+879163914
1418+878040521+872085095+865992077+862651844+861443689+860699150+860048497
1408+860430737+862007078+863160491+862906572+863155708+866105756+870895702
1398+874721404+876236823+875723761+873517811+870875100+870053966+871764073
1388+873652753+872406485+868372850+865668774+866991785+871277426+876261251
1378+881451978+887309471+892552438+894768469+894066385+893077052+893107145
1368+893585110+894737051+897818289+902240049+904664527+902689539+898113926
1358+894307133+892388653+891232076+889738290+887984772+886376057+884998745
1348+884041712+883829145+884369062+885530348+887299979+889302412+890519397
1338+890116556+888351707+886172024+884231103+882625478+881436600+881145303
1328+881988878+883195930+883724148+883682945+884064448+885075634+885832019
1318+885790006+885403278+885273045+885709732+886964242+888807672+890166000
1308+890226997+889633367+889757273+891176157+893377398+895503810+896888701
1298+897150345+896205159+894159388+891179983+887748807+884780806+882850333
1288+881464707+879676534+877236972+874606696+872125342+869787760+867633167
1278+865832633+864435529+863313460+862366802+861657654+861363415+861654196
1268+862392554+862890973+862540226+861956382+862635583+864982510+867504111
1258+868569009+868291619+867978544+868398455+869376752+870678057+872479769
1248+874831845+877241755+879234990+880866221+882389218+883980863+885808180
1238+887804800+889669862+891442804+893404843+895220387+896143426+896266008
1228+896729772+898623309+902068097+906107029+909410547+911500391+913175180
1218+915503785+918591497+921451264+923118695+923886632+925062486+927422583
1208+930461734+933128138+934807783+935899831+937741643+941349701+946069821
1198+950210218+952858668+954472314+955956608+957658621+959247103+960290222
1188+960938962+961932489+963790194+966286557+968794326+970775568+971909630
1178+972177529+972076064+972407093+973582727+975646598+978810390+982765738
1168+985792822+986399401+985580475+985439940+986453481+987780760+989058962
1158+990522728+992376459+994733245+997331809+999361981+1000327254+1000603909
1148+1000609354+1000308271+999761805+999659679+1001182381+1004932593+1010103012
1138+1015035700+1018262328+1019175140+1018472688+1017879868+1018594534
1130+1020059183+1020731836+1019876856+1018388662+1017904149+1018778038
1121+1019206558+1017670612+1015796058+1016667004+1020947347+1026460567
1113+1030930301+1033934502+1036177389+1037863729+1038455299+1037580379
1104+1035682060+1033689486+1032387813+1032345726+1033978722+1037141853
1095+1040912960+1044240906+1046552000+1047505868+1047327220+1046935637
1087+1046862721+1046960433+1047003255+1047392852+1049296543+1052976340
1078+1056348653+1057071339+1055971933+1055879003+1057280890+1058160077
1070+1057550407+1056437389+1055808442+1055668054+1055503312+1055105254
1061+1054807336+1055080311+1056224748+1058690503+1062789917+1067509007
1053+1071032597+1072875659+1073741823+1073609235+1071691638+1067907065
1044+1063590375+1061093128+1062258461+1066388336+1070303436+1071396368
1035+1070067618+1068651089+1068831282+1070373336+1071416014+1069956000
1027+1066036632+1062183779+1060913008+1062384721+1065033245+1067617241
1018+1069661466+1070942390+1071577444+1071817972+1071347071+1069634610
1010+1066846802+1063601706+1059876805+1055173020+1050270646+1047455541
1001+1048206554+1051424648+1054718527+1056805133+1057484481+1056269336
993+1052982153+1049354817+1047951091+1049115467+1050607193+1050389696
984+1048687168+1047370117+1047712182+1048925193+1048896645+1046133854
975+1041398577+1036943706+1034290989+1033340136+1033124552+1032685511
967+1030926401+1026694841+1020089792+1012657429+1006089758+1001344401+998431216
957+996605297+995014240+993371458+991849344+990281023+987729034+983491808
947+978291075+973730840+970919708+969732302+969132492+968112108+966721479
937+966037569+966539078+967132928+966335119+964160292+961981787+961036159
927+961758476+963814769+966378310+968163907+967506853+963583733+958095308
917+954478126+954727557+957765530+960847651+961899452+960696227+958583059
907+957060062+956312727+955255922+952986621+949814588+946948346+945484948
897+945459195+945836284+945803247+945771461+946434770+947240820+946912440
887+945395844+944028098+943898305+944664550+945045170+944185334+942182754
877+939986001+938843404+939167664+940369418+941747833+942590157+941737238
867+938651733+934807856+932473364+932275512+932943530+933181555+933111141
857+933949713+936511414+939986516+942577060+943452936+943107854+941823104
847+939572933+937381698+936864958+938186056+939469040+938878133+936712356
837+934624352+933544738+933295307+933650838+935016966+938105929+942796839
827+947267455+948969615+946904273+942489576+938049862+935195614+934726699
817+936749219+940297973+943769985+946445291+948823709+950882282+951342956
807+949755504+948052756+948694211+952019067+955928134+957718293+956419636
797+953465984+951138261+950463622+950698410+950931433+951692747+953897741
787+956471803+957159687+955827699+954797971+955606376+957346576+958410076
777+958390578+958089496+958454591+959485496+960208182+960074564+959644425
767+959568713+959883040+960280804+960275138+959103772+956522793+953504759
757+951622701+952006264+953989346+955054391+953319121+949666548+946547565
747+945480533+946426234+948655362+951020315+952063582+951722473+951770004
737+952912601+953735133+953297416+952250250+951433825+951399464+952718575
727+955217147+958153803+961151456+962824111+960997751+956739923+954140034
717+954715711+955685399+954517785+952348182+951918191+953861908+955618737
707+954217733+949877129+944992856+940398922+935144477+929939181+927890688
697+930332825+934240935+935407519+932883269+928600130+924156444+919891479
687+916018171+912836499+909806177+906075538+902547974+902190678+906564980
677+912204903+912909488+906521864+896262402+885508643+876197164+872447321
667+878404660+889278426+897131362+899557900+898528908+897142399+896479973
657+895557155+893840279+890669350+885198289+879542842+877098792+877127414
647+874649445+867561208+860704668+859793769+864364452+868756781+868599912
637+864893112+861643307+860642348+859668392+856364654+851866666+848652178
627+846189881+842252339+839465709+843588300+853644685+860859109+860406088
617+857067841+855085201+852172531+846143674+839353355+834845508+833446049
607+834374019+836116205+837764874+839845226+841428631+838306336
##END=
