##TITLE=<SNM>
##JCAMP-DX=4.24
##DATA TYPE=INFRARED SPECTRUM
##DATE=3/5/2025
##SAMPLING PROCEDURE=Instrument type and / or accessory
##ORIGIN=Admin
##XUNITS=1/CM
##YUNITS=ABSORBANCE
##RESOLUTION=4
##FIRSTX=4497.3318
##LASTX=599.83466
##DELTAX=-1.4281778
##MAXY=1.7236494
##MINY=0.17753144
##XFACTOR=1
##YFACTOR=1.6052736e-09
##NPOINTS=2730
##FIRSTY=0.19951519
##XYDATA=(X++(Y..Y))
4497+124287346+124437734+124444882+124344945+124723760+125521825+126023737
4487+125977036+125870063+126135267+126590376+126659513+125918388+124443220
4477+122789594+121700741+121712753+122803936+124312270+125414852+125890475
4467+126157509+126441678+126451230+126084046+125723601+125555985+125332960
4457+125006657+124908076+125115088+125194658+124770962+123935052+122989950
4447+122172410+121657252+121463644+121327580+120975276+120533738+120427109
4437+120870067+121594465+122035352+121790198+120983324+120113607+119554866
4427+119386647+119603591+120142141+120658395+120623362+119834292+118676228
4417+117761472+117395838+117495552+117928290+118622844+119251371+119204187
4407+118216775+116793033+115742648+115520663+116099138+117055852+117627338
4397+117186422+115941742+114825960+114519689+114788022+114892378+114559289
4387+114299255+114658455+115427800+115861150+115483718+114430864+113198715
4377+112335236+112145378+112361376+112259870+111493459+110693074+110806349
4367+111939833+113297390+114128408+114232392+113657862+112562762+111459680
4357+111093201+111812429+113195355+114401893+114848666+114499472+113643483
4347+112639196+111832618+111482088+111668632+112216465+112663869+112553842
4337+111891935+111120242+110635103+110592635+111024955+111734158+112274472
4327+112435033+112480388+112637970+112769756+112780644+112832265+112900307
4317+112683604+112235280+112076408+112373053+112623489+112527442+112532770
4307+113042034+113629049+113590275+112945095+112402711+112444734+112827327
4297+113041746+112980499+112932935+113116202+113514380+114045291+114560811
4287+114779399+114531580+114045412+113796433+114032481+114478224+114617612
4277+114362219+114214950+114556430+115083767+115291382+115221094+115301166
4267+115607679+115748264+115500325+115189867+115256099+115732725+116342473
4257+116790323+116850270+116509904+116151854+116312397+117170957+118334600
4247+119101763+119084785+118644667+118447876+118650970+118943206+119203064
4237+119536153+119837235+119796651+119287610+118547209+118088954+118337023
4227+119141892+119832491+119891334+119417103+118936300+118913400+119390453
4217+120038204+120565587+120908228+120985013+120592033+119734290+118871284
4207+118612215+119126055+119955013+120545017+120812245+120969205+121056211
4197+120996032+120843973+120616029+120159713+119527121+119163529+119405323
4187+120086408+120858194+121570098+122115749+122256465+121929623+121522533
4177+121527416+122009537+122614756+123042824+123354758+123786047+124337315
4167+124711693+124720177+124505655+124216009+123808288+123388881+123302097
4157+123597341+123826306+123627268+123156926+122812977+122836972+123209559
4147+123710858+124086415+124227390+124148710+123883738+123559765+123459596
4137+123801261+124480137+125098880+125262979+124980991+124798485+125233924
4127+126015410+126284987+125669762+124709752+124128706+124144960+124595400
4117+125292804+126079219+126745294+127048493+126828569+126152747+125336321
4107+124756082+124615311+124875104+125363742+125886883+126240217+126284597
4097+126126040+126073046+126273003+126526048+126548233+126278944+125913867
4087+125745313+125935060+126394949+126891068+127181921+127102406+126749211
4077+126514871+126624648+126760518+126514045+126036073+125789907+125829080
4067+125847339+125844972+126143826+126728056+127149228+127161843+126966211
4057+126809159+126764119+126853771+127050693+127200347+127144150+126932311
4047+126858718+127162595+127617806+127680463+127236215+126809242+126824985
4037+127088705+127232502+127338491+127772918+128546718+129189420+129343911
4027+129219217+129269603+129652094+130182717+130625480+130846954+130788845
4017+130399253+129603091+128440646+127272120+126664851+126954450+128003768
4007+129350121+130428688+130812219+130555164+130202888+130183181+130411005
3997+130699370+131044702+131234987+130880195+130161766+129833811+130275302
3987+131146700+131960768+132447967+132513121+132278735+132054782+132106886
3977+132573941+133479304+134539009+135121791+134770666+133730464+132693845
3967+132115110+132013929+132280554+132826132+133521066+134213476+134747014
3957+134998267+135087807+135397142+136191438+137367677+138454181+138739325
3947+138027199+137318136+137696199+138661295+138697989+137432980+135923058
3937+135188283+135697769+137541058+140056558+141711762+141423583+139948443
3927+139067420+139591025+140652419+141100065+141174317+141916974+143358835
3917+144110208+142841022+139863062+136856780+135307731+135572221+137410572
3907+140948628+146335580+152390955+156676486+157765023+156088282+152460101
3897+147943758+144544004+144079446+146219389+148026374+147176001+145689472
3887+146647513+149294706+150691575+150937490+151910681+152344366+150149441
3878+147465016+147721096+151070380+155567239+159949393+162953734+162822552
3868+160504160+158926391+158514651+157102261+153809675+150579524+149769290
3858+152803689+160489400+171547111+178502994+173930278+163369336+154597223
3848+150141235+150022641+153288966+158447760+164220294+169685851+173144132
3838+172494013+168482859+164436523+161898411+159916866+157820626+156512499
3828+156695923+158083695+161136660+166905777+173432209+175613200+173003073
3818+170161177+168010670+164136416+159099494+156149474+157128828+161639295
3808+167155461+170730128+172891180+176046439+179214415+179156380+176501343
3798+174097012+172027524+169407762+167216430+166957574+168701056+171587862
3788+175029917+178651479+181859222+184699317+188282635+192931172+196949623
3778+198991430+200414569+203507411+209435095+217953467+227277127+235224989
3768+241762189+248351520+255483569+263403305+273276013+285447584+298135194
3758+309808492+321883189+337068161+356639324+378814823+397898351+409901572
3748+418736148+429537974+441646794+449358432+451882787+455343129+464126502
3738+478505000+494812687+507157360+512906316+514534341+515381994+517029252
3728+519524423+521518072+521210223+518777617+516046890+513992829+512977087
3718+513936205+517878204+525390340+536081071+546553660+551449988+550371792
3708+548239275+549067471+554086626+561872302+568457400+570538974+569383213
3698+569018183+572378977+579771664+589207198+598088187+604141688+605371785
3688+602158361+597877732+594858983+593144110+592295492+592432615+594544933
3678+599665678+606082129+609259944+608912848+608717282+608248138+603898668
3668+596614440+591205711+589936516+591524105+593281753+594038473+595354119
3658+598749222+602789914+605556101+608782297+615463118+624949966+631606800
3648+631104498+626405705+621960068+619191876+617447150+615852246+614900590
3638+616207028+620383729+626116087+632027192+638394928+645263406+649299196
3628+647156691+642278632+640181500+642899677+649784715+658518853+665549592
3618+668845148+669989585+671029314+672243853+673481636+674911087+675576540
3608+674059090+671741032+671522853+673685409+676174416+678129635+681265827
3598+687007840+693971223+699108974+700614765+699320989+697349284+695835547
3588+694365550+693097691+693171209+693910404+692898226+689876915+687744658
3578+687932167+688131187+686616781+685276147+686586334+690604376+695568430
3568+698998696+698906390+695960974+692934465+691558185+690816614+688641731
3558+684919916+681663941+680621390+681940043+684696316+688093908+691618040
3548+694288764+694831612+693225123+691415158+691031897+691752378+692239085
3538+691324783+688707155+685297459+682833255+683048018+686614702+691661408
3528+694458821+693448500+690375875+687494027+686404246+688149455+692103038
3518+695449390+696026249+695149895+695302427+696292104+695797748+693022019
3508+689675742+687332435+686040070+685853897+687299686+689773989+691446645
3498+690979692+688542221+685726094+684411154+684891177+685662378+685676859
3488+685641140+686438703+687398676+687058783+685471453+684066880+683410561
3478+682966851+682668173+683299763+684993509+686536208+687341717+688094279
3468+688646707+687987566+686302954+684924521+684685623+685242135+685338080
3458+683677084+680402246+677482005+676745632+677895787+679306153+679984453
3448+679651838+678326501+676770658+676125330+676517576+676810833+676022849
3438+674311429+672869131+673215633+675517726+677597332+677402694+675932548
3428+675452525+676123176+676423488+675625330+674290339+673040303+672112931
3418+671832224+672557681+674097186+675657188+676633275+677184218+677792119
3408+678686073+679792711+680901800+681876030+682514378+682434919+681532573
3398+680536881+680461803+681391106+682362292+682455341+681674709+680606909
3388+679543343+678330288+676930913+675800438+675474803+675898388+676395863
3378+676566366+677041934+678554705+680215925+679868457+676769841+672934704
3368+671199669+672711772+676149761+678969082+679639808+678628447+677159860
3358+675752242+674240362+672897648+672901286+674997973+678200183+680566511
3348+680932767+679465666+677085673+675174714+675118795+676739543+677870241
3338+676731820+673941312+671374257+670164619+670481045+672125407+674561986
3328+676965073+678555522+678823159+677767910+676008740+674200038+672590578
3318+671506738+671559983+672767245+674000201+673777864+671481712+668048996
3308+665719501+666359408+669625632+673222243+675152064+675368313+674788185
3298+673701449+672016540+670414804+669976218+670504660+670824576+670909902
3288+671950522+674202934+676349969+677036884+676088867+674580997+674083002
3278+674976066+675666025+674598745+672397574+670654147+669650584+668640114
3268+667321757+665945552+664790421+664166257+664119398+663796883+662158833
3258+659789311+658925878+661023975+664839582+667695959+668610335+668817003
3248+669259599+669360817+668455352+667167888+666809727+667868096+669384506
3238+669774897+668514093+666734649+665739626+665740294+666410574+667385770
3228+667935748+667520257+666716678+666386959+666346116+665966122+665586500
3218+666148359+667570680+668410350+667567487+665785742+664643013+664335275
3208+663455653+660996276+657675842+655210375+655057323+657615542+661724405
3198+665127789+666133655+664707472+661779507+658141087+654381177+651393358
3188+650173472+650702210+651447494+650815755+649026584+647686024+647782637
3178+648670577+648900415+647849472+646133225+644409107+642613698+640689148
3168+638982110+637429905+635530159+633530235+632570337+633324532+635160414
3158+636804925+637531792+637601374+637471640+636912232+635477360+633347033
3148+631043307+628821046+626817334+625331593+624693468+624979448+625685819
3138+625891373+625169482+623884246+622391710+620824988+619613790+619174053
3128+619225294+619140785+618744899+618197112+617429253+616321538+615209368
3118+614596640+614245868+613353436+611976339+611126347+611089477+610976897
3108+610118625+608633255+606760058+604769082+603327007+603067910+603903384
3098+605199425+606282819+606627428+606009130+604697643+603345535+602444229
3088+601770904+600681643+599302838+598852705+599946681+601303319+601201804
3078+599427151+596811269+594048350+591866820+591087191+591718447+592764562
3068+593153987+592325865+590153989+587166319+584675047+583886988+584712400
3058+585793678+585900168+585117382+584478626+584760224+585779754+586484120
3048+585769357+583647051+581388401+580156002+580021850+580434110+580960621
3038+581259633+580837125+579345666+577017953+574520072+572401330+570993266
3028+570593296+571180813+572108370+572386589+571328963+569154971+567014100
3018+566059548+566507231+567691955+568542466+567935679+565568980+562634555
3008+560751221+560311261+560409471+560025913+558826931+557249812+556162371
2998+556109831+556664710+556710492+555570250+553655095+551723603+549959606
2988+548288732+547052249+546609616+546600593+546244771+545246183+544066287
2978+543388432+543439895+543776037+543700143+542971419+542039480+541344731
2968+540564396+539180875+537650355+537013827+537391073+537804781+537399242
2958+536084487+534226476+532415100+531174755+530447554+529732940+528789491
2948+527771446+526783477+525859373+525264282+525197818+525317973+525028466
2938+524141603+522978935+521949158+521188168+520500659+519683342+518897177
2928+518423392+518118773+517538534+516445040+514893876+513157467+511674140
2918+510660291+509879547+509128880+508629400+508686173+509188289+509482808
2908+508765558+506894513+504720447+503257505+502776033+502917241+503179159
2898+503046640+502180645+500725389+499077982+497324307+495301511+493175269
2888+491534545+490846628+491037739+491588904+491962103+491998083+491843954
2878+491492773+490727068+489551181+488248345+487023372+485972133+485180251
2868+484461218+483367761+481814257+480312810+479430404+479337429+479783144
2858+480194030+480011274+479237436+478407272+477767031+476903078+475551452
2848+474232650+473585800+473533780+473515586+473187166+472557024+471698604
2838+470651523+469503893+468380323+467384483+466654497+466328788+466244836
2828+465880771+464908917+463611910+462495841+461735260+461173178+460626765
2818+460065649+459574820+459139391+458514707+457515487+456389207+455631930
2808+455385941+455237975+454709163+453728805+452459721+450949474+449281163
2798+447815250+446956978+446795980+446968860+446774370+445750979+444253839
2788+443029646+442296912+441736835+441106396+440344478+439393788+438292088
2778+437167925+436019440+434748908+433387740+432135625+431207919+430576960
2768+429896840+428951943+428083646+427771155+427871667+427667672+426657796
2758+425051753+423497321+422490564+422048599+421774093+421174769+420068354
2748+418757350+417672285+416807181+415757204+414342716+412840118+411566913
2738+410635345+410077125+409774474+409355122+408593909+407771617+407227989
2728+406759550+405871834+404517275+403210058+402385797+401922112+401398311
2718+400591836+399537552+398333558+397134911+396127485+395329885+394630717
2708+394064625+393728074+393392822+392583080+391177281+389659089+388603542
2698+388094817+387774974+387278131+386459923+385386368+384298110+383453502
2688+382894130+382495831+382204691+381980088+381611568+380910544+379995945
2678+379099465+378202466+377179966+376185945+375515924+375131438+374698645
2668+374086919+373465132+372917791+372331277+371632035+370848989+370034903
2658+369307070+368765113+368262811+367517787+366504384+365512145+364809153
2648+364397116+364054921+363541591+362794711+361947504+361173889+360572820
2638+360149644+359808526+359390436+358815878+358185402+357649980+357200255
2628+356709687+356167953+355663794+355157817+354552478+353953860+353553630
2618+353312615+353033617+352634018+352146309+351615936+351124031+350738171
2608+350406744+350047357+349679394+349318634+348844217+348150285+347368316
2598+346777124+346495266+346347598+346044502+345482865+344874556+344494005
2588+344280876+343884136+343167777+342413248+341934933+341759825+341738698
2578+341727410+341611340+341328554+340923312+340505890+340125674+339717646
2568+339253775+338902112+338869771+339128496+339493044+339891714+340325770
2558+340666628+340736731+340517921+340111453+339569124+338897136+338182411
2548+337602209+337291055+337223738+337210185+337019854+336593893+336142311
2538+335943849+336039905+336196930+336165964+335933972+335706139+335631173
2528+335594413+335379613+334992862+334664628+334526205+334455360+334300712
2518+334110529+334011317+333962564+333820206+333578709+333340851+333112944
2508+332830529+332489039+332092523+331610754+331071953+330543920+330034898
2498+329580012+329320061+329314157+329393876+329343676+329141983+328963831
2488+328983176+329144211+329138381+328709264+327951356+327192853+326647406
2478+326295817+326056474+325950095+326032005+326193225+326167011+325818578
2468+325329607+325008725+324984738+325105672+325089446+324795633+324354299
2458+323999480+323859981+323928078+324060263+324005866+323653126+323206669
2448+322916234+322754679+322561489+322309002+322027589+321671396+321233293
2438+320826417+320564090+320492762+320610503+320799237+320829944+320588039
2428+320187104+319792332+319512888+319478096+319756315+320157436+320333584
2418+320127398+319711350+319376025+319252268+319267789+319331245+319431646
2408+319532604+319563831+319573745+319693268+319944790+320267900+320627434
2398+320921063+320963020+320711349+320320217+319925593+319600293+319445681
2388+319442785+319281862+318589414+317237678+315251975+312602638+309319093
2378+305639458+301801963+297811936+293655638+289618734+286103457+283220347
2368+280837310+278943560+277656598+276980637+276946402+277915658+280381291
2358+284492475+289983151+296579017+304286998+312876587+321115144+327196641
2348+329908245+329325222+326911181+324513775+322597543+320251785+316875804
2338+312886278+308956736+305199759+301360184+297625893+294763149+293277204
2328+292841607+292738589+292512501+292156159+292028319+292612011+294044729
2318+295837112+297270313+298130089+298874500+300007909+301494764+302941555
2308+304153625+305249105+306318780+307257643+307966391+308515366+309009610
2298+309409487+309615692+309696562+309880711+310276485+310730888+311055205
2288+311257158+311446245+311659597+311883420+312082513+312133382+311906292
2278+311469563+311061851+310828356+310691177+310497504+310233673+310036232
2268+309979385+309954006+309849595+309744609+309772382+309884572+309898236
2258+309727714+309446970+309159562+308917155+308743774+308654141+308672929
2248+308855221+309194427+309530458+309699848+309732801+309755525+309798262
2238+309834000+309895897+310057081+310358098+310781256+311281627+311832514
2228+312402727+312943013+313502719+314253424+315260886+316347845+317287507
2218+318054549+318855232+319945347+321404985+323107159+324892952+326685390
2208+328487669+330386932+332473556+334711301+337000695+339322503+341681925
2198+344003994+346224770+348422823+350741884+353178871+355558789+357767275
2188+359860768+361876213+363731737+365372646+366849327+368243058+369597431
2178+370876986+371994614+372885858+373473263+373650747+373431937+372987596
2168+372520902+372195490+372006125+371670391+370917495+369827603+368685617
2158+367676817+366820216+366048941+365361061+364848103+364515191+364285761
2148+364108760+363892549+363916981+365427710+369708822+376437950+384063259
2138+391609295+398975062+406005875+412474866+418544332+424634332+431096342
2128+437977630+444975062+451769168+458160630+463823406+468459820+472062149
2118+474570093+475724926+475543803+474497168+473288607+472820317+474119031
2108+477992079+484786296+494438263+506483144+519700793+531911908+540700331
2098+544355793+542194537+534988468+524879313+513696751+501956897+489756030
2088+477178363+463920985+449879893+435637330+421823180+408899493+397429578
2078+387717682+379634739+373049010+367800536+363501379+359868269+356802847
2068+354139995+351826021+349945731+348350344+346847338+345501913+344260529
2058+342924647+341658199+340772450+340259084+340055497+340248613+340858185
2048+341931702+343688050+346353725+350233753+355852714+363709458+374164633
2038+387557798+403947210+422793029+443072643+463396888+482101982+497627886
2028+508650639+514103701+513809627+508826860+500868230+491657410+482403444
2018+473389194+464308999+455025663+445753058+436685079+427720583+418629101
2008+409492431+400724615+392570715+384989109+378037495+371862318+366324115
1998+361141623+356423819+352618275+349792976+347296023+344430252+341260791
1988+338372816+336143351+334576666+333470028+332504003+331455548+330396549
1978+329505491+328775579+328044739+327248883+326612466+326501557+326932011
1968+327358604+327221741+326583096+325909548+325410774+324943301+324430640
1958+324020310+323810448+323699911+323546450+323302651+323020979+322804248
1948+322752637+323029928+323826266+324857715+325165118+324164711+322549050
1938+321378993+320925444+320839524+320821070+320800611+320803099+320849067
1928+321036576+321670728+322901530+324218067+325009839+325528812+326222893
1918+326485294+325446939+323665417+322562120+322727388+323636269+324411926
1908+324494430+323898633+323074559+322476794+322254420+322322480+322627321
1898+323220853+323990903+324574595+324935058+325612207+326715095+327242125
1888+326387455+324868631+323843866+323505050+323418313+323334992+323240643
1878+323170838+323203476+323487264+324453289+326815496+330625050+334126347
1868+334678515+331919866+328270678+325858457+324951247+324819396+324855784
1858+324862245+324859386+324906430+325037835+325376502+326175625+327690774
1848+330202022+333742714+337025312+337534669+334771378+331419866+329698718
1838+329476232+329572845+329639829+330714795+333800527+337932485+340505890
1828+340572688+339684006+338639710+336753368+334254150+332580678+332375457
1818+332948678+333537680+334301269+335835168+337991746+339630278+339853544
1808+339115538+338634735+339359300+341637517+344956206+347797062+348745821
1798+348238284+348380457+350884428+355250235+358323751+357265865+353666766
1788+351216003+351324536+353007811+355058530+357206493+359257583+360686440
1778+361728619+363758471+368061081+374219735+379267667+380173874+377663888
1768+374344791+371882369+371490048+373738004+377214534+379556579+380583721
1758+381629502+382763542+383884736+386515544+391915213+398452524+402431542
1748+402412606+400451557+399015237+399278864+401197175+403595398+405054034
1738+406261890+409851223+416376095+421328453+420235404+415855748+412059635
1728+409639096+408774029+409721823+412065687+415702956+421808773+431145094
1718+441145086+446021846+443713070+438460364+434368395+433056499+435046918
1708+440187713+446874214+452680165+457617782+464287129+473134552+480019739
1698+482123555+481047735+477620662+473192699+471235363+473392090+478507079
1688+485575468+495678386+508513219+517271826+516430411+511784529+510075448
1678+513190699+520029695+527537338+533232417+538210803+544062685+548658330
1668+549331729+548846433+551578719+557619707+563127017+565438615+566751921
1658+570880390+580110592+594946760+611126830+617624337+614962041+614871257
1648+620215899+625304117+624189162+619535036+616908201+618284926+623828327
1638+633107987+642972081+646555919+641987751+636316287+634636576+636679646
1628+639962727+643113549+646713278+650627504+653311149+655329564+659638264
1618+666847601+672282246+670980673+665543131+660795920+657693442+654831273
1608+651295036+647851032+645971559+646362692+648669314+652190847+656447713
1598+660950011+664853617+667336981+668234945+667894830+666596227+664612417
1588+662502661+660819312+659752106+659234804+659256563+660310772+663456322
1578+668942653+674059239+674991066+673739174+675674268+681992175+689075490
1568+693367036+696280816+700972555+708908609+721607990+741818207+768133721
1558+786301537+789156206+789327971+794098872+802584459+812215373+821191825
1548+829191076+837609605+847651629+858391112+867474426+871069180+864874324
1538+853332376+845667894+844038161+844817308+843445632+839882439+838106857
1528+840691958+847009197+854963668+863098223+869530120+871586334+870189187
1518+868929051+868281124+866788105+865220232+866233078+871767902+881809332
1508+892498244+894367543+883899260+872141213+866527375+866547797+869499005
1498+872268645+872432613+870614777+869935808+872170768+876105267+878497587
1488+877108162+873184060+869617971+868129111+868500862+869656364+871431871
1478+874604748+879312601+884517706+888303609+888071988+883385820+878206260
1468+876641357+879128731+882372528+882874161+881991346+883867774+889843857
1458+896350164+897001210+891320835+885071471+881206407+879658955+879524320
1448+879217102+877475977+874858127+872691784+871449917+871494325+873713987
1438+877483775+879008280+875831392+871666016+870601187+872181388+873582174
1428+873721562+873939147+875122942+876849288+879057960+882095311+884322251
1418+882516371+876936174+871200251+867309047+865037030+863742883+863209688
1408+863396381+863873137+863742289+862652656+861531909+861444726+862632606
1398+864894672+867276817+867298576+863228551+857500722+854253510+854367055
1388+854994858+853233534+850139522+849298590+852204351+857218085+861986906
1378+865879521+869913901+874729433+879327751+882190811+883177517+883392058
1368+884161253+886636151+890992824+895518737+897650252+896964971+895761571
1358+895746793+896022821+894916554+892792911+891716052+892537899+894056909
1348+895144313+896142233+897813181+900290752+903333004+906508406+908948624
1338+909893596+909848222+910305150+912062761+914517979+916667317+918178083
1328+919416015+921040550+923560227+926874720+930362538+933353105+935278545
1318+935977787+936294807+937471176+939491448+940921790+940853396+940314558
1308+941193363+943933669+946890596+948388886+948627413+948697887+948732344
1298+948028498+946293834+944090954+942216977+940822652+939319905+937267033
1288+934941177+932793919+930834913+928881773+927035866+925435541+923716398
1278+921274695+918236081+915671847+914548129+914857427+915808859+916474238
1268+916215513+914841609+912732595+910841835+910110661+910490135+910706977
1258+909295349+905912907+901553041+897405116+893630947+889643575+885437726
1248+881680712+878563679+875717996+873125988+871060566+869440710+868200773
1238+867855831+868927417+871118415+873480733+875196460+875962240+875926298
1228+875643660+875786242+876511995+877434688+878380997+879558480+881016150
1218+882798638+885298339+888469953+891320612+893189020+894718946+896710553
1208+898934300+900730303+901946773+902871546+903982268+905916991+909029420
1198+912821783+916458420+919934134+923699169+927314419+929745280+930880583
1188+931582721+932516480+933873600+935752553+938211411+941033553+943442358
1178+944561918+944688310+945440946+947936637+951528792+954809496+956935813
1168+957746001+957631639+957542005+958317513+959944350+961837413+963630743
1158+965441969+967465731+969936248+973033007+976040802+977875941+979009536
1148+981174097+984649291+987404673+987564631+985851429+984911878+986479900
1138+989704092+992643789+994776418+996792085+998777083+1000282874+1001418028
1128+1002724429+1004477509+1006448991+1008039514+1008850593+1009557633
1120+1011407178+1014666050+1018306326+1020672134+1020854445+1019676888
1111+1018173622+1016475569+1014902423+1014575377+1016075153+1018356972
1103+1020031781+1021027845+1022221294+1024304836+1027491897+1031621777
1094+1036157270+1040054044+1042375295+1043743258+1046085229+1049718227
1085+1051996630+1050541485+1046253801+1041776380+1038901512+1038921266
1077+1042886954+1049279493+1053369197+1052146786+1048757141+1048255656
1068+1051029083+1053207308+1052329097+1050466630+1051626588+1057366595
1060+1064784233+1069030777+1068303613+1064780000+1061158067+1059203664
1051+1060295525+1063888274+1066604668+1065891465+1063141579+1061368448
1043+1061845130+1063829459+1065847874+1066690217+1065901194+1063714057
1034+1061007911+1059460830+1060616852+1064531449+1069622117+1073402302
1025+1073741823+1070214795+1064835993+1060841195+1059977613+1060934541
1017+1060855304+1058482144+1054797460+1051297760+1049154809+1049152581
1008+1051087824+1053539106+1055191563+1056082621+1056767605+1057044376
1000+1056676635+1056649753+1057778595+1058470040+1056274586+1051402096
991+1046420294+1043154442+1041501688+1040258484+1038148431+1034830151
983+1031205692+1028448677+1026874491+1025557026+1023152230+1019635376
974+1016534235+1014770758+1013396632+1011419060+1009327646+1007669546
965+1005691083+1002316884+997501353+992057870+986624560+981157982+975528030
955+970441743+967111877+965728691+964772655+962380484+958486383+954971979
945+953299546+952875961+952135653+950312693+947822126+945879829+945979413
935+948680064+952631568+955324942+955194985+953121617+951521737+951776824
925+953044534+953509705+952217489+949688380+947276976+946013944+945684299
915+945277720+944408123+943527833+942876044+942264207+941862232+942330076
905+943772449+945196330+945713781+945586126+945263388+944465007+943267622
895+942821982+943659795+944245640+942568974+938953204+936034077+935699679
885+937069573+938071503+937978454+937093930+935164703+931886152+928282783
875+926078567+925943264+926902419+927269194+926181567+924276697+922992872
865+923241127+924492648+925308109+925142730+924958414+925582206+926615920
855+927380289+927707038+927558590+927014702+926527104+926510544+927222410
845+928839444+930758052+931514995+930348577+928188323+926396479+925510322
835+925627654+926802464+928411849+929152380+928503487+927630029+928149188
825+930274910+932792359+934326593+934293769+933740376+934651782+937727971
815+941709477+945074839+947517359+949333858+950303559+949855690+947726552
805+944184226+940409537+938403672+938993231+940183858+939433970+937209035
795+935909244+936293619+937242007+937763245+937677845+937514545+938285672
785+940193215+941948449+942448523+942268737+942679400+943938793+945074170
776+945341956+945345892+945988472+947002581+947683406+948324651+949332150
766+949744299+948196550+944736728+940851242+938286860+938132620+940181853
756+942984836+945234946+946875001+948418219+949691648+949861557+948738804
746+947125112+945782101+945095929+945326510+946176798+946702641+946113157
736+944518030+943340546+944343665+947387402+950015055+950110257+948106991
726+945831410+944644867+944711851+944903222+943886811+941695664+939648882
716+939002662+940184155+942368618+943777795+943953943+944627490+946686749
706+948068970+946246158+941942285+938058433+935663217+933121336+928907245
696+924177039+921521241+921449579+921600552+920023842+917458271+915059120
686+911818962+905977737+898139706+891454208+888873339+890918563+895354323
676+898595521+898382095+895117802+890007825+883718435+878905577+879717324
666+884047411+886660954+886794104+886597758+886494758+884210117+878792923
656+873411819+872258174+875301614+877821440+876515114+874050464+874252528
646+876032640+875658513+872234039+867723943+863450517+859214444+855055826
636+852161131+851283068+851059022+850031027+849029542+848811512+847895873
626+845058730+841533336+839053091+837564232+835747361+832552205+828668798
616+826137908+825358464+825044711+825473123+828666422+834404573+838689361
606+838333799+834543367+830486040+828366185+829746252
##END=
