##TITLE=<SNM>
##JCAMP-DX=4.24
##DATA TYPE=INFRARED SPECTRUM
##DATE=2/5/2025
##SAMPLING PROCEDURE=Instrument type and / or accessory
##ORIGIN=Admin
##XUNITS=1/CM
##YUNITS=ABSORBANCE
##RESOLUTION=4
##FIRSTX=4497.3318
##LASTX=599.83466
##DELTAX=-1.4281778
##MAXY=1.7874789
##MINY=0.25280097
##XFACTOR=1
##YFACTOR=1.6647195e-09
##NPOINTS=2730
##FIRSTY=0.26426858
##XYDATA=(X++(Y..Y))
4497+158746612+159655692+161321859+162875708+163680650+163804480+163518938
4487+162940694+162339677+162269608+162972775+163953159+164473310+164267846
4477+163590154+162813122+162177948+161735295+161403870+161174112+161143141
4467+161154419+160724674+159805838+159244493+159796977+161019937+161841868
4457+161993035+162125781+162675525+163337606+163658791+163562387+163167122
4447+162561290+161961312+161634416+161441214+160893028+159890480+159037758
4437+158964734+159562564+160189341+160524276+160770146+160983774+160904055
4427+160606877+160468456+160365071+159810009+158841244+157989756+157566975
4417+157556700+157904506+158557904+159411701+160243675+160651633+160361132
4407+159712675+159485709+160067158+160930676+161094876+160157923+158717002
4397+157683806+157427534+157648825+157834454+157713685+157310346+156723902
4387+156158565+155996836+156348849+156773474+156899792+156817066+156459127
4377+155487014+154175956+153404366+153479735+153894030+154293001+154824950
4367+155477830+155792552+155414849+154543347+153690750+153219794+153167626
4357+153310057+153379787+153346846+153379393+153536826+153768607+154118776
4347+154549595+154732610+154476912+154077726+153793384+153436823+152893828
4337+152450048+152281587+152195835+152083695+152104605+152320346+152617148
4327+152962430+153334726+153510151+153286999+152849037+152599711+152657070
4317+152768727+152771108+152866062+153272534+153838139+154233387+154317832
4307+154101930+153625209+153072117+152731812+152705532+152889442+153181697
4297+153382651+153126899+152379764+151858001+152420312+154025863+155646111
4287+156214850+155561398+154483464+153920311+153986657+153991347+153527015
4277+153038300+152996999+153185529+153250460+153355207+153805718+154491932
4267+155077427+155449186+155719028+155922702+155915004+155599118+155151954
4257+154836712+154678366+154532015+154323918+154100247+154050640+154466063
4247+155399221+156444340+157108927+157246291+156988623+156541800+156150921
4237+155963090+155848139+155583704+155156555+154703680+154359150+154297566
4227+154676397+155402192+156096301+156358498+156066117+155544784+155361053
4217+155727818+156296108+156686253+156871059+156849540+156434995+155674397
4207+155107485+155280170+156141415+157090076+157560853+157503583+157305476
4197+157342606+157673584+158077836+158307487+158295510+158096329+157690967
4187+157043888+156326274+155861136+155804153+156010316+156236709+156403558
4177+156644899+157147990+157951660+158854868+159491957+159603256+159336672
4167+159133642+159222420+159469561+159755533+160080424+160292190+160222264
4157+159982767+159629805+158931418+158035192+157732393+158406504+159339447
4147+159577673+158908879+157730799+156598747+156018694+156160123+156704227
4137+157207014+157561623+157980000+158597003+159231335+159611312+159749732
4127+159828950+159728250+159089997+157995467+157178692+157301878+158220553
4117+159171416+159584906+159485065+159181549+158899784+158719544+158583648
4107+158340677+157988611+157876685+158418946+159510289+160420371+160510294
4097+159976447+159539774+159442260+159271633+158808339+158423529+158452871
4087+158692297+158797401+158828569+159110942+159744881+160470999+160949653
4077+161056243+160898291+160621736+160291617+159945978+159584064+159111802
4067+158570937+158313914+158573157+159003349+159072739+158749978+158389658
4057+158169907+158065125+158107106+158295796+158517427+158809020+159386942
4047+160237409+161008551+161405392+161409903+161142138+160788317+160541677
4037+160348475+159941395+159368145+159133320+159515928+160109658+160364408
4027+160261148+160146143+160214136+160446222+160767926+161044213+161175669
4017+161276925+161478523+161594279+161354639+160930372+160838927+161281150
4007+161833185+161932328+161566853+161321806+161725915+162642137+163396898
3997+163522662+163213990+162983033+163112037+163585302+164225614+164676573
3987+164567208+163928991+163246644+162968156+163102083+163386407+163743469
3977+164295648+164900048+165128195+164913009+164687028+164646372+164481456
3967+164081482+163919896+164475065+165645249+166860118+167544380+167446776
3957+166735840+165913354+165567392+166129650+167736185+169923382+171470911
3947+171457055+170609166+170386908+170859583+170759420+169608731+168426928
3937+168291640+169488875+171775179+174387233+175940831+175534377+174077076
3927+173357618+173888314+174492517+174292601+174154986+175177513+176777066
3917+177151887+175340871+172262426+169665642+168604179+169087022+171006901
3907+174896858+181076681+188119002+193158824+194426236+192172228+187347270
3897+181664987+177877879+178046286+181480038+184463333+184125176+182836478
3887+184327812+187868459+189664007+189029764+188161359+186804561+183806963
3878+181439042+182574926+186703377+191371297+195145050+196985658+195846659
3868+193541110+193212693+194604812+194395623+191175786+187552591+186786981
3858+190526648+198998772+209840751+215133228+208983427+198239052+190284215
3848+186891011+187531180+190928179+195568422+200554662+205661779+209868195
3838+211039830+208711867+204995831+201525415+198476544+196084080+194992379
3828+195120649+196085297+198951618+205133894+212370920+215086360+212829201
3818+210187322+207743657+203058766+197339909+194312127+195743578+200706885
3808+205966297+208670208+210491052+214386505+218578635+218859540+216233540
3798+214232903+212811066+210753590+208951937+208829145+210424706+213264048
3788+217358020+222621245+228281526+233919177+240331928+247956772+255415232
3778+261606101+268095813+277209377+289761295+304957204+320263392+332298255
3768+340150458+345347678+348717071+350926216+353547472+356938456+359410765
3758+360436961+362817395+370129737+383861166+401469197+415862474+423102275
3748+428582995+438026965+450345508+459046173+462746509+467658401+478264123
3738+494438644+512571356+527599914+536647562+541129405+544212469+547909475
3728+552973859+559092117+565154590+570206443+573079728+572271259+568408765
3718+564784514+564361733+567839543+572952729+574311192+568650947+560354050
3708+554854891+552905759+553345476+555491533+558367073+560555201+561703025
3698+562589977+564072217+566816748+571338943+577721796+584528362+587976203
3688+585661256+580240723+575491849+573485860+575125317+580428948+588748652
3678+598218508+603729161+601160824+596239193+596023828+597760674+593370312
3668+582654455+572455725+565814219+562182915+561392993+564100681+569801350
3658+575581504+577842279+576829259+577069794+582023113+589903781+593119895
3648+586891359+576665238+568974299+565065544+563449145+562956330+563505466
3638+565211556+567623176+570278876+574016556+580556842+588951306+592616160
3628+586923082+578653719+575735822+579747371+588540699+598115534+603806499
3618+604409592+603631701+604248686+605129408+604971366+605340655+607741355
3608+610499528+611225073+610305180+609887269+611587415+615727432+621111659
3598+625520854+627144450+625782443+623000925+621329422+622877184+627932653
3588+633824446+636752405+635891375+633030873+629903411+627781558+627304139
3578+627798171+628278096+628940696+630772317+634355858+639353753+644022031
3568+645146368+640884830+634053882+629282416+628350421+629779813+631370541
3558+632164831+631926873+630391213+627835408+625419742+624277288+624676295
3548+625662425+625150205+621959011+617971021+616259488+617313075+618572968
3538+617678783+615105004+613056622+612931019+614686090+617548311+620330688
3528+621779057+621246570+618759080+614679431+609866502+605759426+603760884
3518+604541639+607575365+611075194+612964604+612255171+609402618+605896558
3508+603673735+604073172+606757158+609460406+609363304+605825378+601271460
3498+598313140+597019232+596143774+595451635+594979193+593847552+591987037
3488+591318278+593435011+597352072+600342868+600412114+597803067+594080747
3478+590245034+586778682+584545763+584005006+584327963+584441929+584151984
3468+583637543+582743287+581373545+580049741+579552093+579788475+579614321
3458+578572156+577569806+576945875+575783872+574042263+573086459+573420194
3448+574106819+574661934+575419810+575913305+574905298+572280246+569454474
3438+567660806+566832932+566232309+565328314+564076692+563070583+563282868
3428+564891140+566604248+566862686+565386927+563087697+560832078+558731743
3418+556481316+554211553+552867126+553189332+554591154+555857134+556547697
3408+556692813+555736830+553236415+550226141+548441997+548393518+549319998
3398+550501192+551258389+550402085+547511041+544190127+542355570+541898166
3388+541455192+540731652+540496845+540839030+541059551+541006560+541181573
3378+541741342+542185140+541876111+540576904+538743493+537432507+537545650
3368+539008053+540878021+542289439+543092537+543543926+543593121+542916056
3358+541707936+540747728+540404899+540155126+539320377+537870970+536328293
3348+535124434+534342031+534110769+534775983+536205196+537414068+537481058
3338+536365923+534583927+532808591+531839933+532079860+533031797+533981586
3328+534818770+535511553+535358882+533655191+530880154+528388941+527039178
3318+526721376+526857434+526961303+526939606+527063275+527473059+527740841
3308+527402130+526689009+526273103+526527673+527106956+527127186+526103747
3298+524782914+524423543+525240104+526228454+526448760+525911369+525399434
3288+525780109+527171906+528750030+529722699+530104805+530219953+530154466
3278+529997105+529986221+530085650+529822343+528957267+528071103+527906939
3268+528199176+527837800+526321690+524264428+522454290+521338904+521175277
3258+521773035+522443011+522820929+523113417+523129242+522169643+520481204
3248+519540868+520180016+521476644+521995847+521353978+520290652+519696618
3238+519637683+519344336+518409012+517488762+517121406+516668908+515481340
3228+514284356+514151270+514796756+514975457+513991367+512115957+509936100
3218+507877657+506327782+505727697+506143209+506885188+507004382+506211668
3208+505010101+504021392+503464165+503092477+502398297+501080902+499564755
3198+498762052+499006167+499447782+498900293+497305054+495822349+495216034
3188+494758093+493223471+490624808+488304919+487353555+487517468+487772218
3178+487480589+486695072+485747682+484949883+484407622+483914664+483191483
3168+482089488+480495395+478505625+476691047+475587405+475042495+474536504
3158+473813931+472878822+471859786+471070617+470734232+470581096+469997803
3148+468661575+466944278+465409334+464037731+462548223+461267456+460805039
3138+461081880+461476913+461593493+461359044+460884239+460338684+459503326
3128+457920118+455926767+454670347+454686280+455309138+455606817+455154748
3118+453992208+452513406+451253656+450363625+449538758+448672501+448126481
3108+448051506+447934604+447240316+446161165+445353664+445146498+445292760
3098+445293977+444696899+443286985+441416266+440026115+439836745+440480977
3088+440890081+440633684+440328843+440574463+441056322+440958754+439963064
3078+438493177+437092894+436003860+435273124+434800467+434358101+433874130
3068+433413611+432833827+432041113+431394947+431140125+430904030+430441040
3058+430190659+430430657+430543799+429716963+427979544+426150895+424891826
3048+424091771+423278505+422355606+421573239+421010283+420537662+420183017
3038+420171237+420520225+420784750+420434330+419465564+418361529+417495594
3028+416871914+416273654+415418998+414262795+413239678+412786141+412658641
3018+412213375+411251269+410115618+409099877+408153919+407158908+406294621
3008+405983837+406364153+406893453+406745186+405705599+404409329+403537522
2998+403052369+402459266+401662255+401075668+400792346+400187785+398734189
2988+396877147+395634583+395448399+395785357+395795239+395114271+394060935
2978+393249566+393009389+393052247+392745974+391787592+390515096+389505907
2968+388999057+388767902+388435779+387797597+386875556+385819320+384825348
2958+384032992+383413715+382891326+382606178+382799702+383317150+383498716
2948+382775319+381258313+379659744+378677409+378408337+378321368+377865181
2938+377007589+376043514+375122440+374232194+373433107+372828080+372387755
2928+371948146+371354756+370626848+370025653+369825075+369904168+369753072
2918+369075434+368198149+367640349+367445608+367194223+366574517+365733968
2908+365080176+364836991+364813145+364605800+364004927+363194060+362604716
2898+362503926+362645211+362439621+361585931+360364815+359221466+358330432
2888+357657377+357166711+356869317+356780844+356815181+356702575+356146816
2878+355118901+353916869+352950216+352489518+352510857+352687875+352584328
2868+351998063+351158910+350466342+350025480+349625685+349157110+348750191
2858+348473994+348202129+347813470+347286713+346623432+345903473+345388602
2848+345320359+345567984+345686998+345389462+344754252+343971885+343173192
2838+342504218+342046778+341682144+341273112+340855380+340480863+340065816
2828+339514067+338823038+338039275+337249282+336597244+336203214+336017997
2818+335785410+335266923+334516924+333800939+333324129+333189790+333369995
2808+333501004+333075215+332074333+331031416+330319978+329783733+329170328
2798+328556100+328160208+327943483+327614975+327017110+326286123+325579590
2788+324889313+324220089+323716067+323473921+323351433+323045483+322351124
2778+321343331+320294041+319452489+318938371+318718208+318575849+318230012
2768+317576184+316750028+315965692+315358410+314911533+314479622+313956480
2758+313400685+312929496+312541303+312100512+311477548+310695396+309912241
2748+309225580+308558397+307797119+306963301+306183835+305558829+305113671
2738+304839228+304678179+304450569+303971038+303348252+302918525+302722996
2728+302373794+301620608+300717365+300058667+299740078+299565656+299275477
2718+298766765+298196039+297753673+297327527+296625953+295654681+294790949
2708+294318041+294126200+293950560+293697279+293429532+293180439+292902398
2698+292537943+292076189+291563126+291070527+290637613+290252892+289899948
2688+289584850+289296981+288983189+288613488+288232366+287867338+287435373
2678+286859671+286228167+285704041+285319410+284970333+284581208+284191725
2668+283873995+283616238+283374181+283213651+283228169+283304254+283170309
2658+282705583+282052704+281456145+281100731+281019562+281044679+280889251
2648+280346345+279458767+278522172+277861863+277578827+277555160+277619698
2638+277602011+277375672+276995839+276658649+276440670+276227830+275940265
2628+275671676+275552107+275545125+275438714+275068369+274519842+274048689
2618+273805074+273714381+273624279+273465933+273231717+272916028+272559772
2608+272246356+271981187+271687911+271356719+271055745+270801210+270575641
2598+270440962+270460064+270523509+270414162+270073105+269694275+269502648
2588+269505674+269521105+269398170+269135669+268819890+268544427+268394442
2578+268421277+268558104+268583884+268291611+267752554+267306608+267192033
2568+267272396+267247781+267064049+266950620+267083115+267374708+267603482
2558+267618126+267431154+267193752+267026651+266852838+266506321+265996320
2548+265516556+265207580+265054820+264999394+265003887+264987740+264830378
2538+264513293+264168637+263901839+263666800+263404459+263169724+263020455
2528+262913847+262787993+262633085+262452970+262250638+262058797+261923079
2518+261851255+261804834+261743161+261663872+261594608+261563565+261589828
2508+261660954+261703937+261637573+261464404+261247052+261005693+260720939
2498+260430546+260235858+260203294+260304943+260434484+260449021+260273668
2488+260027171+259946664+260102629+260276819+260213015+259914583+259602474
2478+259428124+259329267+259159249+258844526+258386782+257833977+257308777
2468+256970960+256891259+256987609+257078983+257006389+256753555+256453351
2458+256264535+256258860+256376657+256449538+256339259+256069669+255749539
2448+255439060+255181302+255046928+255048306+255084880+255000113+254675902
2438+254155589+253694032+253570972+253815231+254167835+254331247+254232963
2428+254026156+253856818+253715067+253528937+253309043+253170998+253231257
2418+253456039+253666033+253762168+253829606+253937826+254007895+253963659
2408+253857713+253791600+253806817+253868257+253933100+254039529+254274658
2398+254649102+255091576+255583907+256258466+257415546+259512533+263103271
2388+268761135+277060770+288567282+303713782+322598569+344911434+370124008
2378+397752820+427341148+458093949+488597371+517117790+542267419+563354048
2368+580243408+592994220+601594991+605969528+606142106+602271269+594249530
2358+581593672+563959719+541152857+513698378+485435358+463224071+452337748
2348+454442379+468338617+489445010+509979567+523968216+530966372+533409715
2338+533655585+533031117+531872945+530214726+528065303+525144720+521077280
2328+515920663+509981285+503110021+494757985+484858832+474098936+463158298
2318+452288266+441663998+431508447+421746820+411937715+401706868+391074543
2308+380281563+369505805+358897935+348735726+339337228+330838716+323150641
2298+316104614+309580404+303522406+297909531+292743497+288035620+283755804
2288+279820089+276199669+273005951+270371161+268268678+266525691+264988867
2278+263613021+262418794+261439681+260706760+260189974+259710962+259016317
2268+258050756+257087594+256450683+256152538+255929314+255574723+255095801
2258+254599871+254188404+253927281+253785710+253611306+253249643+252699881
2248+252123803+251700503+251471675+251321708+251106683+250796669+250488552
2238+250294223+250236416+250261264+250316708+250367228+250362663+250273277
2228+250148247+250085679+250153457+250354876+250627044+250870838+251041716
2218+251210230+251469993+251788707+252030371+252159786+252339722+252734343
2208+253281957+253782702+254165006+254532397+254977807+255494163+256065497
2198+256704180+257359029+257910205+258316963+258682600+259113151+259587383
2188+260017307+260382227+260746396+261143845+261499940+261725205+261842107
2178+261928056+261991341+261999397+261955769+261872899+261745667+261585638
2168+261413418+261228183+261042697+260897778+260778101+260584237+260285394
2158+260031109+259979712+260078998+260165806+260207268+260312104+260606364
2148+261177537+262058474+263308610+265148144+267806261+271219265+275160422
2138+279602540+284633769+290147072+295935515+301973427+308386965+315247774
2128+322514822+330117288+337992657+346007915+353944975+361667745+369211169
2118+376615278+383733379+390197903+395588503+399762641+402966474+405537281
2108+407694653+409625059+411458649+413146157+414530864+415455268+415781341
2098+415506182+414874195+414217574+413594180+412576935+410532061+407147021
2088+402478099+396521500+389087673+380101788+369829479+358834776+347719662
2078+336886330+326632103+317319429+309232455+302420913+296810401+292298893
2068+288737820+285948264+283707450+281754613+279952602+278325747+276884755
2058+275620351+274603893+273859784+273284260+272829255+272575150+272598799
2048+272923797+273568871+274635885+276382076+279046548+282605509+286943668
2038+292183728+298583016+306186986+314661724+323332922+331494620+338848531
2028+345517535+351672456+357352966+362504964+367023829+370837952+373835515
2018+375627464+375718050+374029218+370965810+366984587+362309006+356935341
2008+350806235+344049223+337020132+330083310+323448929+317208291+311387033
1998+306001160+301205704+297280175+294246504+291612376+288796629+285745145
1988+282835232+280366808+278414364+276934470+275794540+274834636+273994803
1978+273302342+272753887+272282734+271838703+271515781+271557887+272060566
1968+272637933+272650859+271932564+271015733+270474994+270366811+270445294
1958+270581978+270746089+270854541+270874520+270905312+271065072+271426788
1948+272094455+273250622+274947940+276649680+277281631+276370404+274779766
1938+273664810+273314103+273363693+273505425+273669070+273864331+274117094
1928+274596625+275716164+277672367+279817081+281252864+282122612+283122940
1918+283941397+283691410+282717238+282364759+283278350+284916841+286330765
1908+287047072+287319080+287632513+288129320+288654896+289177805+289931349
1898+291142959+292600547+293664679+294158693+294823459+296068046+296936379
1888+296406811+294988465+293800181+293151401+292797419+292591238+292443652
1878+292220911+291875862+291586167+291988199+294041379+297897679+301658811
1868+302337309+299327698+295158393+292233496+291008943+290764809+290752170
1858+290611297+290348741+290165064+290197914+290513156+291275597+292770225
1848+295373884+299156516+302732019+303341091+300326987+296555884+294562229
1838+294387914+294794672+295226512+296578279+299858000+304120379+306682772
1828+306574535+305540283+304605818+303095651+301049667+299730625+299703808
1818+300271365+300744827+301417918+302974524+305243606+306993699+307244403
1808+306410514+305742471+306311084+308573542+311965958+314834517+315758670
1798+315266106+315477783+318091842+322622487+325790837+324503661+320381691
1788+317438515+317302637+318941700+320949158+322916765+324628548+325628499
1778+326379859+328545824+333441783+340239898+345328128+345502246+342033316
1768+338012493+335203871+334759644+337113403+340604282+342667058+343242295
1758+343900061+344710427+345481659+347821777+353150614+359843356+364047391
1748+364238695+362549147+361469316+362046558+364120576+366567678+368077344
1738+369376228+373178894+380160186+385556264+384251687+378937315+373915681
1728+370373996+368757847+369283136+371253536+374516590+380604020+390568015
1718+401461140+406460647+403156704+396549785+391369895+389422232+391180131
1708+396251139+402699801+407959535+412270734+418519212+427108382+433519879
1698+434743466+432507074+427651610+421653191+418255189+419167920+423185163
1688+429312049+438523217+450062365+456725103+453482314+446676608+442908745
1678+443932184+448676261+454160311+458180561+462130562+467349980+470903159
1668+469699551+467164798+468446640+473866599+479307219+481532511+482562395
1658+486550421+496104096+511709610+528393918+534012736+529934698+529169159
1648+534248689+538512195+535849764+529965740+526976878+528662739+534923928
1638+545332903+556965788+562789767+560195722+556248979+556839183+562333401
1628+570295489+578762100+587655824+596530320+603530016+608853446+615635772
1618+625435711+634854545+639195712+640120975+642051846+646127128+650794976
1608+654251697+656085967+657238876+658715100+660590833+662382066+664085578
1598+666330743+669518141+673273616+676970157+680481873+684010275+687529726
1588+690933170+694266651+697395689+699951637+701976245+704449986+708925134
1578+716006714+723170287+726192269+726443187+729460371+737176338+746560012
1568+753856277+759967767+767951338+778916574+793472869+813892601+839779769
1558+858843437+862794477+861499567+861450944+861891771+861084591+859279108
1548+858687830+861227094+866161901+871262054+875753958+878038221+872724028
1538+861126053+851984346+848197220+846376627+842410120+836954427+833610705
1528+833514677+835139921+837472735+841012666+844830727+846169462+844866675
1518+843078735+840962611+837946859+835375873+835379955+839359352+847570067
1508+856853273+858067050+847120289+834673028+828511913+828637229+832612115
1498+836533651+836078216+831401417+827728365+828700532+833003029+835955192
1488+834466078+830190362+826079276+823489814+822520225+822735626+823966445
1478+826809260+831942926+838786693+844279622+843841589+837229550+830289469
1468+827601330+829030722+831367833+831829569+831578006+833988301+840541763
1458+848212402+849702733+843262198+835638822+831000406+829459088+830047000
1448+831183081+831069437+829387049+827383566+826218985+826644201+829271687
1438+833407980+836011262+834872532+832324604+831231632+831175777+830225021
1428+828267153+826940019+826745600+826725263+826813700+828102165+829942666
1418+829234593+824895933+819405295+814977767+812282611+811296623+811721481
1408+813104183+814669704+815160514+814050141+812855986+813526248+815996480
1398+818456544+819578088+819186242+817402098+815010708+813551884+813643616
1388+813945162+812705606+810613185+810348803+813235873+818186792+823663108
1378+829459804+835827799+841576230+844750525+845487169+845927924+847105394
1368+848390279+849646520+851748179+854649571+856659857+856487636+854826732
1358+853023683+851580614+850483345+849881828+849892999+850291576+850746151
1348+851048414+851172942+851506999+852880035+855893853+860031936+863461875
1338+864290895+862602564+860557905+860210815+861904374+864580125+867020639
1328+868870449+870792441+873573600+877071783+880442430+883261399+885697044
1318+887865873+889849878+892020569+894727040+897946949+901493540+905195523
1308+908752926+911827469+914400747+916811543+919159037+920790940+921047587
1298+920466335+920486458+921682618+922912793+922726681+921114829+919214677
1288+917680593+916169352+914291471+912198118+910157040+908158355+906052828
1278+903887795+902084817+901182827+901213763+901500772+901492466+901591788
1268+902513184+904158692+905833776+907105985+907922689+908523132+909608370
1258+911800186+914612209+916704559+917313954+916830233+916109128+915785454
1248+915933614+915908193+914894994+912953452+911039982+909807802+908911684
1238+907808114+906854852+907044759+908632265+910481502+911058242+909683417
1228+906735766+903453270+901566438+901988073+903770069+905179983+905458830
1218+904843921+903901329+903637592+905056815+907849790+910427293+911826681
1208+912819328+914710528+917786288+921323426+924527295+926946828+928417896
1198+929423075+931081259+933875451+936961952+939328280+940890364+942088887
1188+943161450+944099245+945097549+946972780+950536844+955129072+958644513
1178+959923884+960088370+960713375+962165253+964104073+966194848+968013865
1168+969117722+969539715+969970659+971332810+974053245+977526293+980444011
1158+982220923+983765606+986080589+988869769+991360267+993425477+994868188
1148+994823934+993369335+992461473+993758961+996569695+998888689+999704246
1138+999509326+999192097+999185652+999505173+999994980+1000337415+1000475120
1128+1001297480+1004228876+1009760833+1016166422+1020454025+1021234064
1120+1019916454+1019071036+1019938224+1021680548+1022987273+1023887043
1111+1025669469+1029273490+1033915917+1037324015+1037682061+1035634610
1103+1034000058+1035256298+1039385573+1043696521+1045188070+1043729175
1094+1041592284+1040174134+1039065051+1037940929+1037504614+1038320529
1085+1040197909+1042795032+1045412636+1046707117+1046435503+1046438224
1077+1047898551+1049088338+1048016635+1045587793+1043864946+1043480118
1068+1044306345+1046198118+1048466985+1050356108+1051926213+1054225227
1060+1058607068+1065050610+1070747554+1072526829+1070689121+1067856045
1051+1066055431+1066413692+1069045689+1072281424+1073741823+1072322313
1043+1068706118+1065010008+1063167072+1062912573+1063054288+1064057748
1034+1066753907+1070081445+1072105337+1071432926+1067831984+1063562857
1025+1062214884+1064782577+1068378506+1069577961+1067958518+1065525308
1017+1063917322+1063227009+1062930547+1062783533+1062261717+1060403529
1008+1057305713+1054521045+1053504767+1054607978+1056911433+1058602055
1000+1058436566+1057036892+1055946212+1056011376+1057430456+1059718228
991+1060944393+1059163543+1054863695+1050507705+1048199596+1048368594
983+1049826701+1050404516+1048448367+1044333199+1040053473+1037452625
974+1036751213+1036495711+1034930333+1031825142+1028466740+1025469178
965+1021804002+1016673773+1011008838+1006729685+1005282105+1006283560
957+1007095465+1004920979+999608362+993324938+988236385+985295036+983944987
947+982540300+980391235+978949813+979681874+981744793+982681943+981314780
937+979053217+977797764+977549709+976987147+975927545+975808244+977365530
927+979012400+978529109+976075490+974066421+974474021+977363883+981101241
917+983250377+981998863+977458766+971635789+967164150+965757458+966994938
907+968654338+968994984+968233348+967330498+966582325+965918651+965507256
897+965648684+966521672+967955719+969317440+969634812+967969110+964316394
887+960454938+958555145+958708890+959612527+960965655+963125676+964862486
877+964018070+960602954+957032374+955327573+955464490+956088923+955790097
867+954085511+951701998+949572840+948005529+947190401+947730764+949688059
857+951558493+951734938+950968218+951680873+954789645+958506737+960394786
847+959849195+958320553+957370083+956744434+954976616+951869635+948959507
837+947315216+946622898+946430699+946513479+946470155+946426116+947456644
827+950351519+954153182+956441168+955401044+951798742+948734797+949158796
817+953677696+960285439+965645963+967502074+966730771+966042177+966617772
807+967435836+967221223+965979662+964354562+962613025+961467850+961917700
797+963664392+964756146+963672842+961438204+960603813+962636871+966850860
787+971277814+973492402+971708258+967048788+963242184+962606938+964194730
777+966122164+967565663+968113760+967460541+966514583+966806462+968345201
767+969573085+969324100+967661047+965304673+963335634+962916505+964415286
757+966798084+968449035+968707186+968052105+966872414+965269155+963959709
747+964096339+965807656+967969110+969969156+972267955+974958458+976927783
737+976895989+974894940+972277050+970524628+970562581+972412176+974794902
727+976208683+976401885+975700043+974189876+972383246+970652379+968269940
717+965806081+966580177+972035082+977682544+977937760+973410982+968818467
707+966787772+966398791+965075882+961464341+957305850+955677241+957270045
697+960186117+962604933+964142742+965293574+966020193+965118704+961558579
687+956732833+953439882+952716987+952662421+950312492+945548043+942040838
677+941963929+941936503+937969709+931585245+926187913+922162185+919583608
667+920959437+925806451+930062403+931488142+930039130+926815139+923622369
657+921309176+918848683+915850690+914427457+916507347+921081602+925513784
647+928076034+927743409+923443776+916077477+909462287+906460715+904786133
637+898997528+887833362+876787494+872102388+874534095+879363064+882045975
627+882299687+880519481+875472104+869074392+866971372+871650248+878408226
617+880136873+875427062+868877824+865237855+866113636+870202094+874448307
607+875396485+872550519+869146287+867552123+866043173+862436072
##END=
