##TITLE=<SNM>
##JCAMP-DX=4.24
##DATA TYPE=INFRARED SPECTRUM
##DATE=2/5/2025
##SAMPLING PROCEDURE=Instrument type and / or accessory
##ORIGIN=Admin
##XUNITS=1/CM
##YUNITS=ABSORBANCE
##RESOLUTION=4
##FIRSTX=4497.3318
##LASTX=599.83466
##DELTAX=-1.4281778
##MAXY=1.8678682
##MINY=0.40082389
##XFACTOR=1
##YFACTOR=1.7395878e-09
##NPOINTS=2730
##FIRSTY=0.42287382
##XYDATA=(X++(Y..Y))
4497+243088519+244243410+246215695+246561415+244722245+242228347+240612713
4487+240283165+241031689+242558581+244274299+245260476+244999952+243923388
4477+242907573+242506928+242758886+243273509+243365678+242698479+241964945
4467+242309004+243903600+245592491+246189055+245716765+245029299+244697455
4457+244671244+244765486+245018300+245386686+245421309+244670233+243424063
4447+242669029+242969796+243747255+244077266+243818472+243541811+243691354
4437+244117646+244211494+243597163+242776960+242546143+242940398+243520499
4427+244149014+244585584+244188554+242913466+241685560+241242256+241355344
4417+241393719+241171759+241055417+241283561+241420359+240812162+239529467
4407+238437553+238279718+238966190+239790265+240173967+240127968+240034171
4397+240093584+240160604+240161906+240433463+241274498+242236245+242402184
4387+241543965+240484139+240069309+240237954+240329216+239985825+239415164
4377+238931241+238542246+238057107+237555692+237458075+237834119+237957485
4367+237159913+235987804+235665212+236433677+237242334+237227412+236769752
4357+236741793+237284530+237770954+237716286+237378635+237402893+237994507
4347+238614542+238481702+237245812+235194481+233036641+231599212+231398598
4337+232204342+233120844+233312035+232727137+231997304+231597567+231474012
4327+231587220+232132320+232813944+232735652+231744473+231004480+231507265
4317+232869383+234179522+235175875+235875025+235865740+234989224+234125917
4307+234251099+235169177+235954620+236079973+235578302+234778434+234153910
4297+233860631+233588851+233242446+233222419+233803856+234849583+236081618
4287+237114770+237538715+237269385+236496020+235470029+234587808+234182469
4277+234163915+234274433+234457109+234769851+235290796+236003771+236541693
4267+236509074+236164451+236116516+236404742+236463041+235860292+234762142
4257+233860442+233909970+235015933+236332223+236784691+236261776+235692828
4247+235740541+235956539+235590414+234703157+234010346+234018312+234656061
4237+235450995+235954449+236035157+235738519+235194035+234761953+234709084
4227+234729488+234417569+234030595+234152745+234911840+236014290+237087257
4217+237658415+237383569+236577430+235960770+235632404+234922633+233590273
4207+232474049+232458527+233341433+234156326+234237291+233723782+233293190
4197+233475319+234177347+235010211+235839888+236626136+237054843+236857776
4187+236241664+235592384+235004129+234372341+233771785+233494181+233692225
4177+234171214+234638433+234965771+235111785+235079440+235043772+235207535
4167+235503436+235742168+235887891+235788578+235049220+233695428+232527329
4157+232299578+232852594+233410183+233550647+233578915+233971217+234731150
4147+235407995+235570713+235126210+234406382+234039812+234403213+235212006
4137+235953078+236374624+236251446+235381372+234156926+233348543+233194254
4127+233425208+233903734+234469701+234592588+233900736+232765478+231931312
4117+231803201+232255738+232862376+233263740+233465365+233714907+234057218
4107+234139468+233673037+233065422+233070339+233695480+234130217+233950316
4097+233632058+233656590+233917988+234187454+234356648+234088827+233006249
4087+231438019+230413141+230678256+231938148+233138421+233482771+233107121
4077+232619686+232221269+231724069+231216230+231034718+231167695+231370519
4067+231783379+232736406+233996178+234842319+234965308+234805657+234912593
4057+235342260+235761116+235849550+235444948+234526648+233384863+232658422
4047+232790611+233474890+233977847+233965597+233704251+233570349+233673208
4037+233826076+233715404+233257076+232799451+232741322+233025060+233273420
4027+233282551+233098573+232852371+232796573+233244570+234230764+235372172
4017+236157803+236253587+235639120+234678401+233857495+233238111+232516244
4007+231807621+231799740+232802774+234176285+235044063+235242929+235283172
3997+235605370+236122375+236442774+236369210+235996867+235440134+234826232
3987+234500950+234797485+235562164+236180897+236109869+235410753+234835158
3977+235150897+236267550+237334692+237700525+237377470+236721749+236142042
3967+236036219+236676504+237975748+239276499+239692288+239069495+238194452
3957+237723875+237684044+238171136+239571132+241801456+243838757+244355127
3947+243170975+241845811+242005891+243325778+243994571+243086087+241416162
3937+240379172+241067460+243730877+247101873+248868850+248015103+246179187
3927+245622797+246711747+247910992+248100008+248128909+249217209+250888539
3917+251274707+249198844+245572206+242416249+241072583+241723318+244275858
3907+249037307+255894922+263037096+267595499+268269791+265735736+260848179
3897+254975662+250813364+250589777+253646164+256238758+255807772+255112340
3887+257568753+261617656+263229332+262644932+262592799+261865108+258235164
3878+254477280+254690709+259022423+265067441+270949843+274472473+273238107
3868+269266709+267017814+267043443+266155192+262700644+258914030+257830647
3858+261327100+270342999+283039775+290107152+283280717+270333697+260427542
3848+255975801+256468890+260455980+266441568+273533631+280747331+285609241
3838+285361721+280819336+275533635+271191556+267481350+264766606+264249636
3828+265715298+267784909+271007012+277285673+284446281+286137450+282336531
3818+279169010+277297940+272792765+266081988+261674122+262312540+267525242
3808+273726724+277193521+279606231+284677870+290470929+291482427+288264761
3798+285001421+281662993+277033476+272952503+271657782+273031515+276104811
3788+280605205+285973413+290907894+295479351+301592434+309645113+316971917
3778+321798810+326283992+333332986+344011598+358031705+373260600+385457435
3768+392067717+394560124+395672323+397776728+402016171+406552816+407996139
3758+406574916+406830318+412561806+424125380+437453224+445003872+445524988
3748+447165395+455183057+465770186+470357165+469679703+472093681+481538288
3738+497010077+514653155+528882785+536025010+538228232+540434572+545497953
3728+553612581+563414009+572989160+580781984+585468362+586312139+584652270
3718+583180509+583857559+587652054+594208679+599915018+599589992+593242238
3708+585646670+580759576+579612634+579904149+577803719+572667904+567797085
3698+565919848+567638513+573099592+582708356+595567165+606541883+607555608
3688+598275707+588002914+582945049+582867339+585311092+588490417+592761108
3678+599581358+606781592+607936003+603813194+601615317+601689053+597864749
3668+588872594+580158660+575320220+573819198+573583566+573736177+574729275
3658+576188872+576560770+576466888+579518957+587807131+597883388+601114862
3648+593544581+581419563+571182986+564968449+562479331+562169485+562440921
3638+563022821+564597065+567291525+570726662+575231409+580907252+584792135
3628+582685810+576146454+570261670+567981938+570315807+576066071+580795758
3618+580855309+578490636+577802759+579443166+582170416+585859242+589626805
3608+590294536+586841238+583086078+582810736+585762755+589105998+591280164
3598+593355857+596482141+599638989+601154745+601826039+604278495+609267695
3588+613537015+612855785+607578016+601563716+597675339+596665795+597701722
3578+598993188+599145730+598414201+598284204+600216469+605120353+612568450
3568+618933267+618903527+612399599+605184631+601398154+600286367+598979551
3558+596569651+594716467+594622858+595180671+595150450+595972846+599876368
3548+605832968+609678653+608521089+603453700+597624081+593494350+591362945
3538+589600217+587195730+585580336+586583644+589538337+591790213+591462241
3528+588905761+585840945+583773202+583275968+584092128+585211796+585192951
3518+583388969+580787398+578737540+577509736+576808770+576405693+575727889
3508+574297176+572932934+572944035+573979826+574151486+572723514+571057581
3498+570325332+569963234+569055487+567930851+567299954+566874194+565905628
3488+564515894+563772407+564367293+565310674+564593913+561667351+558066480
3478+555176649+553260419+552574324+553313528+554438232+554282333+552496545
3468+550315286+548951730+548277455+547349595+545985216+544984203+544905877
3458+545369019+545459852+544619398+543317893+542604147+542911286+543524743
3448+543436445+542446808+540904053+538931014+536670640+534815743+534233877
3438+535106025+536647821+537821248+538281135+538142025+536907094+533886889
3428+529858100+526759534+525490922+525372336+525612010+525856858+525672657
3418+524967750+524354465+524157381+523952724+523408103+522698023+522171699
3408+522075315+522213466+522039098+521549128+521352694+521371916+520551028
3398+518534200+516561881+515805613+515750175+515138980+513879824+512978279
3388+512960668+513309540+513294156+512897108+512894984+513842683+515002679
3378+514938229+513385229+511499048+510231533+509693730+509798577+510539666
3368+511777715+512994246+513359394+512608232+511613283+511152471+510676892
3358+509453474+508114553+507727510+508145287+508565497+508909435+509323272
3348+509194543+508131513+507145816+507265945+507754202+507316929+506155219
3338+505286704+504898874+504666155+504683664+505061112+505355574+505103805
3328+504471161+503866921+503196998+502057697+500521451+499173142+498458471
3318+498428490+498955260+499779746+500556846+501051305+501006317+500008662
3308+498094008+496263267+495574361+495764833+495572580+494518801+493533378
3298+493686982+495121841+497205689+499056200+500002014+499982930+499405244
3288+498608854+497829493+497385436+497315367+497213124+496927159+496813096
3278+496919690+496824231+496652330+497192874+498489548+499363134+498891255
3268+497515775+496197412+495239297+494487313+494114079+494456201+495149184
3258+495131538+493885026+492122332+490774537+489940354+489437774+489532650
3248+490337983+491104633+490803250+489230342+487234827+485930203+485696628
3238+486020043+486288910+486374260+486414143+486549519+486809820+486726388
3228+485539049+483401785+481622610+481171701+481742842+482552663+483233653
3218+483549976+482947929+481034954+478305717+475946630+474765116+474490767
3208+474304612+473824064+473235723+472749796+472378069+472030739+471495438
3198+470550343+469359338+468514259+468487602+469061656+469331379+468398345
3188+466212838+463684968+461848915+460976631+460559642+459999637+459155757
3178+458206380+457203654+456116811+455227429+454948180+455097638+454808658
3168+453459492+451403467+449525682+448300310+447490969+446686869+445919500
3158+445566721+445646624+445481542+444325760+442286558+440335380+439332962
3148+439243706+439379664+439245659+438888391+438459890+437869699+437032432
3138+436112487+435252161+434256801+432855829+431207164+429859266+429166661
3128+428921470+428596582+427905141+427077057+426533498+426375371+426352415
3118+426256579+426075839+425832087+425551673+425237133+424670446+423620984
3108+422354360+421360371+420636277+419973172+419657364+419950010+420263317
3098+419841634+418871287+418041490+417442390+416677385+415743358+415124076
3088+415090498+415326815+415339972+415010081+414539299+414004066+413211102
3078+412023626+410691421+409663306+409087950+408805275+408812539+409246694
3068+409869641+410142243+409821432+408969432+407656723+406157893+404995259
3058+404370632+403998461+403672750+403424613+403085471+402294323+401031502
3048+399809934+399226150+399393939+399813086+399816821+399201274+398345368
3038+397679522+397231285+396814913+396380416+395869716+395038685+393849667
3028+392737366+392107120+391877417+391705139+391290309+390465309+389403512
3018+388550553+388041771+387572359+386988301+386427747+385814531+384884135
3008+383763679+382916579+382480882+382182343+381903163+381798727+381790812
2998+381500805+380846095+380196250+379758326+379241253+378276217+376931163
2988+375718332+375099291+374981801+374867634+374516397+374102115+373678274
2978+373019692+372081211+371173566+370575837+370217507+369865517+369512156
2968+369362046+369423002+369372702+368905072+367972689+366736559+365556587
2958+364870800+364762664+364788465+364467346+363809106+363170398+362718254
2948+362259704+361590809+360783317+360066898+359634868+359595464+359847645
2938+359980999+359577510+358619361+357414240+356279085+355499415+355302056
2928+355513223+355477589+354711111+353454663+352264206+351351970+350654671
2918+350204515+350057764+350114470+350223874+350256904+350050465+349486177
2908+348595356+347559874+346745496+346580173+347096630+347710086+347733659
2898+347046468+346072934+345227478+344604222+344148858+343863339+343735536
2888+343637987+343422846+343040463+342551555+342102804+341818004+341620132
2878+341285513+340770359+340314549+340115546+340049486+339833830+339381481
2868+338848544+338346582+337790551+337117647+336497680+336164021+336098749
2858+336027720+335711261+335141148+334460226+333798766+333216969+332706612
2848+332229148+331848067+331763436+332035901+332327519+332155721+331462019
2838+330709383+330310760+330162638+329877770+329321774+328724592+328327613
2828+328091468+327762023+327174470+326462642+325910415+325625444+325464405
2818+325250189+324940411+324571460+324119179+323486227+322676679+321920138
2808+321462649+321288659+321231027+321225579+321204164+320937422+320341063
2798+319763480+319596959+319714552+319604874+319000463+318136779+317433072
2788+317089065+316960370+316715796+316168126+315518624+315150358+315104856
2778+314954027+314310659+313282680+312306920+311697815+311431483+311240806
2768+310895942+310422042+309987236+309624075+309184096+308515029+307610743
2758+306646392+305851955+305299179+304908573+304639501+304468628+304246154
2748+303826390+303270942+302740746+302321496+302043789+301860992+301565913
2738+300994122+300334135+299957817+299927905+299934963+299718588+299284810
2728+298719152+298049708+297308928+296551050+295819350+295181326+294747788
2718+294615804+294779002+295011584+294887104+294120660+292929484+291887697
2708+291382343+291302166+291266531+291063005+290770496+290511874+290265519
2698+289957625+289589360+289219415+288906622+288683497+288537362+288407503
2688+288203120+287850719+287372963+286903808+286580479+286437617+286405906
2678+286372447+286249595+285989277+285531651+284853197+284116905+283596560
2668+283360055+283203367+282968147+282744543+282677077+282712232+282622067
2658+282224557+281566455+280919146+280578925+280631931+280893637+281056869
2648+280905286+280444183+279868331+279362291+278940385+278547330+278220215
2638+278002726+277802387+277505218+277165631+276951123+276924380+276967090
2628+276948656+276906683+276923352+276863288+276491613+275865325+275324267
2618+275080310+275064309+275120005+275127183+275018447+274839094+274716242
2608+274721741+274829928+274945740+274909763+274615044+274163329+273769177
2598+273536081+273454465+273494913+273550729+273449017+273173161+272930608
2588+272885397+272940664+272893723+272732838+272628488+272623983+272536233
2578+272266578+271989831+271876127+271831190+271679659+271449698+271323454
2568+271367757+271437072+271393712+271323368+271392290+271585691+271782724
2558+271978661+272220048+272433203+272496453+272402708+272236855+272029765
2548+271725709+271326486+270989777+270872698+270916419+270894062+270640065
2538+270170019+269624525+269143925+268799045+268620754+268616351+268721317
2528+268816656+268816108+268698344+268490192+268224340+267886603+267485067
2518+267171863+267111388+267232476+267310871+267241915+267073184+266894208
2508+266808172+266868904+266985846+267011629+266925867+266832259+266783091
2498+266715077+266595720+266521899+266573877+266663887+266640451+266465929
2488+266224011+266033539+265966005+265964086+265866075+265569403+265139463
2478+264730989+264438309+264251263+264136103+264081196+264025688+263854490
2468+263558161+263302622+263245351+263342146+263389087+263234969+262940284
2458+262705852+262639621+262657027+262628828+262525848+262382318+262227737
2448+262105741+262054140+262020425+261895414+261662610+261421924+261256499
2438+261161692+261076273+260928648+260713301+260525262+260442172+260431019
2428+260425811+260380052+260245824+260041750+259878432+259805451+259749241
2418+259662109+259607201+259693237+259974884+260335509+260506314+260357815
2408+260092135+259998526+260122270+260282315+260319423+260258485+260260472
2398+260447911+260843982+261546439+262896495+265412801+269652844+276206454
2388+285712872+298744952+315653212+336489628+360967895+388473254+418238849
2378+449541614+481595816+513290044+543359215+570924775+595493361+616362534
2368+632569108+643539509+649635220+651927047+651264662+648061490+642387154
2358+633019195+617583142+595058829+567406171+539430887+517411723+506133188
2348+507394947+520113789+539374557+556900865+567042805+570628737+570902366
2338+569876787+568660358+568440522+569787872+571506503+571427457+568710897
2328+564596174+560584688+556624151+551284091+543438912+533512627+522885514
2318+512608163+503033081+494103560+485454453+476364235+466069273+454338698
2308+441611873+428589421+415864274+403834166+392672985+382321590+372595645
2298+363331231+354457354+345988132+337956524+330361915+323185803+316419553
2288+310090061+304316223+299295226+295143156+291758729+288893293+286328333
2278+283947163+281685984+279524478+277540458+275864160+274525444+273414599
2268+272398665+271413122+270472910+269645203+268946258+268261413+267476981
2258+266658628+265960146+265399336+264856325+264258921+263653448+263099782
2248+262593570+262127139+261746213+261463126+261181582+260813213+260399445
2238+260016926+259658477+259313921+259056653+258932378+258857375+258731199
2228+258565380+258411142+258263535+258146336+258169721+258355618+258501239
2218+258384777+258038611+257667176+257360464+257058721+256781563+256701146
2208+256903490+257206878+257342973+257246641+257046712+256847606+256664398
2198+256529982+256522478+256666831+256885262+257075870+257197232+257248474
2188+257225945+257151405+257079468+257020757+256928108+256790420+256650367
2178+256525510+256420013+256379359+256407147+256390237+256245165+256069273
2168+256012361+256074155+256153304+256214054+256281673+256331886+256298668
2158+256174171+256020584+255868402+255663540+255365086+255055205+254872649
2148+254855208+254935351+255063788+255247270+255498372+255828879+256253817
2138+256744335+257225243+257654498+258066827+258539734+259148000+259934025
2128+260897502+262020973+263279734+264621790+265997305+267423667+268959159
2118+270605133+272264266+273754872+274876219+275561149+275947181+276169963
2108+276127733+275582701+274459761+272947175+271344595+269877168+268617396
2098+267532934+266577732+265715572+264897133+264097762+263376341+262825741
2088+262454683+262166988+261858940+261508063+261176580+260957155+260902110
2078+260980746+261100925+261169298+261134144+261010675+260904543+260987307
2068+261367719+261932504+262373906+262484252+262379302+262306492+262332019
2058+262370565+262397908+262451325+262531228+262649077+262861820+263157841
2048+263421106+263598917+263817348+264209342+264665477+264911781+264857130
2038+264702584+264673392+264797512+264968522+265113371+265265348+265492105
2028+265783962+266085517+266398961+266751825+267169054+267759879+268582276
2018+269322285+269479041+269017612+268463569+268273851+268451251+268739169
2008+268924826+268974235+269006048+269127650+269330183+269560315+269764989
1998+269929814+270286567+271249427+272756035+273953070+274059870+273279943
1988+272360101+271728947+271443959+271448585+271584149+271662579+271642757
1978+271600544+271604073+271674537+271775032+271949006+272513979+273733731
1968+275151853+275787221+275327882+274542079+274206947+274302319+274476362
1958+274690972+275082246+275590770+276028968+276332201+276615476+277048141
1948+277785614+279080130+281124214+283329697+284232493+283095745+281055378
1938+279674416+279308651+279423589+279603216+279777567+279946880+280081280
1928+280327241+281186146+282972225+285024052+286357834+287132741+288018919
1918+288416652+287230615+285121755+283928164+284413919+285786539+286745938
1908+286607188+285714962+284898305+284578077+284580270+284693802+285081958
1898+286012645+287251190+288110746+288545723+289502775+291275920+292428652
1888+291678929+289898658+288691617+288421380+288562580+288740306+288880205
1878+289026305+289270845+289758828+291053137+294219614+299556761+304893977
1868+306514374+303504723+298941591+295830896+294745801+294790446+295079152
1858+295247900+295342605+295583067+296122446+297065210+298585866+300887116
1848+304278122+308885899+313243723+314125703+310653081+306232624+303941619
1838+303797506+304229022+304594924+306123152+310135460+315492378+318866183
1828+318941598+317695429+316291749+313972819+310949565+308872570+308503517
1818+309034226+309525396+310180894+311885785+314653090+317030542+317577116
1808+316606187+315744284+316464095+319301263+323410230+326706497+327597660
1798+326890424+327102551+330112613+335313939+338890928+337138171+331907104
1788+328020714+327539412+329315503+331624086+333822853+335512326+336183243
1778+336628705+339006363+344819330+352942729+358990025+359066022+354606744
1768+349252293+345205515+344061178+346453809+350317379+352418735+352643950
1758+352953180+353517434+354172247+356881234+363365118+371612072+376717735
1748+376626388+374027832+372118010+372248143+374259625+376754739+378036235
1738+378999215+383086458+391150205+397194452+394940519+388065345+381899257
1728+377545750+375235386+375265983+377017336+380321826+386841550+397847825
1718+410113050+415567894+411002809+402232923+394981362+391562671+392715300
1708+398002663+404931597+410231466+414219482+420479555+429593277+436267256
1698+436826747+432991342+425641410+417064599+412175826+412874530+417374308
1688+424276825+434837468+448272146+455493349+450062216+440209016+434271912
1678+434315632+438920188+444371742+447934169+451246300+455850925+458221799
1668+454878522+450054130+449578585+453520276+457135983+457092194+456067265
1658+458923141+468704251+486063866+505048572+510569304+504192905+501869761
1648+506565698+510370403+506385814+499376737+496453464+499406032+507808647
1638+520824246+534655183+540907239+537244865+532722884+534153563+541640242
1628+552013359+562765364+573958925+585386335+594888539+602525840+612107741
1618+625771746+639355848+646546077+649178417+653008134+659518641+666648086
1608+672207091+675893655+678704988+681283808+683473942+685230160+687100819
1598+689673060+693095657+696939834+700357703+702896092+705000703+707317680
1588+709959888+712610661+714892347+716698933+718562602+721740625+727694278
1578+736629007+745182861+748282626+747944992+751019265+759569487+769478811
1568+776131443+781260919+789123264+801050375+817480828+840714605+868906607
1558+885193152+882014033+874905831+871259835+869276860+866780752+863811052
1548+862546038+865882907+874692848+886840001+898598946+903423201+893518879
1538+875549988+863191839+858671161+856374193+851289809+845177652+842432516
1528+843627975+846600005+850571163+856285588+861718571+862694537+859991888
1518+857536280+854905516+850059538+844877639+843414855+848097875+858840971
1508+871234617+873537957+860248248+845071229+838133386+839194326+844017142
1498+846513866+842565185+835476993+832380997+836103127+843546290+847957257
1488+844890248+837059426+830008376+826705291+826668286+827757733+829107242
1478+831854707+836960952+843555610+848417692+846966626+839219955+831886847
1468+830115004+833018301+835427311+833822812+831774873+835168072+845396254
1458+856561547+857147113+845868681+833812944+826828160+824728140+825617968
1448+826655129+825392787+822075585+818858159+817362481+818362569+822172345
1438+827511035+830501704+828536820+824587796+822289733+821525036+820341501
1428+818494690+817583893+818173776+819375334+821203849+824671674+828340489
1418+827911783+822697265+816927333+813528789+812307564+811834177+811320839
1408+811178850+811711102+811803066+810468633+809201083+810268670+813561751
1398+816908899+818711099+818419036+815640390+811484002+808857624+809417630
1388+811289453+810784064+807580207+805656987+807949158+813395846+819173864
1378+824128115+828992390+833846797+837206897+838366927+838718952+839534084
1368+840685275+842174579+844711049+847888181+849711214+849279903+848160303
1358+847785870+847714053+847070993+846207069+846108321+846887614+847771822
1348+848223623+848286051+848214988+848631429+850463507+853634814+856151343
1338+855904370+853385237+851071892+850809021+852898008+856487606+859903830
1328+861625031+861811631+862107189+863692020+866431331+869658968+872721934
1318+875120184+877139616+879816087+883419391+886865561+889521406+892328765
1308+896077894+899940779+902672621+904313645+905836459+907829233+909990379
1298+911520320+912058808+912284194+913014353+913920832+913944748+912796642
1288+911286505+910262638+909818581+909493145+908754832+907290746+905345529
1278+903741510+903021151+902820366+902837635+903753297+905927189+908037831
1268+908641419+908373957+908954726+910654067+912277753+913318272+914535865
1258+916270429+917759870+918589119+919483812+921168419+923273167+924778438
1248+925289378+925515929+926206547+926845839+926228476+924275859+922277602
1238+921383183+921504751+921398739+919819047+917161147+915409040+915789230
1228+917394688+918619614+918964169+919052432+919467297+920057454+920423458
1218+920638291+921082417+921751449+922164189+922059342+922026312+923142211
1208+925759064+929007876+931771994+933692814+934969410+935973609+937275423
1198+939217898+941325798+942718205+943293081+943786820+944403429+944203397
1188+942656941+941208754+942053558+945798371+950986437+955458599+958149529
1178+960017584+962600516+965496686+967138600+967846693+969495461+972010824
1168+973089102+972195300+972020418+974602116+977818583+977699483+973872438
1158+970446346+971503791+977312166+984327856+988404478+988724843+988181216
1148+989621180+992886507+995748893+996602401+995729089+994578584+994472024
1138+995783226+997965958+1000276356+1002273996+1003520166+1003254005+1001452628
1128+999973260+1000797232+1003448212+1005691111+1006514946+1006961333
1120+1008469003+1011942584+1017287647+1022622224+1024947425+1022865839
1111+1018400941+1015395470+1015999813+1018817519+1021026977+1022112929
1103+1023548714+1025344541+1025863909+1024836548+1024467185+1026239507
1094+1027852641+1026930263+1025881110+1028530513+1034270224+1038996348
1085+1040681297+1041326208+1043788258+1048498757+1052601899+1052136256
1077+1046634882+1040823697+1039881378+1043856168+1047937724+1048615116
1068+1047389711+1046809970+1046360979+1044709676+1043369830+1044587766
1060+1047612356+1050160339+1051833159+1053390100+1054464471+1054651003
1051+1055376433+1058198936+1062133089+1064232218+1062654377+1058901410
1043+1056598618+1057009302+1057721506+1057346388+1058079013+1061552526
1034+1065212296+1066251787+1066599769+1069335859+1073093829+1073741823
1025+1070103022+1064684430+1060227550+1058402120+1059103565+1061009310
1017+1063630137+1066656646+1068127859+1066142143+1061797237+1057721780
1008+1055215257+1054154043+1053803594+1053580195+1053806952+1055046337
1000+1056427573+1055790338+1052616975+1049351854+1048562624+1050117509
991+1051305704+1049345755+1044599415+1040303027+1038570519+1038643706
983+1038921790+1038886498+1039078101+1040166863+1042149975+1044198394
974+1045063277+1043902356+1041099931+1037864893+1034803230+1031491578
965+1027714969+1024178685+1021526610+1019632240+1017982993+1016053607
957+1013200335+1008944240+1004180084+1001187153+1001328662+1003166702
948+1003392568+999924332+993983150+988711823+986201804+986205025+986966569
938+986955536+986286778+986379153+987820831+989277173+989116477+987017279
928+983333114+978528869+973981533+971438347+971230298+972405062+974364601
918+977072184+979860766+981286066+980579412+978453969+976225117+974995737
908+975195563+975809499+974899593+972007329+968954232+967510293+967642482
898+968789287+971110307+974280792+976421859+975571572+972231071+969170298
888+968057963+967596569+965819587+962742230+959463883+956620411+954763320
878+954267320+954526901+954998575+956390776+959264195+962642317+965133011
868+966072110+965473592+964093452+963166963+963287434+963867517+963987714
858+963177242+961422189+959080130+956886776+955484502+954562467+953225088
848+951742362+951947464+955113426+959872443+962850983+962011044+958901343
838+956555995+956055197+956090763+955344706+953934071+952351022+950878164
828+950270669+951048386+952378227+952783086+951761138+949928718+948085127
818+947253548+948899780+953378657+958278292+960241805+958909429+957221121
808+957840471+960988753+965017132+968091130+969821719+970687493+970066773
798+967038551+962540280+958956713+957664356+958260064+960046914+962666371
788+965290350+966619917+966230545+965265817+964992873+965093060+964135870
778+961420886+957857740+955339909+955037635+956091380+956806736+957352282
768+959281395+962392604+965139590+967489118+969948015+970845928+968435823
758+964399632+961535533+959843867+957837661+956047591+956624728+960316843
748+965393278+968860212+968362019+963973392+958651835+956487194+959414681
738+965469001+970696813+972510526+971375508+969562206+968792233+969440159
728+970665633+970561060+967810579+964168284+963266190+966014067+968824167
718+968001839+964660104+962890798+964786811+968811147+972600091+975559649
708+977675567+978055619+975518532+970148457+963500691+957845816+955882714
698+958966443+964344125+966696188+964006285+958567752+952547969+946790372
688+942555727+940480240+938506516+934233495+929044743+927021885+930147142
678+937049419+944682198+949177384+948441058+943095722+934040727+922080723
668+911784767+910767959+917964150+925070090+926837478+923159686+917780634
658+914825050+915441659+917597392+918724049+917534621+913159905+905790751
648+899042729+898170993+904092302+910721497+910312389+901589958+891061421
638+886141091+888996350+896680729+904117520+906523171+902980788+897089289
628+893203585+892183761+891227873+886960540+879516486+872106833+867018679
618+865735162+869797805+878186302+885773853+888235285+886227435+881628841
608+875034936+867691823+861576376+857493998+854627089+851970080+849649813
##END=
