##TITLE=<SNM>
##JCAMP-DX=4.24
##DATA TYPE=INFRARED SPECTRUM
##DATE=2/5/2025
##SAMPLING PROCEDURE=Instrument type and / or accessory
##ORIGIN=Admin
##XUNITS=1/CM
##YUNITS=ABSORBANCE
##RESOLUTION=4
##FIRSTX=4497.3318
##LASTX=599.83466
##DELTAX=-1.4281778
##MAXY=1.7691274
##MINY=0.31291488
##XFACTOR=1
##YFACTOR=1.6476283e-09
##NPOINTS=2730
##FIRSTY=0.33284575
##XYDATA=(X++(Y..Y))
4497+202015076+201405401+201093709+201584165+202689379+203488182+203406388
4487+202789333+202307035+202412994+203281581+204590339+205454403+205157199
4477+203880583+202442025+201615186+201873031+203178895+204763857+205649971
4467+205546616+204989071+204710136+205040549+205611335+205537409+204346476
4457+202722715+201828787+201933716+202196336+201862305+201157559+200824848
4447+201179554+201793859+201955747+201462505+200977584+201295535+202214279
4437+202670079+202033110+200736923+199704368+199581967+200316358+201200808
4427+201536268+201295697+200985108+201074029+201605943+202001311+201394060
4417+199664991+197981178+197675617+198741145+199966048+200289552+199616461
4407+198543100+197725106+197442860+197551840+197804874+198095856+198419034
4397+198834425+199350169+199663489+199382637+198661486+198087282+197836166
4387+197533535+196986120+196529343+196594894+197102986+197272037+196252506
4377+194161007+192124134+191150818+191367711+192325019+193490177+194408795
4367+194913686+195264828+195727737+196067249+195762954+194706487+193492745
4357+192893634+193032659+193257022+192990188+192499732+192495807+193174523
4347+194101136+194894368+195527520+195934483+195753385+194755470+193387310
4337+192526448+192593301+193108429+193276485+192814011+192039591+191487002
4327+191607631+192349854+192880068+192389467+191297747+190819916+191264248
4317+191767276+191777929+191640605+191628938+191597284+191674792+192240042
4307+193161699+193820283+193822870+193318504+192826057+192867985+193506239
4297+194245134+194573975+194465302+194232003+194063350+193819614+193315031
4287+192668203+192103622+191534447+190765525+190045803+189918373+190560317
4277+191626460+192559169+192855758+192383426+191651983+191467720+192130121
4267+193171719+193922173+194082758+193728034+193114001+192606939+192500835
4257+192848541+193567919+194433051+194897587+194588608+194062898+194220716
4247+194993255+195457447+195176667+194598719+194174428+193791831+193213521
4237+192621681+192401061+192590244+192889836+193035661+192916118+192626275
4227+192563148+193056752+193812415+194170666+193968460+193746032+194045660
4217+194681671+194916417+194386601+193447544+192532145+191853610+191752009
4207+192449013+193462538+194102655+194364190+194563375+194549773+194009068
4197+193114326+192359332+192117242+192617973+193869266+195323090+196020726
4187+195408718+193892292+192448325+191744720+191717425+191964363+192341064
4177+192942707+193658450+194147731+194262752+194249313+194473640+194960353
4167+195325260+195389364+195548141+196049866+196398838+196162735+195806564
4157+195929888+196237710+195999889+195069224+193969690+193379713+193723838
4147+194852982+195995294+196356621+195845743+194985622+194284114+193949522
4137+193957427+194070404+193918103+193391362+192960723+193295839+194405883
4127+195409930+195484435+194805754+194127074+193818348+193799174+193902150
4117+193913581+193792211+193926369+194558744+195081253+194676208+193592429
4107+193014498+193608183+194784845+195567169+195672170+195393778+195001575
4097+194713288+194741017+195000201+195150892+194991374+194500646+193724091
4087+192928526+192574381+192903203+193711140+194530328+194963446+194953696
4077+194750676+194542176+194219721+193652662+193102460+193033256+193416215
4067+193649749+193435009+193277100+193737440+194614691+195225179+195222140
4057+194862207+194566034+194408940+194092797+193400298+192578179+192166370
4047+192515902+193460965+194391684+194738811+194413950+193717724+192946723
4037+192247766+191816475+192044095+193212128+194949608+196267157+196451818
4027+195796308+195140346+194899468+194935518+195148323+195617508+196221937
4017+196633602+196688536+196448363+196037982+195642560+195423189+195349842
4007+195376015+195637079+196182180+196764415+197103493+197087069+196731875
3997+196254984+196021594+196176175+196537483+196887178+197105048+197227794
3987+197570833+198330168+198971551+198718915+197714470+196932163+196993970
3977+197708664+198534562+198965021+198745758+198126768+197690992+197742976
3967+198110235+198637121+199482266+200631705+201476415+201376479+200446718
3957+199358544+198658483+198619087+199484147+201365264+203653090+204982740
3947+204691505+203981912+204363135+205429586+205482078+204080872+202501318
3937+202053061+203287079+206033057+209110750+210522954+209226478+206627447
3927+205195980+205837146+207195212+207695870+207687025+208496282+210124421
3917+210940950+209637112+206865648+204369430+203137636+203138794+204569501
3907+208438347+215247579+223281244+229116926+230654533+228271745+223150920
3897+217006060+212539514+211976326+214921000+217713337+217136330+215413085
3887+216633537+220420986+222929830+223392648+224035804+223928343+220799189
3878+217080420+216779923+220041048+224585028+229198484+232587907+232341259
3868+229396675+227799358+228594688+228583890+225503845+221459039+219816648
3858+222590011+230884902+243799925+252934227+247933995+234617635+223428408
3848+218068658+218339472+222429877+228093614+234052765+240101143+245049391
3838+246099074+242573268+237481963+233405901+230563713+228543626+227502154
3828+227449808+228272794+231197789+237774970+245573907+248225989+245035264
3818+241569619+239109721+234674106+228604420+224685181+225416787+230733126
3808+237673171+242198611+244574001+247978491+251594755+251327867+247769321
3798+244677266+242227281+239096408+236492132+236422294+238805481+242332806
3788+246460437+251091692+255422830+259120074+263669897+270219278+277091547
3778+282112888+286451895+293136990+303865244+318422731+334785582+349841574
3768+362165625+372313290+380136573+385642962+390875065+397370326+403557186
3758+407401287+410617228+417314893+430098778+447476150+462948636+471839257
3748+478494778+488784795+502809482+514761969+521951737+528731703+538986522
3738+553184889+568096105+577163554+576274853+569452633+563802119+562613773
3728+565219134+568790974+569980948+567681347+563299091+558249497+553398725
3718+550285742+551136638+557270827+566841846+573210201+569646718+558580073
3708+547762573+541714520+541162437+543965826+546045152+545384216+544597568
3698+546759773+551846991+558471364+566604314+576672464+585971765+589036996
3688+585525353+581428888+580133063+580781410+581804938+582852777+585585043
3678+592069596+599569176+601002941+597311683+595580407+595678155+590703409
3668+579329231+567641517+559227407+553795866+550159922+548269978+549207226
3658+552825010+556287779+557832351+560331499+566848683+575405073+578296912
3648+570802325+558687878+549003374+543765447+541997127+542186979+543294435
3638+544818893+546475611+548122018+550437501+555013442+562005762+566825711
3628+564134938+557660623+554478363+557070954+564239668+572694584+578126523
3618+578743505+577576322+578153004+581094658+585632687+591161071+595659452
3608+595793810+591821103+588330731+588531400+591680704+595320338+598303160
3598+601129955+603917245+605366819+604577349+603417039+605014971+609963200
3588+615434390+619060747+621873144+624505095+624850937+621566516+617209548
3578+615589585+616965721+618392504+618634594+620204344+625596960+633422992
3568+638675823+637735753+633004073+628748977+625920301+623377416+620828091
3558+619007858+618198817+617987405+617943776+618251851+619730727+622497832
3548+624569994+623470316+619921375+617195005+616716541+617186033+617074322
3538+615882466+613583769+610739465+608805422+609008804+611024098+613168396
3528+614059050+613832950+613348046+612708382+611063241+607739677+603382093
3518+599782361+598214709+598079990+597965384+597621423+597664689+597828603
3508+597180184+595888736+595184461+595767257+597087718+597807621+596761591
3498+594085180+591270359+589542375+588808725+588715355+589487568+590856650
3488+591487596+590452166+588483539+586874465+585682067+583918124+581291130
3478+578576734+576328864+574535112+573372885+573328714+574539923+576646634
3468+579149871+581211904+581639577+579905769+576821184+573838145+572082233
3458+571934526+572697008+572708765+570616959+566768445+563086702+561470827
3448+562176875+563805556+564967385+565223728+564313250+562094176+559602480
3438+558577468+559517032+561101940+561576280+560242542+557844578+555834964
3428+555104461+555383885+555929492+556352679+556454768+555813475+554300051
3418+552699334+551964997+552072476+552255346+551922454+550779653+548832768
3408+546771965+545533949+545171284+544929737+544473050+544250423+544625460
3398+545165134+544996988+543922994+542884525+542787682+543249686+543161525
3388+542154131+541015527+540834502+541763430+542600362+542032869+540253334
3378+538706049+538505127+539744084+541802355+543561487+543850569+542577788
3368+541066137+540430018+540223778+539551302+538581133+537905871+537360337
3358+536648574+536257619+536515591+536834844+537054722+538052782+539898411
3348+540991578+540267406+538798045+538077129+538198608+538482445+538567422
3338+538387555+538144380+538334847+539050517+539636171+539616093+539373678
3328+539402908+539523989+539227020+538358868+537210894+536157918+535371234
3318+534755916+534164764+533726166+533798192+534486839+535373332+535909678
3308+536050005+536253640+536730946+536952561+536423667+535681046+535601169
3298+536041431+536284173+536382535+536797510+537284693+537344890+537094081
3288+536790890+536282689+535545530+535096369+535422930+536355258+537296667
3278+537905654+538143512+537779653+536645897+535331513+534566354+534148123
3268+533588661+533337527+534119110+535567562+536656496+536969889+536764156
3258+536317129+535804659+535420904+535197770+534869437+534322925+534047879
3248+534490095+535039030+534622137+533552376+533501657+535058095+536502893
3238+535765517+532872158+529744089+528245606+528884330+530724315+532207315
3228+532296380+530968539+528934651+527136449+526152895+525686297+524905293
3218+523593658+522515142+522326991+522578053+522155119+520669731+518995432
3208+518159766+518069398+517736904+516567984+515009232+513929739+513726972
3198+514129178+514547047+514376694+513252813+511397670+509565897+508426135
3188+508182309+508654876+509346779+509666467+509379627+508535351+507043922
3178+504896006+502467727+500103117+498017714+496740627+496679273+497227846
3168+497247634+496375865+495155973+494097173+493204710+492336883+491563983
3158+491031761+490648042+490097877+489184649+488082691+487235810+486958376
3148+487035468+486750364+485514917+483559349+481833897+481112403+481269588
3138+481624185+481888053+482176484+482124355+481095545+479486073+478514783
3128+478454550+478284993+477255894+475692908+474249051+473321714+472996130
3118+472886951+472385768+471367558+470194695+469092411+468122858+467460728
3108+467086704+466636240+465929541+465206889+464743329+464610853+464704657
3098+464722781+464349481+463584937+462672505+461829423+461295066+461309428
3088+461760616+462195017+462306186+462084789+461514004+460491561+459051682
3078+457436604+455972271+454903992+454198415+453561102+452899732+452691177
3068+453493091+454975838+455851334+455175240+453426455+451806710+450857378
3058+450327472+450008254+449990745+450218329+450359813+450123475+449428244
3048+448377114+447223207+446316238+445948183+446095347+446264542+445816466
3038+444578052+443019770+441830591+441374809+441380308+441090864+439978559
3028+438336385+436939484+436273628+436325179+436799048+437191450+436946430
3018+435922865+434570569+433451500+432691333+431983151+431046626+429974694
3008+429107736+428691386+428721231+428928122+428840286+428183836+427279906
2998+426636624+426180769+425431528+424369653+423506782+423084319+422738946
2988+422041798+421030208+420116329+419679793+419776961+420061052+420021873
2978+419507450+418894845+418517312+418153996+417412641+416344146+415295909
2968+414459266+413882729+413600447+413463630+413090510+412254735+411262897
2958+410690701+410625439+410411639+409438468+407963716+406743064+406080790
2948+405695768+405312737+404976408+404832174+404828846+404710912+404322201
2938+403805571+403337055+402861449+402362147+402093649+402155365+402135324
2928+401600751+400705937+399929237+399390142+398795227+397976455+397127187
2918+396453481+395886458+395256814+394546606+393896812+393500251+393422545
2908+393408581+393027177+392159314+391176158+390489971+390132805+389920126
2898+389778099+389675540+389420427+388851342+388126555+387477847+386837097
2888+386092088+385441643+385110126+384995448+384906997+384854614+384839710
2878+384651667+384098210+383263918+382417001+381725424+381107755+380387816
2868+379587927+378939798+378568813+378341808+378095847+377824744+377553243
2858+377215684+376756611+376216792+375626689+374940176+374188909+373564366
2848+373206621+373019084+372811723+372493411+372033034+371429039+370821391
2838+370400229+370086511+369549767+368689935+367884838+367561171+367639311
2828+367614603+367164067+366424556+365595221+364625993+363563503+362805000
2818+362598869+362632187+362526517+362398490+362460206+362395162+361705430
2808+360516577+359501261+359029598+358820392+358411530+357607554+356496371
2798+355395571+354736444+354658484+354761767+354521848+353891444+353271713
2788+352958826+352821321+352510895+351861716+351022866+350225004+349516388
2778+348821157+348182324+347757111+347541285+347280384+346733113+345891477
2768+344904415+343939238+343172596+342770174+342733781+342799114+342606260
2758+342046436+341389841+340954173+340676920+340194043+339389090+338611595
2748+338184898+337943532+337500882+336765604+335946724+335254134+334781566
2738+334454499+333995931+333216049+332344677+331767597+331505755+331265727
2728+330901398+330525674+330246793+330031437+329760912+329270836+328447180
2718+327408458+326477142+325853757+325421960+324955578+324401506+323896417
2708+323602052+323530930+323474930+323189682+322724277+322400502+322345370
2698+322232175+321667756+320709996+319799445+319241430+318960125+318730082
2688+318424286+318009564+317507477+317019390+316641206+316327704+315963701
2678+315565873+315278636+315159581+315096272+314952762+314673339+314229025
2668+313604518+312888884+312268031+311860037+311591720+311282523+310860241
2658+310440165+310134007+309867679+309525743+309173533+308949604+308818972
2648+308597575+308173519+307626176+307157841+306874836+306631227+306224029
2638+305693544+305206398+304742730+304178818+303583577+303145431+302870150
2628+302568370+302118448+301618803+301277989+301193427+301261275+301308141
2618+301239588+301030092+300684756+300275533+299917879+299651478+299386326
2608+299012736+298574138+298256694+298120834+297969022+297638355+297249788
2598+296958897+296677646+296258058+295734320+295220566+294767082+294381934
2588+294036561+293679015+293343591+293156308+293165786+293247978+293197910
2578+292892711+292404389+291958755+291734481+291682279+291564834+291202585
2568+290662278+290147276+289767844+289537801+289497537+289640106+289786692
2558+289719549+289399572+288979876+288663426+288535960+288477463+288273286
2548+287840024+287307205+286902377+286772397+286853503+286921370+286815066
2538+286556209+286243431+285967842+285840303+285923779+286105148+286172490
2528+286031982+285727181+285279050+284689996+284101340+283737861+283656031
2518+283704633+283741189+283745132+283751499+283810123+283954881+284125523
2508+284198635+284127748+283953072+283717313+283491683+283368341+283289767
2498+283051927+282617996+282225305+282051606+282008737+281976631+281985313
2488+282045890+282030262+281828979+281468177+281028819+280609756+280374467
2478+280447217+280713979+280862735+280682741+280265740+279903546+279827540
2468+280017211+280239223+280314578+280292926+280285673+280252445+280095026
2458+279844796+279600535+279365699+279078968+278758086+278515056+278425375
2448+278434528+278427908+278363985+278285067+278220890+278147055+278028325
2438+277863055+277695940+277588551+277541559+277470147+277328391+277229486
2428+277335193+277622864+277866257+277874034+277674090+277460633+277419428
2418+277578820+277780682+277840825+277757873+277678919+277661880+277624384
2408+277566828+277668229+278037840+278488303+278714132+278650716+278524208
2398+278561904+278753130+278897888+278840748+278637855+278479187+278444476
2388+278388259+278077615+277358598+276132322+274246520+271539865+268030791
2378+263988246+259750876+255499451+251255913+247056834+243021833+239248420
2368+235810793+232951874+231038668+230161707+230105399+230959027+233335412
2358+237631116+243466870+250346465+258475128+267927074+277175005+283682186
2348+285845549+284085404+280670062+277976720+276385120+274812041+272688599
2338+270260771+267748925+265065062+262240492+259743279+258136864+257489223
2328+257335023+257162011+256777894+256376665+256389146+257108018+258385285
2318+259780594+260989037+262053064+263156342+264307572+265364780+266319918
2308+267315699+268372003+269321515+270028901+270507383+270837526+271087936
2298+271287954+271418820+271476738+271553250+271770596+272113617+272421493
2288+272604255+272763737+272990488+273151996+273048876+272698131+272303469
2278+272014025+271848248+271772966+271721270+271584706+271305173+270963437
2268+270705881+270600175+270623508+270762641+271021626+271318396+271483304
2258+271422275+271222981+271046442+270962424+270938963+270949219+271014481
2248+271135707+271235263+271220467+271115756+271074081+271197640+271402071
2238+271537460+271585031+271641231+271766382+271921360+271992265+271863207
2228+271560033+271300326+271300235+271568969+271945977+272262409+272422380
2218+272400348+272214295+271925701+271682942+271672432+271915969+272177052
2208+272181013+271901644+271576729+271461599+271587925+271771953+271851070
2198+271837142+271823323+271860403+271954696+272060185+272060294+271888439
2188+271663189+271578320+271667983+271790240+271834646+271838896+271893432
2178+272023665+272196316+272373162+272513977+272565546+272503631+272389713
2168+272337637+272399950+272539807+272721971+272934668+273115223+273201141
2158+273266619+273452004+273752626+274012081+274107929+274047443+273925096
2148+273843555+273839792+273874087+273908075+273963496+274085789+274280416
2138+274492914+274646319+274704381+274705069+274739454+274878225+275076723
2128+275194729+275194205+275239172+275482672+275850275+276156017+276328323
2118+276415037+276472828+276548997+276700430+276937654+277179364+277340492
2108+277443666+277555812+277661030+277729258+277833101+278031382+278240244
2098+278380318+278517407+278732148+279011988+279339146+279703963+280003156
2088+280104142+280024121+279922556+279931727+280064222+280253766+280430016
2078+280559978+280651141+280733659+280832112+280942847+281081256+281364081
2068+281909977+282557274+282870595+282635451+282165560+281897261+281913649
2058+282067740+282291507+282543907+282686984+282642722+282538789+282564256
2048+282773209+283108163+283545477+284077952+284531997+284606140+284248956
2038+283821880+283717313+283960217+284284535+284462413+284475725+284441865
2028+284460115+284576114+284836527+285260365+285820515+286561762+287548155
2018+288532270+288978357+288680067+288082747+287786555+287991891+288501357
2008+289013628+289343029+289504085+289659497+289970593+290468465+291020041
1998+291495032+292086402+293248683+294999241+296501216+296841704+296089171
1988+295055169+294343316+294091910+294222452+294518100+294667977+294493030
1978+294088890+293717615+293572531+293627356+293798776+294233123+295110609
1968+296096189+296463828+296015607+295359554+295051841+295043448+295104423
1958+295209153+295312164+295242652+295001448+294830896+294936403+295345916
1948+296065530+297274189+299103393+300933304+301374742+299825141+297492366
1938+295957400+295584678+295767457+295918908+295892246+295841256+295908200
1928+296162698+296895932+298383219+300115599+301228988+301862449+302618745
1918+302862860+301497107+299218723+297930711+298418002+299804539+300669834
1908+300322851+299215883+298245298+297822581+297785338+297942450+298371191
1898+299203149+300219026+300893329+301235807+302087409+303739207+304937031
1888+304449921+302885163+301577327+300920027+300671136+300710170+300951753
1878+301222404+301450295+301784797+302847449+305728128+310751242+315812811
1868+317276891+314228627+309653770+306517236+305445377+305583641+305989681
1858+306209016+306245337+306310888+306589190+307276752+308621813+310792989
1848+314045938+318582194+323070952+324189551+320705438+315940114+313300097
1838+313113030+313744591+314181417+315427355+318975862+324002847+327271278
1828+327319356+326089986+324841841+322731006+319762654+317574656+317078031
1818+317571834+318116066+318821933+320458066+323013107+325141668+325532622
1808+324503125+323558569+324072558+326616130+330465368+333579762+334266962
1798+333260400+333195718+336160524+341625673+345578338+343977838+338595098
1788+334445491+333760606+335428466+337659478+339755191+341313293+341767085
1778+341782604+343509829+348636334+356278302+362156400+362216308+357678423
1768+352158251+347876782+346433539+348590571+352414703+354500504+354443635
1758+354295458+354480317+354780470+356960257+362788902+370473811+375163708
1748+374620163+371427665+368842562+368266604+369557183+371416559+372259424
1738+372850287+376422887+383983315+390024277+388224701+381613966+375423560
1728+371015077+368662514+368534270+369986665+372979870+379291393+390215214
1718+402529317+408202803+403986741+395600776+388727584+385596838+386827908
1708+392052956+399101277+404884774+409472871+416239814+425809712+432779711
1698+433405050+429890259+423359871+415445570+410556307+410819849+414808003
1688+421299683+431707056+445527854+453622312+448713768+438714858+432476592
1678+432476447+437413173+443438435+447433390+450738431+455016319+457098901
1668+453600932+448481481+447503173+450939172+454178012+453715321+451926380
1658+453584472+461917294+477892809+495860501+500724729+493551168+490196891
1648+493825238+496481354+490895775+481606025+475950988+476098803+481954942
1638+492775120+504398188+507717881+500180678+491203091+487649592+489414403
1628+493345724+497271728+501283794+504572737+504843117+503314861+504627508
1618+510375734+515665971+514630613+509819600+506939988+507525931+509813920
1608+511605140+512301709+512757925+513648470+514636148+515167393+515512621
1598+516451715+518149528+519877042+520909144+521302088+521552715+521935277
1588+522483271+523249624+524232093+525208339+526148011+528043671+532708389
1578+540662629+548196721+549372442+545853274+544776531+548279311+552220870
1568+552264969+549972096+548950811+551089139+558590637+574318852+594811450
1558+602890208+593619811+582262275+575662827+573186506+573254987+574677646
1548+577768598+584611293+596535093+612249597+629147926+642560695+643598295
1538+633219755+624809769+624835599+630244855+634452489+636067676+639632679
1528+647482443+657366385+666899419+677008665+687957629+695850587+698314537
1518+698115641+697200026+695465674+694302181+696547048+704375613+718373782
1508+735202002+743222733+734447008+721121858+714568715+715899414+722324711
1498+729176884+731440201+728859910+726903438+729984912+737328211+743601786
1488+743983226+739558608+734626803+731990077+732064455+733990105+737413659
1478+743044820+751278339+760999923+769058929+770763181+765230347+758450670
1468+756052561+758519477+762211892+763573268+764176250+768641457+778923986
1458+790562104+792841194+783259032+771901785+764972919+762587110+762845913
1448+763018328+761004987+757294050+753963179+752448923+753562348+757947679
1438+764382381+767997452+765141499+759753948+756996032+756806542+756116882
1428+754012812+752757142+753861814+756603884+760538244+766233074+771648481
1418+771559271+765305955+758130512+753441882+751063019+749881799+749498551
1408+750176923+751866489+753381107+753673554+754015417+756635213+761501684
1398+766177219+768535678+767925895+764642414+760625501+758764606+760110354
1388+762709095+763677383+763018255+763555035+767018601+772669875+779038230
1378+785469894+791923335+797901641+802194216+804246916+805091265+805958187
1368+807271883+809499820+813197516+817439952+819763465+818862248+816062875
1358+813345115+811581967+810570775+809737424+808811245+807826172+806710359
1348+805374668+804004609+803039216+803189057+805160361+808545641+811329820
1338+811743095+810408272+809316552+809449752+810480335+812010075+814144315
1328+816942314+819985948+822700886+824888885+826918288+829417834+832639671
1318+836106130+839058962+841205503+842925601+844961226+847816672+851227855
1308+854291747+856228829+857112247+857852119+859345755+861633527+864090603
1298+866310870+868115548+868852236+867807907+865299895+862399663+859720177
1288+857106097+854180976+850828254+847431615+844663642+842777207+841373794
1278+840061762+838824180+837693462+836723655+836215744+836357626+836822343
1268+837194088+837467290+837829050+838420239+839367833+840614242+841874977
1258+842977911+843890633+844547300+845130530+846068212+847338570+848508503
1248+849699779+851561904+854076210+856238813+857213757+857353758+857840615
1238+859430262+861754861+864001320+865948676+867830770+869516934+870661761
1228+871603351+873336399+876356374+879819867+882262979+883284807+884003263
1218+885699340+888468832+891406759+893834388+895922034+898050342+900078515
1208+901591324+902583922+903603145+905248865+907650519+910486141+913435934
1198+916402947+919401216+922571321+926056375+929441149+931805614+932980250
1188+934159154+936417623+939255995+941575529+943436207+945578117+947911616
1178+949859695+951533559+953353648+954995967+955786775+955881484+956335059
1168+957921739+960116105+961623415+962111936+962868160+965375376+969495102
1158+973399870+975724179+977358974+980023556+983409342+985242020+984392751
1148+982491122+982043191+983993730+987175411+989615774+990368597+990150094
1138+990428215+991860062+993521410+994360043+995166768+997317144+1000127153
1128+1001907230+1002857575+1004250569+1005982532+1007168961+1008090943
1120+1010237195+1014634897+1020014707+1023272720+1022784488+1019874778
1111+1016930773+1015969214+1017952311+1021780748+1025384749+1028200618
1103+1030562406+1031737838+1031043909+1029355285+1027864326+1027308662
1094+1028661428+1032223031+1036207169+1038037242+1037158598+1035348133
1085+1034282025+1034416166+1035471638+1036769561+1037805643+1039017395
1077+1040782568+1042155521+1042894669+1045042657+1049993998+1056209763
1068+1061268835+1064120809+1064157129+1060798113+1055873904+1053617388
1060+1055973171+1059679405+1059921278+1056459449+1053262212+1052587385
1051+1053398451+1054048607+1054013516+1054132680+1056070485+1060339618
1043+1065319320+1068295088+1067461665+1064154597+1062110217+1063450611
1034+1066574701+1068809149+1069895081+1071405792+1073383897+1073741823
1025+1071105169+1067042819+1064275353+1063269731+1062689830+1062106527
1017+1061734131+1061197496+1060146872+1058985187+1058951978+1060773730
1008+1062927506+1062463006+1058727831+1054475990+1052361067+1052468727
1000+1053172423+1052489926+1049295945+1044930439+1042798079+1045000331
991+1049489704+1051777259+1050334703+1048123914+1047594876+1047130593
983+1043886761+1038170008+1033105798+1031179497+1032399280+1034544591
974+1034721492+1031922480+1027470948+1022319047+1016055675+1009041505
965+1003029049+998842542+995210469+990799960+986084632+982310821+979723005
955+977434582+974693018+971768693+969314149+967269987+965145730+963305456
945+962640613+962663331+961458380+958172946+954316364+952061802+952095735
935+953142452+953296273+951989088+950359213+949525139+949390564+949311845
925+948907469+947983027+946495614+944780508+943449809+943029371+943456031
915+943955550+944185340+945093431+947173335+948720873+947740358+944778048
905+942016587+940835295+941375186+942796759+943471081+942407867+940463333
895+939086329+938580009+938263541+937709180+937236721+937389673+938095685
885+938498613+937944397+936613915+935022314+933368057+931567576+929815788
875+928876152+929423423+931031302+932422850+932825850+932431170+931655556
865+930630761+929560602+928907770+928602082+927907937+926775772+926285225
855+926660587+926207012+923883932+921439663+921403487+924215739+928007276
845+930248309+929762682+927846220+926959618+927979999+929616964+930661511
835+930924728+930079584+927664255+924384030+922080919+921923047+923699941
825+926719048+929982487+932128087+932547874+932650324+934722560+939014049
815+943125889+944675381+944216451+944346540+945977428+947127319+946179797
805+944393859+943551102+943393953+942898486+942389056+943152876+945459604
795+947868494+948735923+947717784+945827804+944417084+944362675+945805592
785+947548698+947759821+946502849+946081543+947966386+950990195+953180147
776+953900340+953476936+952352512+951296172+950890277+950582419+949512188
766+948024485+946923431+945767752+943618896+941026666+939730986+940697971
756+943560652+947531478+951612496+953896867+952505971+948372571+945091767
746+944843093+946199549+946735678+946038638+945029906+944336701+944629148
736+946717228+950089051+952770707+953550011+952829240+951009658+948637090
726+947415642+948659808+951875278+955544179+958320978+958915640+956771993
716+953549432+951443915+950578006+950307988+951226353+953337586+954699396
706+953812143+950860251+946542932+942634040+941861681+944053876+944661127
696+940462827+934714456+932621528+933929436+933082266+926801384+918929842
686+915357460+916799219+918562222+916530938+911459855+906671813+903999562
676+903007398+902465843+901136591+897702546+891652901+886899081+890480219
666+900016798+905906617+903736418+896526318+889687747+885370789+883166439
656+883014644+884731197+887132996+888972981+888632420+883961371+876119277
646+869704977+867546065+868793848+871053113+872413694+872343440+872494945
636+874790169+878385994+880544111+880209628+878489892+876126295+873134971
626+869362680+864329654+858725698+854898491+853608092+852338676+849092890
616+845526874+844156671+845025764+846743836+848929591+851996306+855572306
606+857642588+855327828+846943962+834499987+823364065
##END=
