##TITLE=<SNM>
##JCAMP-DX=4.24
##DATA TYPE=INFRARED SPECTRUM
##DATE=2/5/2025
##SAMPLING PROCEDURE=Instrument type and / or accessory
##ORIGIN=Admin
##XUNITS=1/CM
##YUNITS=ABSORBANCE
##RESOLUTION=4
##FIRSTX=4497.3318
##LASTX=599.83466
##DELTAX=-1.4281778
##MAXY=1.7631663
##MINY=0.19425173
##XFACTOR=1
##YFACTOR=1.6420766e-09
##NPOINTS=2730
##FIRSTY=0.21136735
##XYDATA=(X++(Y..Y))
4497+128719547+129031803+129374350+129471022+129580661+129919597+130400268
4487+130941894+131588440+132369834+133147735+133598152+133473676+132839045
4477+131897466+130808906+129883398+129602812+130165881+131191227+131980534
4467+132007441+131324869+130678314+130921540+131999210+132850324+132753408
4457+132301276+132433420+133012850+133080247+132246347+131183414+130750339
4447+131027259+131384970+131324097+130902991+130405096+130049372+129998909
4437+130157941+130062494+129403770+128472754+127801943+127626268+127887062
4427+128498118+129385539+130295883+130704285+130168304+128855711+127450802
4417+126516701+126176032+126290435+126651367+127049732+127373396+127576485
4407+127492082+126916962+126051819+125542889+125738038+126142755+126050240
4397+125532880+125281550+125595775+126096302+126379983+126446645+126413178
4387+126229753+125818030+125195314+124436915+123765151+123512333+123660239
4377+123753454+123590646+123451206+123349054+122868872+122034628+121462956
4367+121466150+121786919+122182580+122528221+122441078+121557967+120204157
4357+119197323+118960594+119249583+119701788+120226834+120843153+121482720
4347+121992993+122215711+122194141+122180229+122175755+121800739+120980107
4337+120264294+120087340+120197179+120097939+119644509+119027710+118506765
4327+118296389+118481601+118886328+119169791+119246888+119464678+120069472
4317+120737552+121027984+120957420+120741980+120462819+120350476+120801310
4307+121724295+122422439+122444009+122098903+121921095+122019273+122155664
4297+122156009+122050127+122002667+122221219+122788662+123543268+124195604
4287+124510183+124349191+123738798+123029492+122728525+122943184+123213480
4277+123103078+122705339+122373509+122256782+122328245+122594121+123032705
4267+123476524+123732183+123774044+123727046+123685576+123663860+123703543
4257+123876641+124208335+124699996+125292085+125782975+126066311+126297549
4247+126459585+126160405+125350471+124687092+124713309+125210777+125612663
4237+125565947+125077835+124515210+124352521+124695531+125223963+125623562
4227+125852858+125973042+125869102+125344518+124637763+124485119+125214316
4217+126152637+126554932+126629761+126939376+127331807+127222531+126543289
4207+125867704+125875599+126828385+128247850+129235754+129426811+129339568
4197+129524290+129809322+129736172+129355920+129162913+129342217+129440513
4187+129004842+128364694+128284339+128835719+129286545+129313859+129553691
4177+130503637+131645174+132211365+132233979+132327528+132857802+133653806
4167+134272656+134410799+134173961+133913793+133825243+133836831+133778763
4157+133514829+133067915+132684042+132577452+132635620+132600719+132461905
4147+132435135+132612979+132829743+132870225+132677453+132328989+131910987
4137+131545145+131443292+131696110+132040890+132118967+131980017+131999491
4127+132244786+132281130+131717326+130702579+129793896+129478527+129840457
4117+130581188+131334606+131931731+132396985+132844544+133387540+133992433
4107+134447333+134608570+134619687+134783256+135251114+135835073+136142474
4097+135986473+135596030+135299019+135134315+134907904+134531872+134252810
4087+134472651+135179361+135739635+135644634+135246250+135250987+135730915
4077+136178673+136318312+136320400+136353476+136348113+136191885+135941608
4067+135766106+135686576+135507998+135150976+134819364+134644315+134472860
4057+134215178+134066146+134158625+134312267+134312085+134179406+134069830
4047+134130639+134439783+134857395+135059486+134947497+134795697+134763945
4037+134613289+134175821+133735786+133692582+134105375+134649115+134900264
4027+134796686+134811260+135381325+136284791+136949822+137172312+137169645
4017+137130424+136984214+136568680+135925882+135325154+134977833+134954167
4007+135331225+136030449+136648872+136894612+136971810+137173057+137410847
3997+137457372+137293304+136993824+136610106+136310844+136337714+136743738
3987+137366191+137980268+138313151+138125779+137523490+137002155+137042519
3977+137772079+138919959+139921730+140285739+140022276+139542893+139196607
3967+139123048+139363879+139874887+140530507+141185338+141686972+141939863
3957+141972840+141808535+141445280+141203624+141709686+143038804+144215433
3947+144336660+143930364+144125921+144785607+144656784+143367531+141982976
3937+141560808+142369281+144239417+146589353+148210654+148206679+147238113
3927+146772242+147299929+148025578+148260492+148449933+149336855+150663423
3917+151157471+149871212+147378515+145190633+144249998+144515148+145858703
3907+148739475+153525511+159343916+164144897+166233739+165152593+161390307
3897+156559235+153125031+152767002+154944521+156982455+156866119+156208175
3887+157493717+160042931+161264134+161058304+161174041+161095474+159435569
3878+157718367+158242661+160783108+163943314+167289059+170037151+170480771
3868+169257390+168821592+169207770+168156679+165065622+162093224+161460181
3858+164254010+170953339+180355424+186207315+182229725+172975174+165288766
3848+161570673+161759152+164766052+169137297+173823267+178266800+181406261
3838+181624759+178996360+175767351+173532572+172171439+171196193+170688361
3828+170679595+171128533+173143290+178132859+184309747+186636724+184276189
3818+181383847+179163333+175709818+171404745+168942956+170027078+174396508
3808+179647698+182984186+185043245+188175792+191271350+191135921+188827891
3798+187449063+186780720+185410294+184056838+184318422+186513183+190031580
3788+194318014+198871114+203197857+207588286+213107738+219871461+226371930
3778+231907081+238206003+247043032+258578933+272267271+286847840+299821899
3768+309555643+316486918+321414708+325488796+330427439+336475467+341828419
3758+345877861+351317856+361396960+377072613+395692860+411214354+420611376
3748+428478967+439938460+454540373+466329455+473012740+479606514+490098766
3738+504422488+519611090+531617272+538042658+540014202+540810660+543344792
3728+549049402+557220701+565090108+569947914+570865971+568227699+563214355
3718+557646590+553525967+552391934+554151822+555935958+554195852+549363274
3708+544650008+542303719+542731931+544640824+546237152+547128167+547909090
3698+548642026+549609340+552197520+557824669+566491986+575803525+581220979
3688+580827468+578547933+578312502+580510910+583814894+587340079+591415692
3678+595638931+596397965+591205380+585305739+583901719+584787762+582445067
3668+575809078+568209478+561979159+557575481+554826536+554059988+556000315
3658+559905254+562969958+564052629+566009218+571999895+581198256+586733824
3648+582595125+572499868+563150180+557298815+554734048+554296943+554766426
3638+555720019+557891386+561969286+567651282+574739439+583378551+590949477
3628+592625189+589503786+587161818+588348846+592500650+597451016+600843640
3618+602556813+605037441+609042418+611874268+611920222+611587584+612691126
3608+613598947+613697389+615309761+619232957+623011178+624627398+625345306
3598+627014013+628753212+628533098+627014739+627510502+632082059+639094680
3588+643986896+643490045+639382525+635786232+635278926+637860754+640976095
3578+641280638+637990412+633908519+632703995+635877558+642307663+649169936
3568+652651454+650551450+645246812+640523382+637620023+636287221+636276041
3558+637032499+637968850+639109780+639916474+638932571+636568751+635821949
3548+638242177+641217914+641119328+638464323+636711839+636829809+636474811
3538+633919263+630221261+627158916+625608397+626298355+629455149+633372538
3528+635608951+635513268+633653487+630137630+625559684+622036423+621600770
3518+623934971+626349246+626404419+624343472+622144882+620941157+620675816
3508+621362290+622963047+624217444+623043338+618921808+614169557+611902146
3498+613032113+615332193+615710204+613762508+611708675+610810292+610044252
3488+608550285+607331350+607328991+607314581+605450625+602349513+600422289
3478+600447299+600938125+600732821+600297096+600181232+599993207+599322631
3468+598456952+597902314+597772257+597755596+597623688+597681910+598402977
3458+599626956+600523924+600344466+598950428+596560800+593337290+589574242
3448+586257263+584749322+585320621+586522387+586545327+585048420+583469624
3438+583524035+585406721+587539466+588350080+587814607+586612769+584817889
3428+582480821+580334972+579108125+579217347+581133028+584338933+586235230
3418+584557739+580508551+577087796+575231753+573661052+571881490+571161912
3408+572232531+573820692+574259684+573411210+572124507+570807277+569396978
3398+567965880+566777145+566025915+565665146+565276427+564281599+562694599
3388+561259399+560642146+560941970+561672111+562037527+561755416+561460419
3378+561681948+561866090+561338639+560784145+561478169+563173955+563895530
3368+562292159+559584086+558202862+558919572+560449184+561564450+562243157
3358+562627846+562302505+561082300+559628479+558943747+559435807+560325371
3348+560094005+558235494+556291936+556096433+557457693+558585591+558423011
3338+557506006+556777317+556594882+556745157+556715283+555994507+554509071
3328+552878876+552143472+552805662+553880021+553707349+551933123+549687200
3318+547961650+546901049+546543147+547279277+549240259+551651956+553205198
3308+553271443+552630196+552540902+553182004+553546366+553106721+552793212
3298+553564007+554865411+555463281+555165853+554756843+554899024+555717878
3288+556579891+556332699+555005378+554568201+556380939+558732817+558755903
3278+556399815+554439668+554832707+556906322+558917721+559827103+559295442
3268+557522377+555501685+554241951+553830655+553990259+554686061+555478055
3258+555465677+554464387+553199173+552274001+551634569+550827657+549553513
3248+548093050+547218659+547495144+548621408+549577361+549490463+548420352
3238+547246101+546754403+546929870+547048601+546455341+545295646+544137185
3228+543040430+541836052+541001989+541070484+541533614+541432124+540570982
3218+539364643+538064183+536656751+535193239+534101675+534017318+534964487
3208+535967264+535812597+534139462+531814590+530275577+530162399+530662771
3198+530609122+529906858+529271819+529087750+529164013+529022449+528092885
3188+526223376+524014622+522226784+521158669+520779025+520811802+520599675
3178+519630364+518219375+517087412+516481665+516174545+515944886+515618128
3168+514902833+513549885+511619540+509478446+507604218+506296861+505419385
3158+504531528+503498913+502856251+503173426+504049813+504207601+502884600
3148+500700057+498791237+497580651+496743103+495994922+495310662+494520229
3138+493378574+492060836+491008220+490212343+489306300+488480477+488452999
3128+489261181+489864859+489426593+488332452+487399730+486787958+486267985
3118+485817413+485330798+484354010+482683524+480802399+479310392+478334802
3108+477724845+477314746+476802976+475899946+474844028+474327103+474647690
3098+475237320+475268500+474549104+473535073+472625582+471897438+471359496
3088+470909760+470193848+469084099+468087093+467665742+467542944+467262032
3078+466924384+466844819+466995239+467150523+467184389+467019813+466470982
3068+465260070+463358327+461350412+460087884+459797207+459834993+459468634
3058+458689563+458122837+458190279+458524877+458299755+457075594+455224923
3048+453566452+452717870+452736709+453170329+453426413+453195846+452648939
3038+452199530+451943517+451472401+450432744+449040195+447741804+446639532
3028+445556934+444411613+443306583+442365258+441559689+440708820+439695915
3018+438703119+438154797+438310081+438824065+438819455+437667237+435736493
3008+434121943+433552240+433753696+433898055+433426467+432331854+430937599
2998+429650424+428745905+428218418+427867667+427492960+427024820+426627898
2988+426524048+426502305+426008721+424984672+424034019+423501413+423021549
2978+422175798+421009460+419806061+418786840+418047117+417543223+417137263
2968+416687381+416078912+415290948+414475615+413829105+413342018+412789194
2958+412031031+411236170+410661712+410260942+409739589+409034422+408431724
2948+408081191+407700603+406992568+406128994+405527349+405263460+404996450
2938+404402210+403444805+402328304+401399103+401000511+401219681+401712431
2928+401843504+401153146+399815516+398531608+397809706+397438592+396801919
2918+395633476+394293160+393305337+392831716+392706197+392767723+392902135
2908+392868233+392390510+391461745+390396062+389527116+388930299+388504882
2898+388228253+388093477+387835360+387115636+386030062+385023219+384294203
2888+383698402+383182385+382876426+382775263+382673265+382396381+381873903
2878+381070730+380091328+379257337+378817837+378603278+378181527+377362346
2868+376363888+375488590+374806508+374185444+373517845+372825708+372137528
2858+371378312+370494121+369634467+369060083+368854162+368843091+368808063
2848+368638986+368298108+367821583+367322844+366809477+366104128+365156487
2838+364260789+363736024+363558780+363458705+363213292+362802468+362376470
2828+361996209+361421715+360415961+359208787+358285067+357769958+357396738
2818+356963191+356439805+355781716+355019415+354383287+354019396+353768756
2808+353418041+352892260+352130794+351156583+350245785+349630637+349167942
2798+348610254+347927084+347154365+346285709+345432444+344780925+344379720
2788+344129153+343854773+343377886+342707782+342070202+341566708+340992722
2778+340183995+339324269+338708069+338352781+338010379+337488772+336812788
2768+336091685+335394176+334760843+334182901+333560239+332824254+332077053
2758+331475372+331016452+330521234+329791056+328787444+327713449+326852706
2748+326306816+325985249+325789129+325625024+325328575+324778438+324018060
2738+323163162+322302529+321504002+320786492+320140237+319635109+319343234
2728+319134773+318765328+318164410+317473108+316855964+316364738+315905056
2718+315334591+314635740+313909301+313214950+312555046+311956305+311446423
2708+311031751+310699258+310307417+309616950+308656134+307854666+307544751
2698+307518144+307310300+306741687+305963233+305145867+304386197+303803337
2688+303462205+303241692+302976860+302682934+302461278+302262599+301925914
2678+301414507+300870050+300438336+300131433+299866601+299561386+299165263
2668+298682114+298208402+297873205+297714509+297643346+297482381+297037799
2658+296266006+295391198+294720277+294341704+294107144+293854000+293536788
2648+293162516+292693197+292098449+291490107+291055834+290805103+290523264
2638+290025959+289356509+288729818+288325201+288103817+287867352+287552209
2628+287302586+287158445+286892523+286314364+285580284+285042724+284841795
2618+284752228+284478503+284026480+283644095+283416323+283140964+282685311
2608+282239603+282051342+282088566+282132632+282049799+281834006+281543111
2598+281295393+281175645+281091650+280852408+280402527+279906655+279605597
2588+279590859+279713911+279762006+279668429+279458897+279116422+278645088
2578+278146131+277709172+277328130+276984439+276702292+276470582+276212973
2568+275909210+275651801+275480001+275277928+274987505+274776884+274816540
2558+275045038+275311123+275569331+275809081+275945980+275874709+275553577
2548+275038195+274473829+274003094+273662670+273406948+273182624+272925251
2538+272573393+272171462+271868353+271748296+271769730+271895540+272116161
2528+272315675+272307363+272058320+271746318+271548219+271453680+271332117
2518+271149627+271042983+271143221+271405204+271654338+271719275+271528292
2508+271178358+270860057+270628075+270358904+270004252+269713683+269592338
2498+269494478+269209881+268764355+268377850+268175614+268095304+268026410
2488+267901580+267723990+267586528+267540720+267448813+267161729+266789871
2478+266563660+266496762+266404437+266188698+265926896+265700757+265465816
2468+265143052+264772446+264470226+264255993+264043303+263789160+263535344
2458+263307354+263072159+262805784+262541133+262334831+262220818+262206571
2448+262267044+262306373+262178403+261814894+261321835+260910847+260718702
2438+260684854+260617956+260420421+260216406+260183211+260305391+260414105
2428+260429622+260405284+260348877+260199600+260015059+259995785+260237913
2418+260574344+260745327+260684709+260568463+260580206+260703620+260795092
2408+260782569+260701079+260595705+260507990+260526865+260735327+261075097
2398+261344467+261395630+261293141+261244556+261481729+262271127+263889725
2388+266488522+270109462+274911932+281239784+289403896+299513418+311528203
2378+325318557+340631118+357104682+374327769+391706468+408190377+422432863
2368+433652496+442211099+448837142+453295957+454375143+451407899+445104258
2358+436405616+425443519+412087366+397050454+382691813+372332486+368301012
2348+371232756+380480736+393865348+407489238+417600248+422708041+423504208
2338+421689219+418766731+415573385+412554779+409817086+407014673+403724157
2328+399833447+395286101+389830861+383401627+376435251+369491089+362769291
2318+356141288+349435424+342692356+336262505+330470416+325120114+319637251
2308+313768028+307870347+302503802+297940121+294041970+290460214+286928332
2298+283422003+280096767+277129324+274581199+272343951+270229428+268150260
2288+266199351+264551461+263305830+262411094+261719320+261104789+260524397
2278+259982064+259487172+259063317+258750479+258550385+258390382+258185369
2268+257926961+257669061+257444175+257241612+257044966+256837358+256599168
2258+256340742+256100284+255883728+255654304+255395370+255142407+254941895
2248+254798607+254687915+254634611+254717589+254931840+255130955+255188252
2238+255134458+255093731+255165438+255359525+255578186+255731057+255893165
2228+256219106+256717174+257263663+257794291+258334410+258893676+259439295
2218+259946401+260436864+260990794+261714656+262655236+263730085+264772046
2208+265674223+266492841+267405817+268564387+269952762+271393897+272740275
2198+274013566+275297928+276590112+277838085+279038217+280226371+281417047
2188+282563040+283591862+284525709+285466580+286390427+287110313+287524151
2178+287736841+287890619+288022600+288109080+288127919+288045613+287813176
2168+287412370+286854283+286128661+285235287+284243961+283218043+282140219
2158+280976367+279698666+278252867+276647591+275021516+273554755+272400286
2148+271601759+270999606+270541231+270738785+272324768+275387022+279294229
2138+283447975+287714626+292192135+296909212+301795295+306814102+312026869
2128+317457028+323013395+328679783+334634271+341032759+347772271+354523761
2118+360979384+367168250+373562346+380745133+389044893+398768454+410737503
2108+426160302+445844817+469744148+497069752+526357934+555599799+582906020
2098+607033450+627332930+643814770+656982281+667047591+673894619+677572729
2088+677824712+673896869+665431662+652554828+635347312+614062622+589273582
2078+561919521+533607328+505985421+479882563+455764752+434232326+415503874
2068+399297248+385376765+373532146+363341498+354494904+346904051+340381458
2058+334728283+329957557+326085541+323058695+320955243+319878018+319800230
2048+320775204+323083923+327163420+333568806+342867640+355586141+372440728
2038+394228259+421041947+451840031+484907741+518328416+550191275+579089577
2028+604347555+625633805+642935987+656762095+667882380+677013299+684426072
2018+689638731+692044584+691620547+688461793+682372167+673453884+662328735
2008+649393751+634430344+617259489+598350707+578446261+557923219+536850330
1998+515514278+494696276+475277865+457492553+440851037+424955633+409970084
1988+396210946+383884939+373188728+364086594+356107639+348739840+341831286
1978+335444522+329619837+324377850+319740157+315732893+312406840+309684356
1968+307165833+304359336+301224703+298235354+295783891+293790369+292003438
1958+290420268+289182132+288223856+287279319+286196612+285091818+284178769
1948+283611027+283559048+284110855+284782610+284559938+283053339+281126860
1938+279800755+279223357+278981828+278788739+278619534+278509296+278424775
1928+278395120+278726814+279684981+280887291+281668013+282075281+282522930
1918+282649157+281792644+280401274+279654454+280037329+281044390+281859669
1908+282042068+281736617+281362218+281171543+281177423+281362509+281807091
1898+282600336+283579974+284333963+284833065+285671738+287018370+287913741
1888+287523316+286419701+285627563+285387105+285431243+285575112+285711267
1878+285775497+285840834+286090330+286925464+288990966+292387855+295594650
1868+296182628+293730004+290456385+288399830+287847006+288085123+288446854
1858+288627384+288621976+288577347+288609362+288855102+289572466+291030080
1848+293492160+296981373+300276808+300941231+298386990+295139396+293437186
1838+293327238+293732690+294166274+295419583+298387916+302203415+304446670
1828+304261295+303199332+302153468+300557594+298534434+297272504+297319801
1818+298074425+298831318+299665653+301094592+303074285+304678744+305073306
1808+304565602+304262565+305119151+307432371+310549164+312958285+313504611
1798+312829643+312929210+315282068+319359133+322254941+321302836+317867271
1788+315384792+315307549+316802097+318682568+320600064+322331495+323388575
1778+324092145+325907352+330072223+335953860+340467377+340814026+337981376
1768+334553725+332068886+331622525+333682819+336786580+338578774+338953300
1758+339436105+340301529+341353274+343746822+348565208+354427825+358101434
1748+358319623+356870485+355824766+356112793+357751663+359885533+361322911
1738+362574042+365964016+372069142+376716672+375549971+371095040+367213949
1728+364826100+364006266+364769402+366635281+369660457+375198821+384068210
1718+393633184+398030763+395320657+389937178+385989408+384923181+387003293
1708+391886181+398027750+403312643+407935635+414311038+422566840+428455773
1698+429475720+427681057+424132278+419898876+417849726+419369175+423513101
1688+429598408+438668999+450144971+457411970+455501371+449984351+447062408
1678+448519278+453529029+459527437+464397440+469045187+474662500+479059426
1668+479704375+479225672+481823762+487853459+493963195+497353242+499435568
1658+503596337+512232873+525925548+540198706+544412725+540143460+538847356
1648+542601620+545596704+542688845+537080063+533896190+534507963+538764160
1638+546374033+554918008+558468820+554921238+550285868+549442948+552497308
1628+557251119+562202866+567532913+572780708+576155001+577990499+581305517
1618+587548831+593819404+596103150+595739840+596519819+599476935+603169674
1608+605860397+607123833+607728200+608505856+609677493+611083981+612760383
1598+615027868+617997507+621190599+623917039+626035773+627982888+630060460
1588+632151099+634140756+636147400+638263883+640554090+643558721+648328685
1578+655086782+661260257+663165121+662566417+664582208+670486350+676935911
1568+680564946+682808473+686885502+694243102+705991348+724369775+748623669
1558+767287038+773388135+776503548+782632740+790890248+799177375+806288146
1548+812198459+818194726+825334826+833142017+840271808+843377349+837407943
1538+826001118+818363441+816456108+816062562+812639121+807043007+803453900
1528+803730566+806875744+811206716+815675549+818803377+818845047+816636874
1518+814232835+811560625+808205061+805649514+805955509+810258531+818568744
1508+828211179+831477230+824212191+814868782+810206987+810246189+813016260
1498+815990836+816377414+813926405+812004844+813214449+816495093+818349575
1488+816634043+812660464+808912298+806977524+807077127+808356934+810251416
1478+813336049+818365401+824986435+830891085+832116734+827565141+821795811
1468+819342479+820694810+823025018+823549384+823479981+826322576+833394145
1458+841302246+842751928+836424258+829222378+825269199+824505264+825525683
1448+826622691+826755979+826235460+825804962+825895563+827198165+830404106
1438+834332748+835508741+832503457+828651768+826734490+826071682+824879427
1428+823121644+822209394+822432121+822731655+822891876+823717082+824445009
1418+822809406+819156487+816064086+814256357+812636144+810535052+808568045
1408+807733691+808161140+808769573+808603545+808279400+808919267+810462382
1398+812078820+813327918+813848436+813089075+811484471+810375411+810200671
1388+809879068+808295735+806273264+806055329+808860609+813806475+819101676
1378+823929137+828507373+832574602+835358829+837245181+839495387+842193297
1368+844451053+846293339+848485831+850670483+851351875+850075553+848279148
1358+847368278+847165806+846585904+845299926+844165168+844065928+845102028
1348+846744164+848122848+848553346+848363869+848698104+850128186+852016498
1338+853487233+854381407+854827368+854812413+854762176+855606911+857628293
1328+859927937+861602379+862872458+864684326+867704783+871728889+875659780
1318+878393771+880104294+882082408+885060468+888325068+890776657+892451027
1308+894399159+897179829+900095964+902108562+903085132+903834983+905154065
1298+906980742+908393763+908411840+906792644+904108019+901214897+898726864
1288+896779821+894995613+892693137+889594711+886397844+884102410+882783474
1278+881647771+880314534+879401485+879673723+880988957+882215477+882299181
1268+881514847+881285732+882693236+885664473+889505054+893488506+896864687
1258+899027196+899967831+900144459+899781548+898645628+896636878+894285254
1248+892332114+890911542+889495907+887759249+886116242+885091104+884616394
1238+884428006+884583581+884976619+885069833+884784528+884802677+885529225
1228+886662169+887889197+889063957+889704695+889343817+888483837+888294795
1218+889144829+890171782+890754298+891660667+893829347+896663812+898836412
1208+900294661+902116475+904861645+908316956+912341425+916754068+920672183
1198+923030559+923822007+924036531+924560170+925764114+927658161+929921071
1188+932267831+935001023+938496262+942076295+944371729+945048547+945407973
1178+946948910+949781632+952740600+954936141+956468584+957298945+956853637
1168+955527586+955107179+956871713+960324266+964224957+967905100+971134200
1158+973490833+974693324+975500672+977346950+980372344+982952139+983954191
1148+984095319+984686038+986337757+989093527+992627678+996054894+998417335
1138+999762478+1001322218+1004096064+1007192820+1008306743+1006658654
1130+1004512624+1004642717+1007632102+1012211863+1016676123+1019114790
1121+1018364867+1015957198+1014732565+1015806052+1018408279+1021177624
1113+1022429772+1021042522+1018332198+1017257259+1019007057+1021829034
1104+1023572734+1024171729+1024914974+1026394857+1028460014+1031354225
1095+1035100141+1038523655+1040689431+1042481117+1045574316+1050158142
1087+1053977162+1054068561+1050485335+1046922654+1045851272+1045536202
1078+1042919601+1037759938+1032833310+1031056724+1033776776+1040419299
1070+1048358398+1054256442+1056544398+1056009651+1053915455+1051162880
1061+1049202334+1049566189+1051997959+1054552854+1056040069+1056996675
1053+1058138403+1059777273+1062127445+1063925229+1062923177+1059603767
1044+1057505651+1059192797+1063718474+1068545208+1072192320+1073741823
1035+1072363212+1068811348+1064950149+1061692010+1058989599+1057260056
1027+1057647650+1060758490+1065333604+1068527277+1067932275+1063540394
1018+1058198005+1056209437+1059968565+1066855013+1070660167+1067880368
1010+1061132435+1055368405+1053701005+1056199854+1059698869+1059773353
1001+1055154390+1049073620+1045415256+1045384766+1047846374+1050617388
993+1051446152+1049496641+1045884957+1042390226+1040414798+1040480135
984+1041387884+1040695602+1037412708+1033317094+1030702453+1030089156
975+1030328943+1029733360+1027358577+1023942541+1021531098+1021717598
967+1023669287+1024414057+1022117316+1018281889+1015166983+1012619494
958+1009259865+1004871251+1000193848+995804435+991832744+988005811+984216628
948+981195372+979644199+978898486+977585793+975258417+972484208+969817151
938+967805788+967603824+969760381+972408925+972711363+970610778+968932488
928+969280444+970108264+969535694+968054286+967399464+968357958+970553209
918+973291555+975389163+975099866+971932909+967847023+965193760+964179730
908+963304214+961664400+959714308+958041173+956863873+956586917+957277529
898+957884219+957278109+955988284+955604829+956322810+956539729+955338907
888+953974961+954231518+955980807+956807248+954537658+950027009+946326902
878+945423509+946949273+949534658+951928316+952936756+952067774+950378377
868+949040566+947440898+944618049+941870193+941422126+942816127+943096496
858+941185170+939738246+941542999+945734731+949011962+950219898+951390374
848+953563919+954536133+952335873+948552063+946190203+946127261+947040382
838+947295342+946229840+944502330+943158348+942251325+941278385+940872424
828+942299311+944810285+945694803+943919088+941777922+942081376+945371965
818+950106575+954255765+956614794+957241303+956992950+956784525+957048777
808+957197164+956019864+953560652+951426310+950615695+950568725+950557691
798+950626585+951266234+952752724+954457729+955282137+955285331+955680475
788+956763399+957591146+957705776+957450018+956857484+955704359+954627968
778+954969681+957117308+959794891+961549334+962204737+962045025+960647103
768+957678988+954188250+951519306+949887478+949073452+949214870+950494604
758+952535297+954481323+956103350+958071373+960166949+960321507+957376115
748+953641888+952626260+955814778+962562711+970885992+977629569+980246243
738+979215879+977044150+975320269+973706010+971119318+967013468+962104554
728+958166911+956499728+956598387+956662925+955605337+954041024+953612631
718+955655574+959653327+963173540+963801574+960891609+955686428+950841253
708+949056827+950609597+953099010+954540344+955242934+955926650+955990390
698+954973528+953513972+951770345+949248410+946958856+946881904+948343347
688+947691429+943307970+937798245+933567166+929945682+925736382+922151195
678+920517407+919314045+916772508+913912853+911771832+908236011+901012062
668+893504042+892671430+897166906+901078851+902647882+902781605+902381525
658+901464194+899606808+896741998+893801978+892415818+892960873+893614897
648+892368920+889649376+887264213+885664327+884281506+882898104+881196728
638+878496278+874947099+871266375+867490550+864097091+862085220+861423864
628+862636592+866953988+873058714+876586913+874239209+867300202+859438055
618+852656800+846848123+841568821+837391318+835363766+835167537+835626275
608+837186668+841942766+849598448+854952525+853269008+846449495+840615917
##END=
