##TITLE=<SNM>
##JCAMP-DX=4.24
##DATA TYPE=INFRARED SPECTRUM
##DATE=2/5/2025
##SAMPLING PROCEDURE=Instrument type and / or accessory
##ORIGIN=Admin
##XUNITS=1/CM
##YUNITS=ABSORBANCE
##RESOLUTION=4
##FIRSTX=4497.3318
##LASTX=599.83466
##DELTAX=-1.4281778
##MAXY=1.7140665
##MINY=0.26903394
##XFACTOR=1
##YFACTOR=1.5963488e-09
##NPOINTS=2730
##FIRSTY=0.28993127
##XYDATA=(X++(Y..Y))
4497+181621499+182226339+183602491+184630073+184687966+183765714+182259439
4487+180933133+180547449+181246568+182523270+183711798+184243997+183683552
4477+182078480+180422721+180197423+181893731+184296363+185795339+186075058
4467+185882934+185708304+185469583+185068889+184639631+184390698+184350840
4457+184283706+184036210+183775273+183573236+183166550+182453093+181808880
4447+181629209+181822882+181848645+181248752+180270961+179747424+180081190
4437+180680653+180795916+180580960+180753500+181350181+181483516+180599779
4427+179350688+178698410+178765059+179015840+178970008+178399481+177368520
4417+176344448+175900106+176152231+176678437+176963906+176825437+176460626
4407+176139592+175958932+175976108+176415446+177413121+178503263+178780834
4397+177907234+176617446+175881101+175923405+176361922+176850137+177196037
4387+177264440+177143446+177025924+176777831+176068893+174925469+173671693
4377+172551587+171857864+171929702+172606399+173299843+173807734+174384421
4367+175041703+175451134+175413086+174979946+174296863+173544351+172900661
4357+172542290+172613120+172990048+173305425+173411260+173482893+173568938
4347+173433476+172850124+171818827+170658172+169920800+169922275+170427105
4337+171003717+171480338+171913049+172318952+172582596+172640564+172702097
4327+173004722+173260003+172829793+171663519+170509603+169938087+169704426
4317+169451553+169481834+170213475+171278302+171880659+171845337+171646847
4307+171593304+171585165+171503954+171391249+171437530+171926230+172814765
4297+173342912+172724742+171399949+170743937+171275931+172065370+172235669
4287+172064026+172114843+172223068+171879706+171002205+169924254+169008798
4277+168530796+168672344+169423195+170569792+171797861+172736915+173048725
4267+172726553+172255533+172177235+172502711+172829065+172947352+172954428
4257+172892185+172753941+172722596+172948547+173254906+173468070+173707089
4247+173971947+174016044+173994369+174486242+175479996+176062396+175484477
4237+173984941+172440954+171652168+171889825+172778379+173653808+174119265
4227+174185372+174057396+173901957+173652184+173148157+172617918+172622324
4217+173282219+174086855+174645097+175007893+175094144+174539375+173466333
4207+172823576+173390780+174629733+175176531+174630592+174127517+174778656
4197+176196141+176994318+176365264+174750932+173212509+172481242+172537399
4187+172894911+173186466+173463384+173955070+174637947+175165236+175276205
4177+175179928+175352468+175987589+176809102+177379423+177440247+177014163
4167+176382757+175967968+176067381+176613450+177169060+177229436+176722254
4157+176169631+176045052+176100462+175799573+175204161+174800872+174702822
4147+174691826+174777722+175096795+175454214+175472024+175132509+174867670
4137+175124015+175965392+177022377+177734900+177821898+177640510+177784616
4127+178173399+178022609+176990136+175724243+174950299+174667388+174560564
4117+174603577+174919084+175479679+176133954+176606431+176520068+175793244
4107+174928643+174555430+174805838+175410006+176185500+177164281+178351166
4097+179453182+179845810+179026146+177243848+175435769+174475433+174668060
4087+175797034+177304504+178520625+179035256+178900802+178444138+177963988
4077+177652010+177642414+177920135+178194869+178049586+177301312+176221923
4067+175412900+175331521+175818055+176313943+176640222+177109076+177768654
4057+178154767+177994680+177602761+177408453+177504375+177716978+177864016
4047+177915094+177936041+177868496+177539062+176914545+176104569+175207932
4037+174478551+174431523+175400821+177155264+179079632+180516440+181068857
4027+180915734+180632823+180554656+180653844+180898465+181173684+181110489
4017+180515675+179667876+178926023+178431910+178191471+178080259+177947560
4007+177926912+178339628+179207982+180153588+180780178+180986527+180933936
3997+180813558+180702421+180632916+180673876+180852800+181075802+181221794
3987+181325258+181566126+181968743+182217023+182012578+181526268+181209827
3977+181289582+181710009+182341023+182926708+183090007+182722730+182173169
3967+181880569+182088729+182943137+184385172+185856256+186605072+186417392
3957+185739369+185177991+185108561+185694302+187043365+188910476+190278843
3947+190266372+189615737+189773210+190527739+190282745+188713051+187221188
3937+186976885+188267869+191009027+194415271+196617678+196241048+194406870
3927+193522517+194296610+195053846+194361896+193366425+194042356+196230052
3917+197579414+196143185+192471355+188771802+186729987+186694553+188663429
3907+193340773+201205094+210397400+216905301+218239578+214971243+208526088
3897+200946060+195511350+194743454+197897983+200667126+199615088+197340114
3887+198386515+202679744+206253953+207745778+208975602+208952583+205435912
3878+201212412+200936969+204937784+210305007+215073120+217925714+216997732
3868+213762235+212415562+213639057+213709215+210291546+205876614+204074266
3858+206968436+215935033+230356317+241141542+236530472+222198986+209290045
3848+202191286+201330811+205283535+211641337+218609226+225677871+231481016
3838+232734307+228603237+222778735+218175320+214488275+211160684+209337987
3828+209761700+211539106+214748783+221174690+229486638+233316408+230736905
3818+226910383+223451176+217611533+210192152+205491490+206026227+211286812
3808+217781776+221549135+223827021+228662119+234769047+236131421+232270045
3798+227699039+223349541+218218688+213824403+212468283+214165375+217416385
3788+221290569+225457240+229244650+232531971+236526103+241527039+245262735
3778+246043214+245966577+248336670+254827190+265353158+277699750+288062176
3768+294726692+299147860+303072581+308292224+317152091+330163861+344156392
3758+355541863+365607060+379123903+399445878+425101078+447913691+461302539
3748+470155143+480894031+491659578+495269949+492796710+492859961+500384075
3738+515223621+532929239+545934326+548980108+544013318+537382481+533958726
3728+535050679+539046454+542781235+543923035+542218587+538789568+535660895
3718+535043659+538326314+545891724+556586963+565922610+568194224+564155099
3708+560119410+560834658+566992982+574879686+578502902+576274526+572521710
3698+570788774+571872363+576869957+587577182+603363249+618271459+623240228
3688+616229699+604673966+595503204+591464900+593068946+599483595+609303518
3678+620152515+625212128+618646371+608495633+604435375+603719753+597332883
3668+584808225+573601566+567458401+565776992+566986858+570179304+575119024
3658+580886492+585469184+588613090+593203848+601700433+612886930+620545014
3648+618275603+608549997+598955186+594135210+594067815+595897681+597373469
3638+598626312+600350474+602209128+604549704+609970563+620510476+632204734
3628+636180496+631888331+626598716+624908270+628091941+635349125+643248823
3618+647877778+648771802+647563391+645924547+646880701+653158133+662046395
3608+666326612+663900606+660895037+662853645+668945955+674184641+675622158
3598+675405298+676978427+680618967+684045187+686789911+691199019+697970509
3588+702470124+699168465+690256605+681470351+674967322+670758571+669447854
3578+671264054+674487527+677147345+679297348+682262292+687015135+693573947
3568+700072196+703168347+701618218+696946175+690534550+683525814+677960046
3558+675571378+676032354+677794937+680027980+682503496+684757598+686537281
3548+687938058+688855157+689046253+688412103+686791255+684587784+683356971
3538+684101269+685700460+686510323+686689472+687064421+686742865+684748562
3528+682917427+683838483+686986459+689547480+689885464+688027595+684399003
3518+680149478+677149062+676160424+676152284+676063942+676111735+676760597
3508+677425663+677278775+676967450+678037859+680004009+680008713+676772022
3498+672925226+672128431+674879204+678038157+678277495+675617677+673187862
3488+673548773+676018987+677965871+678083560+677290574+676565169+675859852
3478+675326963+675461977+675813628+675378489+674210777+673181888+672777442
3468+673024620+673738749+674541966+675443234+676871864+678190123+677651484
3458+674896902+671845632+670436641+670853708+672187425+673974875+676327251
3448+678456867+678936288+678037784+677205294+676140709+673309211+668948046
3438+665129029+663518562+664330591+666599329+669103820+671290713+672847190
3428+672892891+670985437+668677120+668495134+670814354+673070546+672693431
3418+669911294+666797520+664609283+663658431+664176011+665377626+665522349
3408+664462021+664136358+665584480+667409342+667933868+667571838+668034382
3398+669656947+670702937+669837141+667882640+666407710+666095713+666626437
3388+667120196+667133488+667272386+667825513+668119214+668377743+669862083
3378+672118424+672717626+670520727+667034318+664119930+662236969+661093751
3368+660770328+661852312+664863481+669524919+673907891+675053498+672194370
3358+668520375+667697144+669599894+671186839+670759541+669324862+668226151
3348+667823347+668203001+669153928+669640817+669005920+668423072+669379525
3338+671160329+671654237+670496158+669609901+670362413+671879834+672158526
3328+670240766+667494249+666437730+668361613+672239026+675859927+677961091
3318+678611297+677491229+673887803+669322622+667379621+669477201+673008266
3308+674613506+673577747+671200728+668918399+667778168+668060892+669026306
3298+669889787+670875737+672601430+674778615+676241074+676165502+675041998
3288+674658387+676732294+680705069+683537687+682876653+679611287+676202093
3278+674028717+673289347+673751070+674780183+675626265+676060656+676474139
3268+677278775+678056229+677480475+674932224+671832340+669977905+669124879
3258+667797210+666024621+665663263+667929238+671694039+674716037+675906301
3248+675519403+674119000+672821277+673075998+674578110+674892198+672689548
3238+669813543+668727452+669653587+671085876+671698819+671517132+671780141
3228+673250516+674557051+673332734+669414399+665346038+663455087+663844673
3218+665111256+666024173+666390311+666639206+666679084+665522573+662526638
3208+658777593+656420214+656562025+658378374+660222279+661238772+661814227
3198+662675990+663717574+664022776+663129275+661621562+660232361+659097730
3188+658131793+657233364+656071103+654677794+653972627+654761357+656342327
3178+656831830+655180365+652390611+650367707+649944218+650339031+650211335
3168+648795325+646301139+643891935+642927940+643518106+644095204+643069974
3158+640537853+637687760+635243981+633410979+632739341+633859036+636345530
3148+638531602+638702162+636527143+633443612+631278301+630522802+630373300
3138+630293844+630636160+631414660+631684017+630890358+629640427+628385718
3128+626798923+625051649+624187421+624435308+624538100+623760534+623271442
3118+624232712+625531966+625032905+622806546+621196937+621422198+621850503
3108+620417504+617637421+615937155+616585606+618314734+619055895+618275230
3098+616843687+615514338+614614975+614302045+614097581+613127612+611523679
3088+610494043+610671511+611582822+612582737+613185747+612995659+612177656
3078+611345763+610698059+610139443+609829574+609613947+608857514+607573344
3068+606471609+605631016+604515503+603192165+602217230+601651147+601315029
3058+601275227+601093950+599806682+597544777+595889130+595728539+595989756
3048+595338505+593969130+592765237+591871064+591152343+591094730+592086804
3038+593344688+593574205+592512682+590962554+589530413+588135013+586645783
3028+585327897+584440632+583810700+582995460+581724135+580082602+578385884
3018+577036335+576363801+576458939+577103283+577728584+577580949+576338038
3008+574695199+573803677+573882759+573931821+573006882+571195610+569097918
2998+567001346+565042663+563771413+563830967+565030006+566239835+566386910
2988+565351636+563850457+562561359+561431359+559886308+557779841+555829485
2978+554891253+555034333+555464617+555318737+554541880+553847952+553729142
2968+553841567+553550479+552683413+551408429+549823762+548119987+546868825
2958+546608951+546892684+546358450+544438300+542433804+542004043+543051750
2948+543979863+543845931+543310727+543208981+543110744+541977383+539760209
2938+537539114+536225821+535779705+535632444+535449487+535405204+535768803
2928+536255057+536096108+534958939+533419377+532218695+531396809+530484863
2918+529362181+528433955+527809812+526886067+525209175+523363067+522320736
2908+522137705+521983611+521329410+520388041+519446411+518506163+517592350
2898+516778492+515903137+514769141+513536722+512558875+511981814+511708238
2888+511556459+511295876+510725574+509893345+509124030+508685121+508482636
2878+508181243+507516849+506429862+505099356+503930523+503255338+502950771
2868+502527133+501630421+500377616+499210202+498408441+497754315+496857939
2858+495741940+494713387+493804877+492910853+492291899+492248326+492438937
2848+492204117+491454331+490634871+489981230+489335580+488512162+487467293
2838+486264147+485040129+483886158+482838600+482081644+481770842+481507645
2828+480581548+478946849+477366737+476479957+476258132+476321046+476250664
2818+475658594+474422852+472902108+471645344+470809568+470032487+468988402
2808+467846341+467018182+466699613+466750169+466685873+465854204+464166335
2798+462491310+461705903+461635894+461479821+460872329+459981256+459037460
2788+458286367+457917168+457658415+456939021+455648915+454223645+452957584
2778+451797601+450779764+450118058+449799602+449443769+448642382+447373222
2768+446079494+445252642+444926232+444732783+444386061+443805118+442843251
2758+441304547+439329399+437537842+436603418+436608422+436860790+436521237
2748+435436938+434156465+433162861+432419123+431684421+430914211+430141013
2738+429213983+427999785+426750974+425890555+425414307+424898743+424151010
2728+423389798+422705689+421909902+421066322+420571181+420441170+420066482
2718+419030499+417728333+416727223+415893613+414714923+413234243+412025571
2708+411357667+410951055+410476003+409886919+409353246+409021235+408725629
2698+408103017+407215975+406616997+406500838+406368699+405784133+404858708
2688+403850729+402842936+401849892+400870438+399899386+399022239+398322449
2678+397705138+397051161+396454572+396046728+395688170+395098340+394265588
2668+393524315+393174532+393133796+393020699+392537170+391719951+390814875
2658+389956920+389082760+388172271+387386639+386823880+386289683+385523505
2648+384573064+383734636+383157352+382707054+382207172+381628058+381063804
2638+380667012+380515868+380448995+380198270+379724337+379182524+378602626
2628+377900146+377131952+376469126+375983544+375620730+375302497+374990612
2618+374691758+374378902+373900824+373105075+372089627+371173313+370558280
2608+370137778+369683074+369105641+368458945+367819865+367276185+366887944
2598+366582705+366222579+365785051+365347411+364941919+364551624+364179325
2588+363834134+363504738+363155626+362727097+362185582+361560804+360869787
2578+360092371+359303342+358687786+358331991+358116401+357876839+357583922
2568+357327446+357158828+356981808+356652075+356177433+355703986+355310666
2558+354946059+354548446+354127123+353768602+353593822+353590873+353517951
2548+353142703+352515909+351860998+351328071+350970298+350771248+350603861
2538+350329128+349969338+349670969+349533863+349533565+349518592+349286685
2528+348794121+348262725+347943857+347808320+347601467+347199559+346763226
2518+346496632+346392085+346287315+346057237+345674559+345197789+344771798
2508+344522417+344399388+344235847+343983852+343752580+343591802+343382410
2498+342997081+342476886+342013446+341801066+341876900+342077032+342195282
2488+342153053+341954862+341600785+341140182+340681446+340278269+339918143
2478+339607602+339366547+339200841+339122767+339096518+338999140+338767046
2468+338499332+338299835+338120313+337853383+337485901+337083994+336707551
2458+336421579+336319571+336401341+336477474+336348433+336030350+335682284
2448+335431073+335355501+335452729+335541333+335386305+334972561+334532681
2438+334303089+334299467+334329151+334263361+334229010+334366638+334509793
2428+334377616+334017228+333772626+333836288+334063416+334223932+334229794
2418+334087349+333834757+333604120+333560733+333693358+333813437+333810039
2408+333738350+333637463+333450959+333184887+332979565+332937074+332978072
2398+332962390+332868746+332754454+332625637+332478338+332389511+332424049
2388+332476807+332290490+331605821+330258028+328182402+325401161+321999473
2378+318092227+313851439+309552049+305451858+301607209+297953377+294506640
2368+291338222+288574866+286546361+285585054+285664285+286625630+288654844
2358+292136044+297208351+303802616+311820619+320669938+328796801+334417568
2348+336685335+336165626+334496015+333010668+331483390+329010599+325471992
2338+321403744+317266420+313270421+309560096+306386002+304095570+302889325
2328+302607553+302820847+303143262+303499915+304110412+305211513+306801948
2318+308580250+310113110+311198305+312042184+312957640+314034097+315243553
2308+316600159+318010755+319218904+320094259+320782139+321440484+322027663
2298+322471464+322861573+323318106+323784832+324117253+324321679+324571471
2288+324996267+325539051+326018584+326286784+326311128+326137469+325835180
2278+325508508+325288960+325231572+325249905+325233065+325192441+325180605
2268+325115413+324871707+324532901+324326981+324307080+324321978+324297148
2258+324320260+324462407+324710182+325038571+325396793+325676082+325816585
2248+325884989+325957238+326011863+326028031+326087100+326273417+326543297
2238+326762695+326834273+326784202+326752539+326851635+327043030+327241146
2228+327465772+327766456+328098989+328382609+328569262+328641362+328666902
2218+328780148+328989615+329166224+329292726+329500848+329806722+330044043
2208+330129809+330217441+330487284+330879446+331160975+331244911+331285647
2198+331431490+331666010+331928385+332186429+332370655+332444547+332548982
2188+332876997+333395586+333851111+334045307+334011180+333952970+334070958
2178+334394829+334784489+335125946+335420469+335640615+335707263+335684711
2168+335759163+335968107+336200388+336464480+336884795+337430193+337886950
2158+338127855+338257120+338455684+338769324+339074451+339214768+339160553
2148+339052459+339098011+339402056+339880394+340341818+340663449+340862162
2138+340978620+340965664+340785694+340562860+340504501+340697203+341076147
2128+341536377+341991304+342383429+342680976+342838954+342825587+342724811
2118+342714394+342900412+343219205+343495955+343602257+343605430+343713151
2108+344003641+344310971+344464879+344529698+344699026+345030327+345372792
2098+345523974+345424058+345236583+345247672+345608881+346169961+346644790
2088+346894918+346930613+346767371+346479083+346242397+346144123+346103947
2078+346097189+346237394+346528519+346739442+346661443+346398433+346298143
2068+346575602+347050730+347356641+347392523+347373182+347412312+347362466
2058+347155351+346970415+346923407+346883716+346737164+346574557+346520342
2048+346591060+346773158+347055360+347349808+347521638+347547028+347553823
2038+347661917+347830797+347902636+347779009+347552367+347466527+347697052
2028+348163704+348634239+348976181+349224032+349535618+350168798+351227072
2018+352290424+352666829+352211230+351512858+351162925+351257353+351616732
2008+352079277+352527409+352879171+353096441+353172275+353163986+353148752
1998+353133630+353259796+353953015+355319030+356532331+356567915+355453073
1988+354044344+352925694+352158994+351644549+351267882+350963577+350776214
1978+350699260+350570033+350258708+349837945+349591999+349911501+350885391
1968+351885156+352003480+351132233+350080418+349483793+349223845+348997688
1958+348829144+348797630+348769963+348631476+348461326+348380638+348457144
1948+348838590+349868861+351743644+353718345+354152550+352312229+349539576
1938+347610913+346936027+346875539+346848170+346673279+346369645+346020235
1928+345881113+346527324+348278593+350303402+351366940+351641487+352048025
1918+352032679+350298025+347509503+345771675+345966692+347162333+347896438
1908+347443041+346172687+344952739+344237042+343866723+343650983+343796788
1898+344604150+345793705+346531095+346645611+347164947+348598096+349590729
1888+348728443+346718869+345091114+344228193+343782488+343629065+343723456
1878+343852310+343856119+343876244+344672964+347548297+352936522+358535110
1868+360195872+356722718+351426457+347685216+346179370+345928122+345965236
1858+345859345+345575240+345318951+345322759+345795198+346995395+349162984
1848+352587560+357353471+361872577+362633789+358597726+353439541+350616183
1838+350280663+350733985+351125101+352641925+356743740+362266307+365528090
1828+365073050+363322901+361800776+359484058+356181055+353634745+352923379
1818+353278950+353606965+354130110+355898554+358895311+361375420+361679203
1808+360220142+358860661+359242593+362013006+366338065+369915915+370828944
1798+369849640+369816521+372909834+378499722+382337332+380239304+374197924
1788+369574308+368687118+370260807+372396211+374499130+376257382+377040847
1778+377465269+379727772+385544527+393902513+400164636+400013753+394952834
1768+389037619+384615629+383200328+385444386+389313473+391397088+391455522
1758+391625635+392178874+392789352+395400182+401991030+410626027+415947940
1748+415424385+411921435+409185934+408926695+410937651+413498000+414641890
1738+415367668+419541322+428389483+435671086+434092692+427002745+420333263
1728+415663050+413398008+413861860+416334538+420539892+428299871+441308431
1718+456437384+464510368+460940210+452005201+444752162+442131885+444795548
1708+452119157+461574062+469563782+475961107+484708716+497095895+507241181
1698+510166473+508056683+502608008+495678652+491974675+494052652+500613257
1688+510161245+523940650+541491540+553061163+550524823+542251370+537711990
1678+539533193+546642332+555501320+562901771+569946464+578288917+584202601
1668+583187453+579377099+579748314+585158457+590704734+592472171+592961300
1658+597182410+608322795+627169615+647421282+652815892+645143434+641639252
1648+645276880+647163873+639776155+628529171+621204591+619795750+624114387
1638+633308672+642436720+641382067+628520807+614995488+607869398+606467278
1628+607127378+607518980+607806110+607187268+603602287+598826669+597493101
1618+600308767+601547683+596054949+587718843+582320537+580813533+580937944
1608+580324329+578582805+576813763+575709414+574867589+573749499+572685624
1598+572467458+573118709+573620048+573052397+571596285+570062884+568911227
1588+568069365+567382829+566871820+566552878+566515017+567633293+571564249
1578+578685224+584986851+584388508+579214230+577345532+580829477+584548091
1568+583398600+579567971+577490666+579196644+587001615+604170685+626855378
1558+635212020+623411273+609180488+600572486+597116807+596957896+598259204
1548+600926564+607303016+619249717+635671951+653469160+666811036+666152168
1538+653926626+644807839+644878557+650019044+652801330+652371195+654569514
1528+662466001+673671988+684762751+695377900+705059223+710537620+711480258
1518+711368467+710505136+707441619+704449343+705810914+713778792+728250818
1508+745393415+752695106+741551623+725682852+717541875+718120765+724236523
1498+730813482+732351513+728672515+726185647+730070080+739327317+747174443
1488+747431852+741945540+736448026+733873638+734049949+735941498+739482420
1478+745559869+754514144+765018624+773424627+774626092+768232464+761107233
1468+759100683+762279649+766144517+766504680+765480645+768775061+779024596
1458+791964042+795934726+786807426+774890222+767559333+765398053+766072006
1448+765954167+762641008+757409565+753203502+751450179+752397074+756518006
1438+763091230+767525803+765400816+760079539+757255060+757446381+757538083
1428+756193463+755391590+756490226+758622158+761369869+765642469+770026336
1418+769590302+763018645+755192877+750098988+747925835+747093420+746878725
1408+747994388+750500298+752444493+752388934+752205081+754584713+759456888
1398+764622466+768326257+769334760+766677108+762009471+759155197+759976635
1388+762548110+763439819+762273377+762217743+765548899+771491035+778178962
1378+785189939+793233762+801609222+807615804+810006638+811053449+813168503
1368+816369201+819989429+823995210+827272973+827128326+822609444+816328203
1358+811419288+808794941+807391999+805901462+804106096+802559328+801548660
1348+800830275+800033554+799265435+799471915+801624456+805121245+807634025
1338+807475189+805620978+804314144+804594778+805923342+807428143+808873799
1328+810539527+812675864+815301480+818396137+822106574+826474685+830903806
1318+834392081+836555376+837965114+839382095+841091732+842929365+844704045
1308+846649211+849313883+852793570+856357567+859068389+860471555+860619414
1298+859953974+859301378+859320570+859606207+858926877+856759400+853846131
1288+850903291+847798926+844249864+840347360+836361368+832722321+829886342
1278+827796454+825938958+824160170+822943022+822745355+823410645+824273454
1268+824738836+824824564+825104974+826063443+827642397+829506091+831453348
1258+833232434+834353324+834703630+835015702+836084095+837792164+839439148
1248+840731270+842039598+843876782+846255219+848557412+850271082+851697995
1238+853358570+855029227+856186857+857092456+858643331+861287691+864534389
1228+867443475+869488334+870944446+872424155+874251333+876379978+878526546
1218+880187569+881038206+881605894+882962761+885487937+888614556+891942128
1208+895623292+899458887+902738143+905261677+907651241+910553308+914027171
1198+917462575+919854903+920677237+920659240+921158675+922720378+924826248
1188+927078482+929863009+933387129+936785046+938964248+939969987+940878498
1178+942527647+944753222+946918534+948933074+951176198+953495194+955223500
1168+956332442+957622025+959504837+961436188+962717408+963460436+964490146
1158+966363324+968915608+971887796+975248525+978462365+980406635+980796071
1148+980908982+981997686+983828896+985454075+986499019+987032282+987007863
1138+986738356+987331734+989717788+993443310+997226108+1000270583+1002367715
1128+1003290340+1002840266+1001662547+1001128687+1001667850+1002294234
1120+1002602796+1003751241+1006612012+1010468143+1014055140+1016720782
1111+1018159793+1018351338+1018015519+1018112896+1019085181+1020520906
1103+1021408955+1021632386+1022462711+1024469709+1026671388+1028805858
1094+1032468727+1038366430+1043999033+1045921498+1043746553+1040704692
1085+1040480439+1043868947+1047901911+1048430170+1044499364+1039613075
1077+1038246052+1042167300+1049259823+1055013626+1056463240+1055108539
1068+1055069931+1057701073+1059935535+1059067797+1056970590+1057071105
1060+1059059434+1060060020+1059862352+1060663852+1062472435+1063148852
1051+1062677123+1063666583+1067453638+1072044209+1073741823+1070303357
1043+1063404170+1057697041+1056730208+1060236555+1065092152+1068354307
1034+1069668235+1070791515+1072583147+1073167712+1070322399+1065121201
1025+1061098468+1060238198+1061112955+1060942320+1058661857+1055608272
1017+1053930970+1054647189+1056881875+1058792242+1058898805+1057290130
1008+1055377448+1053898635+1052523846+1051653046+1052066155+1052177871
1000+1048853958+1041996964+1035250938+1031891853+1032409210+1035022877
991+1037017031+1036821081+1035262887+1033678257+1031861534+1029028842
983+1025076827+1020392985+1015802116+1012267093+1009765888+1007355489
974+1004691489+1002274146+1000123023+997446627+993500512+988229865+982584492
964+977833965+973952967+969694556+964778919+960561206+958157155+957173296
954+956102439+953388033+948739887+943553773+939289612+936044183+933483312
944+931872471+931434047+931765236+932404913+933339038+934677310+936181214
934+937255730+937548611+937550925+938088968+939396922+941131351+942738309
924+943487610+942808803+940975129+939055577+937898319+937304121+936610827
914+935881837+935636451+935763774+935769002+935483738+934604650+932460920
904+929216164+926233670+924592287+924150353+924360716+925241597+927096479
894+929459608+930898694+930270443+927857131+925070290+923286051+922755999
884+922414803+921323037+920200878+920420426+921793796+922633679+921844501
874+919988349+918264897+917107789+916284782+915848001+916124079+916747775
864+916711781+915964421+915790202+916899965+918436652+919294308+919340309
854+918999636+918403645+917440023+915926560+913640124+911197166+910209797
844+911322846+913046448+913679777+913554172+914180556+915770263+916672426
834+915546608+913459706+912747594+914444312+917837226+921378223+923012362
824+921407197+918273634+917249823+919733255+923712676+926546638+927273163
814+926627811+926395942+928209155+931766207+934779094+935285847+933250098
804+929831197+926477264+924537101+924132207+923864418+922882052+922200184
794+923116461+925123982+926645734+927447009+928714937+931354666+935239398
784+939428584+942697984+944321221+944297175+942831953+940147567+936553550
774+932636484+929647045+928962638+930479760+932300814+932824444+932437397
764+932533431+933870135+936123116+937788620+937333692+935305561+933645882
754+933108064+933191776+933894405+935469923+936943434+936754877+935008872
744+933792770+934942411+938176787+941504434+943073232+942681107+941666556
734+941265619+941128962+939766494+936653840+933352330+932165874+933734896
724+936219747+936969272+934908956+931165213+927689633+925777473+925799652
714+927373752+929845012+932873431+936184649+939243238+940891641+939937801
704+936871596+934282796+934731973+937752402+939428211+936366934+929696556
694+923102049+918379301+914754442+911174614+907489492+903378118+898201787
684+892801427+889609915+889839545+891811669+893260910+893806270+893635561
674+891829292+886849882+877048480+862678461+851019786+852330578+862759933
664+871047648+874338778+875076057+873722700+869508422+864599955+862046327
654+861596925+861640685+862928402+866644515+870661946+871281460+867642114
644+861217495+853431902+846259924+842305296+842500499+845532428+849680468
634+853865174+857041825+857406768+853363499+845595828+837288772+832049414
624+831642876+834960741+839028354+841534861+841936470+840402770+837314012
614+834191501+833206447+834751647+836750580+837077288+836524535+836786275
604+836671349+833331978+826297926+818003714
##END=
