##TITLE=<SNM>
##JCAMP-DX=4.24
##DATA TYPE=INFRARED SPECTRUM
##DATE=2/5/2025
##SAMPLING PROCEDURE=Instrument type and / or accessory
##ORIGIN=Admin
##XUNITS=1/CM
##YUNITS=ABSORBANCE
##RESOLUTION=4
##FIRSTX=4497.3318
##LASTX=599.83466
##DELTAX=-1.4281778
##MAXY=1.6900896
##MINY=0.305655
##XFACTOR=1
##YFACTOR=1.5740186e-09
##NPOINTS=2730
##FIRSTY=0.31128627
##XYDATA=(X++(Y..Y))
4497+197765308+197336228+196408202+195068476+194187671+194294269+195072036
4487+195949679+196706392+197516801+198612714+199823765+200469941+200057712
4477+199027121+198418831+198875555+200165087+201424627+201764263+200906463
4467+199289602+197617927+196575615+196686360+197871698+199376546+200492643
4457+201065962+201275011+201298735+201057953+200146209+198528875+197238113
4447+197451895+199000822+200569023+201126039+200628380+199690679+199015363
4437+198911435+199140686+199229600+198873718+198167900+197627507+197744235
4427+198401715+199018601+199296683+199440808+199611686+199575901+199002658
4417+197898641+196676836+195902515+195977058+196883935+198179563+199335971
4407+200027986+200046333+199309520+198153340+197212476+196779079+196559446
4397+196264171+196103063+196390347+196939279+197151168+196708134+196016175
4387+195801351+196236623+196702700+196593640+196011972+195358184+194725186
4377+194256231+194504227+195686971+197079371+197770042+197581555+196896772
4367+196148788+195727603+195896721+196526330+197086320+197090599+196549884
4357+195926845+195725464+196188682+197188563+198256000+198928229+199094014
4347+198794991+198043750+197137346+196579421+196463091+196537482+196797293
4337+197297470+197622906+197245516+196276838+195386736+195126906+195638065
4327+196839024+198478511+199911732+200362908+199783493+198970054+198510396
4317+198255583+198119297+198488508+199355397+199858376+199301341+198059257
4307+196986140+196522032+196749921+197606112+198622030+199132280+199077996
4297+199022331+199329306+199878692+200439439+200885863+201203744+201495989
4287+201809667+201986396+201900417+201667946+201389429+200920568+200187959
4277+199566624+199527468+199930874+200088556+199625205+198950420+198759869
4267+199278184+200070966+200489973+200241258+199570221+199113838+199526181
4257+200821998+202227122+203049061+203295486+203227116+203058301+203157610
4247+203692227+204233302+204374208+204219366+203861326+203206686+202552160
4237+202445221+202853910+203145738+202963556+202683372+202894599+203665947
4227+204539993+205130882+205315488+204962939+204059981+202985879+202206938
4217+201942886+202379861+203613103+205143455+206137996+206367058+206240125
4207+206076196+205982094+206093710+206341498+206358993+206046469+205760738
4197+205707022+205633218+205318688+204990601+205098562+205831626+206926991
4187+207980436+208854728+209589685+210010756+209808637+209046831+208198933
4177+207610164+207244380+207018972+207095597+207664807+208590051+209433575
4167+209841184+209864946+209915443+210322598+210974057+211521947+211817619
4157+211883168+211668098+211211166+210899987+211191077+212066505+212950511
4147+213207046+212720426+211943511+211364569+211066435+210914756+210991684
4137+211563110+212666862+213935320+214860525+215234943+215345404+215626213
4127+216105941+216431699+216465761+216475417+216636961+216757286+216658641
4117+216493007+216478125+216545132+216477632+216345644+216574195+217421980
4107+218490080+219057699+219059498+219332468+220512278+222059765+222922886
4097+222900923+222633387+222411690+221889057+220908148+219797125+218919444
4087+218585014+219175809+220732290+222511301+223432625+223144829+222436853
4077+222343830+222983475+223685563+224162868+224812168+225757292+226461425
4067+226600192+226581390+226860703+227332801+227628265+227575534+227196988
4057+226566489+225920900+225742296+226353275+227376255+228024457+228114469
4047+228272756+228948394+229811894+230332822+230404071+230186937+229830241
4037+229509027+229354602+229243119+229015136+228984747+229719288+231074747
4027+232036855+231978652+231534841+231637955+232280515+232820018+232887593
4017+232469779+231666962+230892793+230841444+231744989+232939567+233615810
4007+233758269+233890106+234289876+234949818+235839825+236787884+237466399
3997+237670261+237319491+236425053+235465899+235286785+236064930+236969346
3987+237293627+237242733+237286092+237476264+237724412+238154609+238848234
3977+239530934+239784175+239475703+238797680+237978448+237242184+236930513
3967+237317086+238416389+240068581+241845130+242972171+243032798+242600404
3957+242461618+242592811+242606198+242838517+244144275+246428102+248119505
3947+248063916+247395738+247960820+249490055+249900145+248232143+245707572
3937+244097205+244537362+247224272+251045400+253773454+253792237+251969375
3927+250813441+251679894+253427740+254226391+254216735+254963223+256862843
3917+258284117+257294839+253906541+249986199+247341170+246713341+248494757
3907+253453566+261723215+271066625+277507675+278971096+276351647+270839361
3897+263779949+258194673+257186291+260679086+264239342+263775689+261814325
3887+263144602+267448355+270384588+270891449+271527476+271694644+269029753
3878+265783137+266042153+270042566+275317306+280292266+283361945+282333436
3868+279186261+278461888+280190951+279817101+275170057+269750889+268009367
3858+272283337+283519683+299745645+309925574+302937826+287131402+274245704
3848+268246211+269067110+274805864+282677371+290568209+297728047+302923531
3838+303414449+298684210+292324935+287441956+284087038+281435780+279981561
3828+280372376+282281595+286346705+294361958+304262423+308513388+305224474
3818+300806663+297366599+291483588+283396973+277830991+277995015+283721197
3808+291498470+297057995+301097658+306874602+312141295+311164287+305514674
3798+300885125+297685711+293785970+289759466+287459451+287049702+287942266
3788+290330229+294094536+297774398+300591706+303879939+308270504+311525602
3778+311700097+310415223+310680639+314308054+321274671+329066656+334113830
3768+335771304+336041718+336329097+337944500+342840657+351064183+359158277
3758+363873010+367038873+373416002+386149358+403688973+417697375+421901120
3748+422090042+425090233+429347333+428508712+423783832+422511549+428724445
3738+442240529+458679364+470684787+474141853+471821427+469188743+470224352
3728+476591825+487267482+498851209+508421390+515504375+520849001+525661773
3718+531636898+540504556+554022002+573106056+594417646+610045276+616834748
3708+619466107+623053515+630225300+640289846+648929691+652863854+654310026
3698+656745835+660550263+664327578+667848148+672863210+680119896+685459636
3688+683612974+676682255+670469510+667900785+668861946+672511797+680296965
3678+694986497+713291041+723400915+722685895+721181028+721400358+716925064
3668+707070420+698923386+695991054+695887221+695645018+696379275+701622756
3658+711679614+721499193+726788570+730295281+737256824+748235310+756216330
3648+753732808+743671632+733582434+727368553+725146773+725573543+727453150
3638+730407597+734408634+739055848+744279486+751048510+758476433+760481079
3628+753583381+745407114+743181850+747381996+755967918+765914202+772111649
3618+772439736+771696769+773402335+775392743+774727482+772619456+771495539
3608+769473474+763718778+757026323+755028720+759459936+765964339+768111369
3598+764634421+760260537+758623512+759103827+761149977+766393457+774136214
3588+778109305+773283658+763444842+754962754+749847873+747329360+747129418
3578+749479192+753286573+756077810+756663852+757404850+761881128+770092234
3568+777254098+778422093+773869321+767417100+762030176+759105115+758395850
3558+758349424+758240138+758613363+759152071+758833148+758015733+757728392
3548+758066855+759014232+761040084+763509747+764187505+762028586+758790357
3538+756802297+756925519+758516043+760127924+760499635+759786281+759391850
3528+760229183+761698605+762354779+761354690+759345954+758073898+758729617
3518+760283031+760760090+760476687+761956561+766357256+771625577+774718318
3508+775062460+774531781+774534810+774792917+774553214+773386734+771225390
3498+769375017+770047550+773173538+775300119+774255346+772268422+771227208
3488+769116683+764738028+761712617+763455748+768071910+771494100+772415576
3478+771266666+768519508+765849372+765029231+765238716+764725986+764116617
3468+765212890+768015790+771217665+774215736+776554755+776670706+773459894
3458+768818815+766285155+766809624+767799413+767338108+767177170+769651831
3448+773983455+777456767+778433453+776528778+772425043+768117352+765622620
3438+765413893+766580676+767925210+768397195+768139769+768886371+771852406
3428+775912063+778549177+778266835+775700836+772515850+769520278+766184275
3418+762123785+758706442+758130700+760867331+764761354+767049858+766777513
3408+764763778+762358414+760823783+761072348+762924387+764781197+765208952
3398+764737649+765206301+767899233+772607717+777593697+780851465+781998557
3388+782331793+782987361+783979271+784938159+785508297+785512993+784647335
3378+782057479+777718055+773609700+772154970+773353637+774349561+772821746
3368+770027859+769086540+771106485+774119400+775652668+775319583+774198241
3358+773046454+772479800+773699219+776937447+779576152+778426637+773929607
3348+769534744+768004884+769755513+773493597+777431168+779912494+779704449
3338+776785446+772992454+770620641+769984311+769623961+769086465+769395466
3328+770820508+772620516+774682343+777339528+780087368+782109206+783436398
3318+784331820+784192239+782428053+780168329+779761175+782026579+784675432
3308+784830842+782782799+781163420+781322540+782593687+783827042+784043949
3298+782583008+780099410+778059319+777059988+777372094+780132506+785279727
3288+789610593+790155587+787877005+785214897+782512499+779659083+778276529
3278+779293962+780739906+780426361+779246097+779988684+784065155+789658155
3268+792562541+790237230+784951337+781076172+780379859+781475526+782453576
3258+783018261+784799109+788854903+793118668+794113834+791717483+789553867
3248+790126807+792256190+793279152+792238165+790526919+790193985+792017169
3238+794670567+795858859+794207064+790071369+785340316+782616256+783219036
3228+785524808+786586167+785646742+784529263+784657635+785573581+786462112
3218+787392827+788897770+791242318+793693198+794673747+793596635+792241195
3208+793368595+797805189+802932339+804652447+801712011+796905071+793405403
3198+791769816+791390987+792294437+794259474+796197473+797126370+796572818
3188+794705859+792921755+792700531+794109290+796342582+797905160+796419984
3178+791486489+786766115+786277468+789917020+794167076+796052439+795518275
3168+794434650+793724704+792204842+788549992+783543715+779727018+779331375
3158+782545974+787372833+791461269+793913286+794730928+793916543+792472037
3148+792333516+794278635+797015720+798434324+797372662+794448131+791430596
3138+789560759+788454110+787290205+786488468+786851620+787803314+787987579
3128+787249308+786885625+788080582+790652110+793131240+794085887+793660783
3118+793251054+793548467+793839217+793149492+791143331+788196609+785113942
3108+782407605+780339492+779600464+780647887+782339367+782411316+780100697
3098+777149280+775311555+774597974+774659320+775960609+778564552+780928109
3088+781395095+780559580+780453777+781780589+783258646+783185107+781059359
3078+778436786+777961999+780592676+784348179+786372668+785606223+782943889
3068+780029809+778346054+778212987+778688607+778982006+779084022+778795545
3058+777688745+776312704+775598063+775575721+775828148+775969243+775202344
3048+772792588+769559964+767850156+769068515+771564989+772166557+770190614
3038+768368188+769084571+771473879+773180884+773583041+773671500+773757763
3028+772943832+770803543+768444302+767395894+767984284+768818891+767953157
3018+765127385+762243826+760983434+761059094+761336438+761210262+760503421
3008+759707289+759863531+761103778+762145824+761742229+759728495+757020188
2998+755504946+756488751+758674027+759342016+757981576+756928170+757697265
2988+758656987+757412726+754228497+751405830+750115219+749839390+750091741
2978+750720347+751038664+750183912+747950089+744848261+742152375+741451215
2968+743060067+745406735+746617369+746215592+745214670+744790777+744861742
2958+744565994+743871347+743707606+744228365+744274639+742991375+740862446
2948+739117649+738553570+738659448+738077495+736200767+733631663+731062180
2938+728663784+726602109+725567257+726349606+728833962+731554461+732522741
2928+730779156+727220414+724096547+723568594+726073550+729938945+732780091
2918+732998210+730124497+724788240+718771802+714346645+712715905+713344359
2908+714909966+716379086+717103497+716700432+715391418+713849137+712346542
2898+710645671+708689344+706857224+705555631+704726705+703844839+702402303
2888+700421589+698493132+697290375+697159125+697993050+699206486+700030717
2878+699941349+698640438+696299677+694118794+693438763+693918397+693879848
2868+692590979+690843379+689324880+687844324+686161175+684532935+683473318
2858+683383268+684161452+685012644+685097923+684467424+683838818+683534133
2848+683144701+682059182+679960245+677123718+674552948+673167213+672570795
2838+671545410+669882332+668553247+668042865+667734772+666959315+665778445
2828+664624916+663620586+662479477+661138653+659972855+659025326+657749938
2818+655857229+653696340+651639512+649887368+648645758+647698230+646409966
2808+644793087+643662959+643304578+643083355+642534271+641662024+640228576
2798+637897736+635147662+633234012+632866088+633290700+633150059+632074461
2788+630860533+630222612+630136917+630279300+630272370+629535652+627707128
2778+625336376+623547841+622863418+622656319+621769228+619566949+616538433
2768+613878332+612374336+611823625+611545523+611120344+610417593+609289094
2758+607689141+606011370+604829098+604040047+602676919+600176242+597498571
2748+596194669+596585730+597379022+596950472+594888646+592357636+590824823
2738+590471403+590188151+589077526+587422362+586039429+585234511+584710761
2728+584184399+583655196+583111831+582379089+581298947+579802335+578017966
2718+576524876+575977042+576132187+575783878+574140718+571826995+569975069
2708+568730240+567311523+565398554+563627552+562527985+561817547+561074731
2698+560323093+559601787+558689476+557583660+556617538+555851699+554952755
2688+553885337+553044899+552394595+551260113+549439467+547700311+546668830
2678+546025721+545228035+544286187+543456276+542766362+542128933+541585985
2668+541262934+541108017+540734186+539670971+537826998+535624265+533727088
2658+532626081+532274251+532170720+531959910+531777047+531834341+531911970
2648+531447029+530030507+527814824+525469329+523626151+522378028+521421411
2638+520568401+519956381+519815702+520102021+520345245+519980844+518922324
2628+517599374+516359431+515111383+513654343+512128384+511024083+510789340
2618+511331986+511898451+511709263+510790741+509871992+509420494+509136675
2608+508498072+507440954+506290720+505257042+504253166+503162914+502125260
2598+501456249+501256193+501185987+500782808+499950814+498935654+497952151
2588+497151550+496718039+496557328+496147030+495150614+493918130+493010022
2578+492504070+492019893+491202894+490078485+489047345+488529805+488554457
2568+488724067+488592287+488026391+487227569+486500734+486073055+485984141
2558+485936807+485438391+484375744+483209567+482391281+481965192+481824211
2548+481884004+481999652+482068837+482076221+481892562+481332459+480460288
2538+479572515+478940917+478665012+478592836+478428301+478056060+477615809
2528+477272158+477089598+476951759+476524648+475628544+474561012+473689901
2518+473021420+472469232+472141107+472130012+472354833+472639751+472734572
2508+472416633+471728500+470955617+470382034+470187014+470380557+470670321
2498+470608597+470030355+469195938+468438544+467793541+467047204+466122813
2488+465313578+465006811+465206109+465496820+465506287+465225611+464892261
2478+464766085+464955121+465218378+465090802+464473821+463859265+463680718
2468+463796783+463888120+463916596+463905539+463697607+463174274+462442137
2458+461744612+461344804+461356619+461603214+461808192+461862570+461749232
2448+461444358+461070035+460867783+460895767+460979720+460951471+460740433
2438+460329871+459792299+459296685+458995409+458923043+458964547+458918537
2428+458702198+458507065+458580718+458787060+458625251+457892281+457058773
2418+456677028+456705012+456740494+456606366+456399305+456290208+456487234
2408+457064415+457767393+458245020+458357601+458087490+457441995+456626815
2398+456031154+455885022+456090379+456377796+456496890+456352387+456078527
2388+455892331+455795389+455501156+454679841+453201292+451180022+448897501
2378+446617632+444354273+441860336+438947582+435817352+433025055+431013025
2368+429633159+428412642+427374571+426985858+427200304+427623590+428691463
2358+431274123+435144176+439277940+443451920+448134503+453080267+457216758
2348+459583799+459935212+458994386+457987784+457281587+456122908+453906012
2338+450787371+447240141+443803523+441210373+440091833+440287345+440796099
2328+440734109+440118114+439552179+439526240+440162911+441326021+442740498
2318+444047240+444919525+445326112+445674572+446455330+447726099+449159623
2308+450521652+451795185+452893616+453622988+453988754+454283138+454795603
2298+455575415+456460196+457198619+457592823+457681168+457780647+458222451
2288+459027862+459916809+460622740+461109834+461492261+461836366+462095041
2278+462231630+462347506+462577212+462862205+463005118+462981602+462977853
2268+463085246+463228841+463438743+463886984+464578261+465261737+465727700
2258+466018147+466302610+466652735+466971545+467149788+467289104+467653317
2248+468307597+468958469+469285344+469290532+469225437+469334118+469744794
2238+470424786+471151546+471679726+472003193+472324539+472757065+473228860
2228+473682820+474150979+474594904+474895726+475040457+475123841+475170305
2218+475148039+475125356+475234075+475523233+475948224+476430849+476878598
2208+477248756+477645838+478255926+479091669+479859401+480240010+480301735
2198+480435333+480865814+481455605+482015443+482577288+483278713+484121462
2188+484940467+485575851+485989594+486189877+486189499+486134212+486293824
2178+486759750+487279637+487551528+487621016+487825653+488341943+488936165
2168+489252437+489248461+489230019+489521904+490181865+490954141+491468764
2158+491565668+491440591+491427754+491698054+492209307+492847153+493500827
2148+494073351+494568662+495085936+495578028+495793042+495662473+495535654
2138+495820041+496576110+497530076+498273270+498511004+498335979+498134144
2128+498107106+498152093+498264447+498658196+499336257+499906282+500034275
2118+499824979+499602014+499566494+499773290+500161586+500513189+500616303
2108+500511599+500408674+500423897+500533865+500657428+500677876+500504063
2098+500192487+499963462+500037948+500405152+500791972+500956091+500941550
2088+500945299+501041369+501141568+501117256+500889444+500510690+500213541
2078+500251788+500584684+500848395+500802954+500626187+500571165+500624899
2068+500703134+500780915+500687873+500237663+499609209+499180469+499065010
2058+499097425+499103219+499010367+498851057+498718671+498634680+498507899
2048+498269521+497968472+497742060+497717030+497869372+497978393+497785684
2038+497220885+496461409+495750024+495175115+494701464+494335320+494104099
2028+493974061+493899196+493803202+493562476+493272257+493322318+493841486
2018+494316045+494131781+493269568+492138835+490994432+489879149+488950403
2008+488470618+488428774+488453275+488232619+487853486+487617721+487640593
1998+487751243+487838339+488133216+488827371+489491724+489334080+488068083
1988+486151366+484334619+483239520+483012313+483207332+483256788+483020038
1978+482704524+482450052+482147753+481593406+480874069+480523830+480944996
1968+481698186+481824173+480979910+479770866+478872831+478386949+478136794
1958+478079917+478193028+478282093+478147852+477820295+477559461+477663371
1948+478295915+479519007+481212191+482582248+482305132+480095886+477400265
1938+475619569+474726267+474042185+473351514+472840185+472599081+472551670
1928+472762821+473661879+475442688+477228270+477930415+477955142+478336433
1918+478529294+477174838+474717141+472993474+472844048+473555811+473903778
1908+473212691+471784544+470470682+469784593+469557310+469413867+469349757
1898+469651109+470229161+470524720+470608294+471530224+473502758+474766862
1888+473795741+471544992+469770279+468856264+468375986+468193766+468300894
1878+468488340+468576345+468711381+469690643+472858059+478627258+484499723
1868+486030605+481998592+476011652+471729181+470002863+469901340+470271497
1858+470391690+470152441+469864267+469780238+470097040+471200244+473497419
1848+477337897+482718194+487723978+488406318+483800721+478153418+475189731
1838+474873573+475244943+475467189+476994625+481435876+487416643+490934336
1828+490578265+488980925+487544485+485025139+481371879+478639489+477996380
1818+478594957+479287143+480261974+482458231+485687258+488138934+488356219
1808+487071024+486218770+487208862+490457656+495138875+499037859+500138411
1798+499119123+499060315+502502423+508843010+513394570+511512767+505290706
1788+500444421+499443272+501102867+503704158+506637702+509157389+510215113
1778+510608181+513082009+519596296+528860733+535678946+535572765+530569896
1768+525114280+521436331+520862558+524014145+528756180+531512843+532145728
1758+532976661+534195853+535367673+538544669+545804838+555205902+561495670
1748+562251966+560152234+558637521+559311530+562129539+565664803+568147909
1738+570535134+576536388+587080416+595349762+594025865+587381200+581883172
1728+578991093+578849808+581636804+586553485+593333074+603976277+620151590
1718+637932120+647384305+645130110+638857609+635152017+635950800+641540620
1708+651461230+663258191+673192206+681298569+692217754+708016888+722618490
1698+729516946+729985749+725809990+719508255+716885151+721183376+730914798
1688+743659893+759736220+778115364+789255015+786583819+779256169+776366855
1678+780196579+789067342+798290200+804243172+809192495+816015594+821605413
1668+821649037+819892501+822722741+830091061+835819401+836000182+834759102
1658+838129337+849230136+868306957+887730041+890511886+881368323+879260904
1648+886145651+890778324+883462035+870719288+862480918+861414257+866965754
1638+877585859+887730041+887191939+874993125+862572406+856621403+856202585
1628+857781370+858924448+858872948+856089361+849566402+842937187+840973816
1618+843013225+842120226+833678051+823017504+816157901+813307742+811349446
1608+807848793+803319500+799540822+796933396+794543255+791760804+789242594
1598+788002423+787916615+787713113+786646149+785328879+784505936+784113323
1588+783869454+783842795+784171033+784805698+785920299+788508716+793953653
1578+801967240+808221034+807790326+804433495+805669501+812443371+818829021
1568+819628335+817535305+817346193+821298684+831927422+852383616+877417953
1558+885262650+872139634+857888612+849987189+847214508+847551228+849324427
1548+852618548+859741787+872191134+888503226+905581989+917585026+915033190
1538+901284219+891184873+889955456+892925656+893377344+891458127+892558414
1528+898668386+907295583+915993290+924543616+931233571+932650433+930142978
1518+927713001+925056195+920845596+917708930+919634660+928256479+942626179
1508+957614260+960538868+946044204+929498922+921836370+922880461+928845475
1498+934442414+934890542+931041960+929063291+933007981+941008996+946169774
1488+942977062+933919838+925140791+920124972+919013173+920373158+923316244
1478+928056765+934640387+942047710+947596481+946786640+938515401+929211809
1468+925661928+929054809+934817003+936998492+936266886+938588561+947106623
1458+957666367+959628374+950413317+939592816+933041532+930881173+931236752
1448+931445177+929832917+927332808+925669047+925202743+926062948+929457041
1438+935579585+940841469+941371316+939383634+938643697+938653694+937279244
1428+935509756+936164642+939331528+942804158+946194009+950839178+954756452
1418+952688642+944919530+937646940+934470664+934608275+935563377+935888510
1408+936306874+937851048+939545254+939744060+939174528+939784881+941915855
1398+944765484+947726141+949385811+947691227+943406711+940174844+939928930
1388+940571699+938625369+934398336+931793485+933003210+936668512+940489904
1378+943999190+948040065+951945373+953044524+950570241+947653207+947044444
1368+948104516+949311893+950809566+952550273+952502484+949227675+944327656
1358+940283297+937994945+936871104+935853142+934342292+932589391+931234101
1348+930550663+930221062+929874192+929739535+930309824+931179875+930792108
1338+927988300+923442950+918845418+915377711+913495302+913159036+913510904
1328+913109126+911381066+909271526+908021282+907979476+908627773+909052347
1318+908481603+906986203+905454223+904575690+904306222+904390213+904687476
1308+904836523+904332654+903118233+901556867+899875309+898191630+896813999
1298+895782859+894411211+892075827+889199160+886660199+884514306+882098188
1288+879367843+877307303+876522000+876064633+874488953+871741265+869081581
1278+867389419+866484909+865893717+865497392+865448770+865878494+866713630
1268+867687591+868539919+869221692+870020475+871411284+873494393+875668460
1258+877161512+877797010+878032775+878378508+878979319+879786585+880904821
1248+882501707+884486132+886606578+888713847+890631927+892167164+893577740
1238+895488777+898010471+900463472+902180172+903188289+904147708+905914241
1228+908820369+912044359+914204869+914980554+915500706+916751783+918418951
1218+919849219+921433229+924097230+927644460+930556419+931746301+931802725
1208+932133159+933662186+936570964+940320635+943735328+945968317+947406385
1198+948870203+950422708+951854187+953613980+956229662+959239320+961448452
1188+962180362+962067970+962663555+965028097+968420826+970919572+971859678
1178+972674669+974592144+976930557+978463068+979077056+979346751+979759056
1168+980703479+981994999+982776136+982937302+983437914+984452847+984964290
1158+984805169+985481186+988222588+992189545+995272970+996568730+997391598
1148+999483416+1002855621+1005904283+1007125671+1006450337+1005284538
1140+1005111028+1006021597+1007129080+1008189757+1009633581+1011362171
1131+1012815841+1013928019+1015115099+1016375794+1017233424+1017781069
1123+1019173847+1022261740+1026436515+1030409076+1033223564+1034448588
1114+1034516144+1034535381+1034940415+1034877478+1033487730+1031664622
1105+1031367738+1032852232+1034105051+1033794610+1033225684+1034121031
1097+1036091899+1037743618+1038829136+1040185562+1042600771+1045828926
1088+1048166052+1048157570+1046622560+1045199487+1043991201+1042387651
1080+1040781071+1040263191+1041770633+1045527498+1049887750+1051556509
1071+1049218247+1045897619+1045602704+1049042086+1053896134+1058325230
1063+1062511365+1066743396+1070079854+1071517695+1071371449+1071047755
1054+1071519512+1072141529+1071474525+1069074312+1065852594+1063386717
1045+1063412240+1066558071+1071024656+1073741823+1073194860+1070715654
1037+1068435936+1066747410+1065414615+1064945281+1064958005+1063499261
1028+1059783671+1056552410+1056909276+1060061999+1062533101+1062614593
1020+1061470000+1060599192+1060759751+1062051877+1063227900+1062673515
1011+1060951817+1059941125+1059841760+1059840851+1060226042+1061013314
1003+1060324499+1057241453+1053959828+1052826065+1053503293+1054540947
994+1055756656+1057368991+1058100219+1056036877+1051474260+1047149377
985+1045022872+1044516352+1044451447+1044837017+1045611565+1045319983
977+1042475428+1037525120+1032728404+1030180279+1030076900+1030811914
968+1030148394+1026225667+1019036235+1011255687+1005856569+1003076920
960+1000880436+997728470+993683430+989632558+986625551+985163929+984454665
950+983065749+980547388+977725403+975432279+973585769+971620959+969207492
940+966489037+964220074+963381150+964225754+965911705+967003509+966129823
930+962963317+959035288+956663627+956627198+957574424+957795041+956779502
920+955080601+953519917+952384488+951183700+949670653+948746678+949409365
910+950994436+951646671+950695811+949375814+949010314+949584390+950284718
900+950569256+950156649+948969341+947648890+947104503+947274832+947136085
890+946106610+944547289+942714260+940506945+938561524+937996309+938598710
880+938873100+938238966+937264854+935760972+933135672+930421079+929305418
870+929433790+928963471+927607501+927105222+928558740+930856862+931976462
860+931235086+930023846+930265594+932234190+934108117+933877048+931382468
850+928209902+926262512+926416407+927997236+929685005+930953955+932049471
840+932990562+933558579+933742163+933418771+932029098+929556027+927502683
830+927647413+929973255+932874687+935239532+937107248+938363021+938361733
820+937039692+935269523+934156134+934537917+936523251+939048504+940821475
810+941863370+943059538+944162325+943671331+941333675+939148778+938807892
800+939482999+939310170+938161640+937561889+938322426+939457476+939533969
790+938572960+938026376+938839398+940205896+940647510+939826536+938676339
780+938024861+937645653+936781661+935150088+933057437+930866632+929152280
770+929037314+931322939+935172960+938351736+939365609+938888550+938218366
760+937229485+935149558+932388312+930260899+929952200+932311062+937098463
750+941822624+943238047+941131234+938575080+938144750+939914238+942546505
740+944624388+945427943+945156128+943933982+941742041+939703996+939704829
730+941884803+943539854+942058919+938582351+936914349+939196491+943263116
720+944706637+942129202+938337801+935854202+934407727+933052438+931723732
710+930203188+928488306+927746173+928323884+927928317+924748405+920897248
700+919850127+922491407+926533494+928762469+927762153+924330117+920318855
690+917229220+914840670+911789887+907657751+903576207+900489450+898295388
680+896601107+894276023+889389333+882278514+876507762+873873828+871670603
670+867300430+863854610+867150777+875023117+881173683+883353127+881333409
660+875937624+870017522+866116304+864632794+865197782+867354960+869484494
650+869537585+867217121+863573707+860482709+860663111+864644079+868322710
640+866144023+857259552+846664137+840820224+842281013+847108024+848598349
630+844166149+836846149+830660441+827769688+828884365+833347996+838971745
620+842201945+839812032+831836312+821333977+812315529+808975664+813516999
610+822576647+828015298+825652044+820977413+821854356+828741755+833866255
600+830413543
##END=
