##TITLE=<SNM>
##JCAMP-DX=4.24
##DATA TYPE=INFRARED SPECTRUM
##DATE=3/5/2025
##SAMPLING PROCEDURE=Instrument type and / or accessory
##ORIGIN=Admin
##XUNITS=1/CM
##YUNITS=ABSORBANCE
##RESOLUTION=4
##FIRSTX=4497.3318
##LASTX=599.83466
##DELTAX=-1.4281778
##MAXY=1.7144648
##MINY=0.17465459
##XFACTOR=1
##YFACTOR=1.5967198e-09
##NPOINTS=2730
##FIRSTY=0.20022975
##XYDATA=(X++(Y..Y))
4497+125400684+125863027+126621767+126967895+126951890+126955352+126822618
4487+126222650+125466999+125300137+125959123+126832342+127163519+126869998
4477+126395989+126000754+125710229+125777412+126449426+127325930+127598305
4467+126983928+126038112+125486560+125492038+125649811+125574732+125312493
4457+125169745+125352594+125802283+126192096+126180103+125844456+125628402
4447+125663548+125509424+124803665+123851045+123261184+123194747+123242968
4437+123005571+122478806+121816722+121125371+120622077+120577245+120902477
4427+121110132+120814548+120083656+119267196+118559897+117833681+117015037
4417+116431363+116425241+116750212+116755215+116173174+115436786+115190178
4407+115671159+116617730+117597357+118246339+118359895+118012330+117428488
4397+116593961+115389284+114168817+113593925+113828242+114430151+114931728
4387+115071013+114704541+113905224+112925075+111865049+110695313+109676490
4377+109383370+110138740+111567861+112792089+113131936+112693987+112246696
4367+112476375+113346403+114100420+113866430+112453212+110678235+109731131
4357+110083521+111191850+112331434+113316549+114154268+114554505+114296605
4347+113744027+113486304+113595427+113634670+113380242+113143508+113252939
4337+113546274+113587719+113203039+112624367+112213557+112154297+112382137
4327+112739725+113099543+113367009+113526536+113701051+114035271+114491511
4317+114852337+114941695+114815839+114714601+114760031+114756718+114457513
4307+113983579+113745744+113940389+114379961+114864973+115400529+115881659
4297+115889349+115151038+114060104+113450281+113869715+115140017+116555838
4287+117500898+117871262+117784928+117124235+115803529+114339347+113607214
4277+113946725+114823528+115496345+115883423+116506339+117527719+118294438
4267+118232592+117762456+117690009+118011658+118061428+117684354+117415787
4257+117464017+117421657+117189580+117348370+118314474+119752199+120957510
4247+121400265+120982932+120160658+119620361+119601435+119793597+119877999
4237+119761438+119425837+118956130+118561530+118342257+118241981+118249839
4227+118447433+118895582+119486936+119850413+119650943+119116955+118844002
4217+118930270+118941824+118856507+119258750+120319578+121306625+121465881
4207+120908805+120369842+120445089+121209885+122223043+122818243+122737480
4197+122480458+122670791+123248147+123678331+123715726+123530712+123297861
4187+123091130+123059829+123354013+123851969+124163717+123992104+123466030
4177+123110205+123389868+124157520+124694355+124529891+123987401+123618763
4167+123527297+123599305+123857130+124192992+124293446+124143092+124119117
4157+124405994+124687075+124543758+123983640+123479730+123515323+124153227
4147+125034678+125660226+125735379+125421000+125107162+124896923+124663175
4137+124577075+124963771+125655233+126142261+126295321+126366107+126481483
4127+126607927+126728081+126713354+126380040+125921793+125867217+126367787
4117+126943201+127152881+127111174+127144033+127274360+127286427+127144472
4107+127087769+127227483+127336653+127318838+127535489+128224441+128973110
4097+129244822+129068235+128797606+128566630+128288293+127883250+127414075
4087+127193738+127583252+128465215+129216928+129410574+129198366+128902380
4077+128672403+128637463+128892535+129217525+129242685+128930350+128537056
4067+128206308+127958422+127852275+127826229+127679673+127465850+127535517
4057+127967633+128339331+128324931+128202855+128441661+128969751+129210694
4047+128858322+128287574+128036282+128144528+128290560+128390398+128658115
4037+129118443+129472886+129575374+129731980+130313601+131205420+131845536
4027+131859516+131526406+131419989+131638357+131748181+131554385+131445877
4017+131766733+132239604+132283419+131674268+130742759+130100786+130207968
4007+130992857+131850482+132185038+131993622+131767732+131826656+131977477
3997+131923125+131759305+131834981+132227425+132616370+132709973+132627830
3987+132720192+133058938+133310333+133160866+132683675+132207491+132022748
3977+132256794+132804137+133342997+133639196+133823529+134153167+134598852
3967+134947490+135164738+135378692+135649732+135919885+136007544+135656264
3957+134887642+134193100+134067188+134516933+135165186+135580327+135497288
3947+135019256+134525098+134232846+134111432+134179260+134479193+134838451
3937+135054896+135207807+135549026+136165858+136835165+137175404+137010539
3927+136606662+136459444+136808512+137383292+137776809+138017976+138430354
3917+138920854+138907639+138234916+137548913+137407500+137563080+137514962
3907+137440677+138039683+139520206+141137886+141984789+141836264+141029547
3897+140122180+139668115+139855872+140279412+140273355+139807055+139665352
3887+140247178+140937754+141125736+141219423+141708075+142170680+142170568
3878+142130271+142465050+143043190+143828265+144929978+145868356+145989780
3868+145675092+145720168+146071428+146193365+145954429+145555778+145118203
3858+144852538+145230527+146606014+148322095+148971953+148383296+147290374
3848+146340816+146094283+146837876+148149829+149254612+149963031+150587497
3838+151066284+151112255+150966857+151023346+151195369+151217897+151177311
3828+151333871+151835140+152903443+154664972+156362547+156651663+155743410
3818+155128025+155137628+155051210+154797491+155044612+156190421+157899138
3808+159097917+159129572+159005975+159919911+161359129+162023649+162191538
3798+162917073+164155103+165374805+166587321+167958711+169358024+170750057
3788+172474434+174865329+177779861+180735979+183526541+186374665+189505242
3778+192992950+196984101+201627546+206836085+212297922+217688517+223060577
3768+229011505+236066600+244134666+252904134+262433555+272937292+284158259
3758+295344117+306200170+317383807+329811671+343661339+357667753+370226905
3748+381704064+393751579+406670176+418214789+427007998+434793238+443398494
3738+453516077+465211464+477365405+487578551+494126880+497130369+498113440
3728+499095465+501239183+503848286+505486339+506035157+506561838+507920144
3718+510139976+512718133+515353927+518270588+521795196+526033841+530870354
3708+535910761+540824509+545850208+551573258+558210954+564960713+570167161
3698+572870335+574132667+576104856+580001974+585399848+590504050+593341722
3688+594006410+594077970+594195483+594099621+593493727+592356486+591571150
3678+591956053+591578093+588033551+584432418+584974852+588545860+590616337
3668+589916149+589496118+591345307+594513866+596952785+598032427+598575831
3658+599053200+599960529+603030203+609092914+615854320+619708024+620008862
3648+619910200+621051398+622236458+623017577+624395444+626835034+629329760
3638+630688253+630884456+630909691+631874806+634032970+636454829+638212374
3628+640386888+644739574+650380500+654986728+657237842+657602401+657824810
3618+659375923+662074916+664980265+668055838+671913387+676319081+679850669
3608+681645394+682821047+684881259+687576593+689445230+690064451+690655002
3598+692013570+693426190+694158594+694414599+694114395+692607854+690325383
3588+689056481+689654200+690991788+692152584+693582675+695872089+698619685
3578+700700054+701523915+701592377+701980155+703780330+706966621+709787830
3568+710168068+707751958+704379169+702223394+701996431+702715172+702605946
3558+701048263+699383818+699313191+701150695+703738297+705276046+704570818
3548+702296559+700527592+700445020+701324874+702332172+703562401+704593216
3538+704253368+702430348+700085014+697529292+694702857+692593893+692585681
3528+694856131+698845229+703830650+707863199+708485929+705691224+701950142
3518+699148419+697551242+696692739+695999756+695235324+694874572+695978329
3508+698941091+701989562+702136192+698525092+694162998+693121059+696461073
3498+701329951+703491773+701066107+695851259+691068015+688889693+689851150
3488+693036769+696830634+700555216+704529158+707747627+707761887+704286666
3478+700314143+698592285+699270337+700909323+701963805+701428874+699656771
3468+698500231+699354701+701089550+701301805+699611752+697907141+697281499
3458+696748360+695345670+693767530+693067977+692984359+692404782+690968196
3448+689807325+690503594+693220206+696224404+697533473+696965394+695732626
3438+694165462+691577786+688373950+686226835+685922377+686829183+688501243
3428+690994551+693734606+695636167+696116522+695286913+694137689+694628048
3418+697688166+700954118+700550662+695730536+689772012+686334344+686912652
3408+690664932+694690463+695569348+692463165+688301381+686432670+686839411
3398+687163954+686627604+686905335+689195496+692528716+695332754+696967185
3388+697232598+695936968+693569311+691213227+689589620+688652203+687867240
3378+686916161+685959557+685245967+684908210+684862893+684577248+683365086
3368+681241863+679281620+679030990+681331528+685400586+689382591+691937716
3358+692934263+692606286+691507681+691126324+692405529+694299923+694922578
3348+693357952+690199434+687536576+687896954+691771152+696381188+697947083
3338+695553669+691759505+689091944+687542250+686259163+685803818+686911532
3328+688763669+690257668+691424810+692210146+691570992+689056630+685873400
3318+683833421+684033134+686222655+688852364+690137392+689440676+687687984
3308+686604908+687334325+689433732+691445042+692592698+693213636+693309200
3298+691900760+688597030+684844974+682839413+683328429+685182955+686935945
3288+687998714+688464212+688474665+688072029+687526572+687475953+688298320
3278+689330181+689404839+688545591+688404784+690511806+694534800+698318436
3268+699492970+697686598+694895178+692892528+691224201+688800327+686231464
3258+684912541+684913735+685214013+685032891+684143330+682712344+681301067
3248+680687222+681430078+683212185+684780544+685260526+685256419+685748496
3238+686626484+687241748+687452659+687191353+686115220+684629285+684147735
3228+685239173+686327401+685449786+682445737+678764010+676034108+675236751
3218+676399414+678479261+679760706+678989255+676646087+674993737+675952730
3208+678568777+679755106+678304783+676353648+676015070+676704843+676483405
3198+674598717+672034185+670248270+669932164+670661656+671393612+671511274
3188+671347024+671446097+671797217+672048295+671899649+670921096+668632353
3178+665449123+662742366+661445317+661394475+661999809+662556465+662005035
3168+659410341+654992999+650477482+648204866+649465182+653267036+656845659
3158+657966662+656785932+655033987+653847732+653176026+652775407+652537096
3148+652087426+651188159+650128228+649128471+648038974+646866307+645798760
3138+644808783+644132672+644424589+645618235+646646586+646695562+645726938
3128+643664412+640216143+635773716+631946553+630521838+631618278+633369551
3118+633845427+632808042+631221168+629841024+628745256+627687713+626739396
3108+626703261+628374948+631103282+632710164+631456567+627823368+623867045
3098+621200492+620145898+620335308+621247602+622215890+622519154+621840132
3088+620514788+619290382+618915781+619525110+620237728+619934539+618520985
3078+616803682+615322487+614036152+612940123+612168038+611570431+610899659
3068+610285216+609953619+609730538+609317749+608645483+607644943+606282717
3058+605049800+604766843+605600745+606639138+606645111+605121585+602601213
3048+600238708+599172094+599673802+600812126+601261833+600426699+598674194
3038+596937741+596149829+596421886+596734893+596009843+594287725+592319119
3028+590561202+589069966+587768923+586535334+585434303+584879363+585164224
3018+585895806+586281046+585958296+585158102+584080924+582677673+581206670
3008+580410769+580682490+581334934+581221191+580128260+578977692+578472326
2998+578110044+576913113+574781415+572554640+570958545+569993953+569277265
2988+568495624+567397691+565847437+564241076+563311088+563184355+563235832
2978+563013162+562656442+562325479+561844004+560977924+559729777+558427988
2968+557477618+556800947+555894215+554653385+553532531+552707849+551876747
2958+551046391+550718041+551053371+551366864+550732413+549005031+546952733
2948+545311507+544107820+543127399+542566226+542631328+542800655+542200061
2938+540766089+539461052+539082009+539245250+538883192+537610930+536107263
2928+535003768+534025513+532690127+531250928+530163559+529176419+527834389
2918+526385260+525487002+525418316+525978705+526728915+527109153+526751275
2908+525798777+524658027+523562147+522523008+521355119+519723972+517703964
2898+516095812+515447624+515114608+514161252+512763712+511748314+511242911
2888+510790553+510331961+510170474+510278916+510285038+509909504+508992954
2878+507388013+505274047+503348520+502290417+502127810+502288551+502172605
2868+501683739+501255458+501167473+500944504+499930674+498375455+497236908
2858+496868914+496597006+495752391+494580246+493764337+493393880+492949622
2848+492222482+491530842+490926479+490017544+488718443+487380966+486165221
2838+484971650+483892008+483132280+482640352+482281392+482095305+481955021
2828+481379812+480164814+478785752+477770018+477102605+476557297+476092210
2818+475626525+474941157+474045661+473246102+472694074+472166049+471401990
2808+470471703+469681813+469170661+468717556+467995791+466929775+465735755
2798+464672128+463837106+463170253+462501533+461581101+460250942+458669406
2788+457213072+456105209+455289636+454626927+454002517+453297177+452430201
2778+451378445+450113462+448647087+447164474+445965229+445192435+444701291
2768+444197269+443413389+442274542+441069511+440267152+439932643+439577267
2758+438773676+437586525+436290261+435088738+434142064+433484319+432978729
2748+432523273+432055348+431360349+430255995+428905491+427639463+426571431
2738+425547074+424356675+422964511+421574774+420407370+419466482+418600999
2728+417669406+416611340+415517812+414649567+414243758+414203480+413983087
2718+413020062+411464209+410113518+409377344+408834462+408073725+407287306
2708+406697053+406051329+405064973+403931166+403126754+402843461+402723746
2698+402193705+401037836+399568475+398298453+397519649+397070837+396506230
2688+395621335+394643379+393771438+392914354+392061190+391461679+391219113
2678+391035788+390506307+389488744+388186245+386972143+386095312+385531152
2668+385138260+384825738+384452444+383761177+382652232+381403786+380388612
2658+379670170+379090780+378629873+378400372+378341391+378165420+377613206
2648+376631106+375380047+374208874+373511074+373366348+373324427+372825333
2638+371885042+371024598+370473392+369926777+369240998+368768295+368699721
2628+368641860+368196968+367476025+366743472+366035781+365396551+365043714
2618+365017098+364965284+364509791+363657597+362715029+361891915+361123750
2608+360286861+359447359+358768673+358269429+357856192+357517428+357285575
2598+357079404+356774609+356362231+355898674+355397937+354866553+354327105
2588+353747939+353074180+352369326+351825286+351579696+351548041+351466886
2578+351147160+350671060+350261892+350005439+349797962+349517730+349161458
2568+348843672+348671808+348610214+348566576+348601180+348814033+349039353
2558+348971078+348626676+348385827+348471087+348614432+348376383+347670707
2548+346842292+346306204+346238601+346546046+346957864+347145631+346910456
2538+346345363+345760821+345388087+345198677+345062126+344967533+344943829
2528+344878652+344632166+344282538+344061249+344041577+344064982+344001522
2518+343907191+343856721+343780905+343562864+343192407+342776109+342442309
2508+342207768+341939183+341535540+341102257+340813029+340669758+340541270
2498+340384225+340299189+340339467+340357684+340150581+339704643+339160119
2488+338630302+338214900+338002906+337887782+337610611+337116519+336627018
2478+336330809+336238792+336284222+336328830+336154278+335661081+335053806
2468+334706045+334817511+335234593+335616809+335733687+335571155+335223879
2458+334773276+334254620+333702331+333205402+332853311+332608355+332332714
2448+331981594+331654513+331434830+331320826+331309291+331385965+331432291
2438+331295852+330987324+330715641+330659423+330723368+330636577+330339435
2428+330087424+330068572+330162269+330196986+330184182+330184779+330162493
2418+330043039+329818055+329605650+329573360+329679674+329608524+329169978
2408+328636503+328429586+328567854+328702128+328653227+328609887+328754614
2398+329007670+329234857+329415755+329497581+329356401+329005430+328589282
2388+328079100+327188121+325660638+323385596+320099374+315290783+308696053
2378+300729541+292199635+283736212+275602838+267823776+260318114+253071967
2368+246331354+240572748+236189843+233252184+231745904+231999707+234560450
2358+239660640+247119024+256876397+269266409+283855778+297961022+307606015
2348+310159049+306081611+298964997+292938552+289152414+286137167+282766711
2338+279216980+276014115+273231429+270600638+268116177+266225348+265361657
2328+265533223+266407030+267642056+269192907+271331268+274283858+277905075
2318+281743847+285314575+288345072+290922576+293384695+296005949+298828204
2308+301736596+304528744+306913311+308647954+309780734+310661821+311640412
2298+312807741+314034199+315146616+316042971+316722553+317247181+317685914
2288+318105347+318543744+318935666+319151542+319171849+319106597+318995841
2278+318762345+318442880+318259331+318306142+318354447+318159139+317802606
2268+317533796+317423301+317375184+317340169+317324378+317287385+317193501
2258+317116603+317172223+317357303+317557986+317706221+317814028+317883088
2248+317918849+317985184+318113000+318230140+318272956+318259891+318225772
2238+318217597+318336491+318642369+319060496+319495794+319988169+320647370
2228+321466228+322292590+322991882+323568921+324136365+324818710+325665080
2218+326625007+327646676+328787575+330169436+331827647+333656678+335523112
2208+337409182+339381370+341447592+343576751+345796359+348107461+350429016
2198+352768153+355238167+357816810+360335539+362719919+365015679+367233309
2188+369340070+371354628+373333872+375244243+376942508+378391525+379748674
2178+381080662+382202673+382937615+383301465+383416514+383429281+383407667
2168+383253198+382869265+382334558+381779843+381236625+380640548+379930729
2158+379197840+378625207+378230933+377902098+377598162+377273359+376837127
2148+376271437+375608429+375265259+376518931+380595454+387110971+394446765
2138+401556678+408384232+414992960+421373120+427683250+434124631+440799059
2128+447605820+454249227+460616248+466796322+472512616+477152664+480399914
2118+482308830+483039777+482857348+482051145+480888183+479959166+480332423
2108+483113428+488989604+498131806+510056022+523232006+535179515+543484605
2098+546536696+543535522+535133077+523700490+511520381+499395781+487373090
2088+475336177+462851235+449720495+436420428+423540579+411552679+401005061
2078+392195688+384989203+379140054+374319406+370138061+366525505+363575622
2068+361097544+358886970+356987760+355348550+353834394+352509236+351403874
2058+350398817+349503358+348770283+348173833+347874712+348105072+348796451
2048+349825175+351353442+353661820+357062382+362002783+368961923+378389957
2038+390722930+406113818+424181637+443988262+463951073+482068428+496669202
2028+506701524+511558793+511332614+506884737+499400410+490196128+480486892
2018+470873331+461394977+452062469+443016577+434397621+426268577+418502300
2008+410798027+402961758+395127318+387684725+380991184+375110342+369883437
1998+365208000+361078618+357441313+354198206+351280463+348629514+346188691
1988+343946947+341975393+340407855+339308876+338554598+337924626+337281104
1978+336607420+335932541+335239408+334465718+333660672+333028572+332673906
1968+332454819+332195902+331873413+331544914+331273231+331115663+331063962
1958+331017935+330865892+330576514+330215576+329885882+329648056+329466486
1948+329222165+328870298+328595665+328613359+328794631+328761408+328371987
1938+327827238+327385482+327189801+327240532+327419825+327599417+327726337
1928+327809395+327892826+328009443+328131809+328253765+328454821+328727363
1918+328864885+328733075+328513428+328450267+328540268+328642551+328754614
1908+328999868+329362971+329629840+329645033+329509153+329468688+329659666
1898+329975137+330146218+329983499+329601992+329332511+329347368+329470517
1888+329442072+329277860+329209958+329374842+329668513+329862813+329847582
1878+329734735+329685610+329734847+329890660+330245999+330810271+331332174
1868+331475743+331189015+330733559+330397855+330319053+330450714+330617614
1858+330671853+330629522+330624109+330743153+330966793+331245457+331584931
1848+332053565+332670807+333250048+333503254+333468687+333523150+333884686
1838+334426970+334862568+335052686+335201481+335602213+336173167+336530335
1828+336634596+336823371+337135743+337270913+337169975+337115959+337306414
1818+337679484+338107503+338614698+339329296+340212697+340975598+341420715
1808+341737455+342256371+343082360+344087156+345080940+345925929+346619921
1798+347313016+348168532+349205656+350245467+351002732+351427691+351888821
1788+352756842+354050942+355529486+356970813+358344760+359698064+361000637
1778+362245163+363633146+365431828+367537170+369336860+370404818+371031691
1768+371588011+372233848+373257122+374858144+376692811+378204691+379410320
1758+380705240+382184344+383762558+385548734+387644558+389786596+391512895
1748+392693999+393559444+394356204+395284923+396496001+397922247+399317397
1738+400722627+402580550+405059635+407441103+408907665+409866397+410976313
1728+412236816+413512587+414926962+416586628+418481732+420760656+423630431
1718+426817655+429474391+431187066+432404826+433611015+435074553+437060255
1708+439741143+442939529+446249156+449621311+453402484+457547283+461313599
1698+464382414+467193694+469852520+472341348+475094319+478444151+482268962
1688+486476549+491427626+497312724+502987022+507050219+510134414+513471740
1678+517444711+521878814+526456970+530985105+535618098+540606804+545728290
1668+550400144+554670817+559207389+564294868+569476978+574236070+578746436
1658+583484288+588728588+594642802+600910414+606033842+609531386+612945312
1648+617115681+621449853+624878188+627463512+629944949+632574211+635354208
1638+638469051+641880588+644610415+645691774+645706183+645677140+646046030
1628+646933351+648387183+650295090+652405696+654694961+657514080+661106590
1618+665079114+668159389+669054176+667894500+665472865+662253126+658672338
1608+655281780+652570468+651082144+651391680+653568583+656940401+660676182
1598+664218222+666956784+668214040+667957736+666943719+665873857+664868800
1588+663795952+662676143+661589185+660426896+659143510+658189145+658191385
1578+659251541+660826843+662301356+663762953+665774412+668628098+672140499
1568+675939142+680097492+685118151+691367397+699081898+708953144+721573330
1558+734535304+744744531+754121909+765218456+777923977+790635545+801837063
1548+810515559+816541650+820798026+824272277+827003447+827909731+826524959
1538+824899038+824853720+826152710+827837611+829002663+829314289+829188190
1528+829309735+830222141+832191866+835211667+838736387+841531466+842997243
1518+844072779+845622399+847450048+849216626+851233236+854019953+857652257
1508+861458664+863813778+863750393+862893085+862854561+863743674+864913130
1498+865733706+866289616+867213295+868618450+869801942+869803809+868342137
1488+866657236+866342698+867512304+869150469+870425717+871231585+871944726
1478+873093577+875107276+877854050+880334965+881469257+881498747+881438273
1468+881528461+881519726+881650081+882473866+883740977+884422538+883553956
1458+880817559+877736089+876950753+878596309+880865714+882344333+882415110
1448+881195557+879609654+878779447+878894198+879186786+878987297+878200990
1438+876904464+875520961+875195373+876344000+877690025+877804850+876882589
1428+876363113+876714457+877175849+877489566+878137978+878869710+878504030
1418+876725059+874798786+873759161+873576172+873825085+873994187+873628433
1408+872648759+871369853+870347251+870140595+870743913+871405913+871235318
1398+869867493+867656769+865515478+864477122+864719689+865155174+864376706
1388+861815907+858485300+856522593+857354144+860650482+864952923+868820850
1378+871642657+873801343+876067240+878682092+881333154+884057978+887153111
1368+890184485+892354146+893738023+894946825+895962633+896435448+896669578
1358+897303133+898484983+899922316+901459915+903337063+905708751+908000928
1348+909203757+909105431+908810753+909547785+911264192+912821950+913467749
1338+913724351+914575015+916284927+918519541+921018821+923535647+925603772
1328+927129053+928820076+931323985+934197680+936389888+937554118+938349683
1318+939723257+942043431+944539426+945885227+945915240+945971084+946813684
1308+947371535+946572462+945221957+944709200+944881065+944704198+944271699
1298+944547564+945616828+946521470+946527741+945548142+943696154+941286838
1288+938788976+936315602+933729568+931224465+929143946+927518473+926274955
1278+925344556+924286565+922574936+920373620+918328489+916741092+915410447
1268+914063751+912735196+911731408+911128985+910542540+909720620+908808513
1258+907529233+904933867+900655466+895693190+891366260+888001161+884962769
1248+881711898+878519485+876007737+874384429+873604990+873870552+875118102
1238+876264339+876040810+874616842+873431782+873489418+874637074+876259262
1228+877881600+879279437+880591194+882191507+884031624+885527862+886622734
1218+888220733+890861044+893745116+895903130+897565933+899481679+901507921
1208+902826173+903353413+904273285+906898515+911234180+915915141+919494063
1198+921546809+922558511+923144061+923631061+924342560+925953026+929032256
1188+933168059+937102283+939964181+941912031+943587152+945485279+947639785
1178+949592263+951040421+952599971+955240804+958729613+961415615+962073808
1168+961419124+961267940+962678694+965349988+968330818+970777762+972308493
1158+973240833+974447395+976403756+978481736+979766466+980211582+980419507
1148+981065157+983004048+986785968+991478053+995239442+997600454+999651034
1138+1001726327+1002785438+1002595804+1002596401+1003693439+1004872601
1130+1004898060+1004020071+1003219355+1003348440+1005579396+1010421920
1121+1015939733+1019205536+1019833417+1019970714+1021035425+1022523973
1113+1023586891+1023894337+1023183062+1021565503+1020235977+1020562386
1104+1022176735+1023154169+1022791476+1022825744+1024913057+1028459278
1095+1031812880+1034372783+1036864598+1040074630+1043483778+1045627533
1087+1046462369+1048203936+1052054168+1055730147+1056539151+1054800271
1078+1052451802+1050950188+1051149975+1053066244+1055308922+1055757696
1070+1053643880+1050788626+1050133793+1053246620+1058852605+1063741566
1061+1065722490+1065510011+1065834404+1068395277+1071389173+1071152877
1053+1067241275+1063005206+1060967467+1061210407+1062986840+1064997926
1044+1065800733+1066161783+1068165776+1071494516+1073723830+1073741823
1035+1072420212+1071044622+1070337155+1069678215+1067353488+1063241352
1027+1059934561+1059636224+1061664333+1063973681+1065626777+1066551427
1018+1066878732+1066867010+1065774229+1062223602+1057322024+1054998117
1010+1057358308+1061416838+1062522312+1060577150+1059334901+1060334285
1001+1060947607+1058743678+1055310191+1053635667+1054297219+1055771060
993+1056351832+1054665213+1050232567+1044510114+1039899481+1037492479
984+1036300326+1034703970+1032194238+1029305462+1026809989+1025326294
975+1024908428+1024580601+1022949454+1019818634+1016110851+1011865748
967+1006038996+998576469+990953500+984414802+979172630+975436849+973695506
957+973528494+973321315+971844936+969457271+967459474+966725503+966940222
947+966668986+964484020+960754959+957559708+956284834+956393462+956740029
937+957026495+957327818+957118400+955665986+953042847+950317350+948701732
927+948646858+949809969+951522270+953102574+954188413+954818160+955164353
917+955458808+955840613+955902132+954779636+952252210+949545900+948219362
907+948229216+947938943+946405375+944795804+944381597+944407130+943738710
897+942951730+942831156+942608374+941441755+940124474+939917295+940621403
887+940892042+940018607+938460029+936889281+935597160+934858112+934908731
877+935288072+935279263+935028558+935164437+935547512+935241410+933616908
867+931162722+929055401+928076922+928200706+929059806+930320868+931478529
857+931847493+931082986+929566889+928394894+928686661+930447639+932371598
847+933349256+933965565+935468448+937723519+939233495+938912014+937063759
837+934834594+933368145+932923551+932623572+931939473+931831441+932963270
827+933796313+932441180+929633484+928011894+929218530+932668890+936393845
817+938813688+940010544+941028966+942369765+943772679+944974986+946136678
807+947334579+948068849+947579983+945917853+944202938+942985700+941480353
797+939561546+939166750+941974371+946200884+947607681+944596017+940532410
787+939616644+942309589+945895082+948367709+950215740+952258033+953746059
777+953830349+953364701+953768009+954829060+954652940+951858832+947454033
767+943668157+941626088+941240400+942404780+944761163+946950086+947920801
757+948298649+948797445+948780647+947812396+946867663+946824883+947277988
747+947322186+946810698+946844145+948830370+953001113+957555005+959547501
737+957494158+952801251+948397348+946007443+945485055+946360430+948014124
727+949111311+949625337+951599467+955415058+957857299+956614303+953914340
717+951959472+949510437+945508349+941915465+941427570+944184050+947728330
707+948938102+946019911+940009126+934222317+931389536+931304798+931677569
697+931481515+932010249+933850889+935067007+933586895+929837452+925623930
687+921841786+918050908+913644093+909033684+905386673+903192076+901852248
677+900941185+900512046+899099351+893020104+880337951+865399906+859986093
667+871913743+888788140+894805869+888692577+878687393+872527737+871425997
657+872058805+871741953+870401975+868733424+866239744+862609381+860073518
647+861725868+866963860+870789978+869662031+865668081+861665619+856300558
637+847757194+840113395+839953401+847316035+854975736+856762622+852359466
627+843665814+832408451+822051922+817507287+821383651+831510305+841942463
617+847187995+846389294+842716004+840265998+841465094+844657806+845514143
607+842756693+839505747+838391986+838570047+837492346+834300979
##END=
