##TITLE=<SNM>
##JCAMP-DX=4.24
##DATA TYPE=INFRARED SPECTRUM
##DATE=2/5/2025
##SAMPLING PROCEDURE=Instrument type and / or accessory
##ORIGIN=Admin
##XUNITS=1/CM
##YUNITS=ABSORBANCE
##RESOLUTION=4
##FIRSTX=4497.3318
##LASTX=599.83466
##DELTAX=-1.4281778
##MAXY=1.8388882
##MINY=0.39148879
##XFACTOR=1
##YFACTOR=1.7125981e-09
##NPOINTS=2730
##FIRSTY=0.40593281
##XYDATA=(X++(Y..Y))
4497+237027486+237832929+239146523+239785483+239224953+238308608+238135529
4487+238794241+239457511+239504043+239235168+239233114+239341336+238884330
4477+237687241+236276302+235210197+234752233+235074619+236184716+237597813
4467+238560447+238896807+239279212+240229334+241297684+241652228+241153718
4457+240489334+240323286+240533692+240430516+239749844+239036213+238754895
4447+238529785+237759459+236624634+235993853+236485593+237836444+239183972
4437+239918607+240048755+239822218+239372903+238785313+238293903+238294025
4427+238974663+239846198+240026307+239276167+238263085+237625430+237415512
4417+237567151+238151226+238976577+239498301+239246723+238183976+236879431
4407+236279417+236802219+237755561+238112420+237654126+236995536+236859628
4397+237419949+237915292+237236638+235428763+233990346+234178495+235651785
4387+237092273+237631381+237316896+236582852+235776400+235144191+234811034
4377+234604805+234201152+233501564+232656166+231903833+231574713+231911299
4367+232757236+233678019+234306590+234443159+234167062+233887084+233845598
4357+233708802+233060132+232068629+231394726+231622185+232749632+234101962
4347+234969495+235205481+234930967+234167984+233097877+232079209+231244357
4337+230649945+230549067+231006822+231647627+232029997+231878253+231070774
4327+229962678+229273409+229162507+229088880+228883417+229019778+229590227
4317+230077791+230306451+230553156+230682957+230261154+229574965+229543016
4307+230513620+231871710+232800132+232994493+232822075+232961307+233559495
4297+233823393+232974098+231459321+230582774+231044027+232285247+233147176
4287+232933969+231940256+231034352+230732552+230763249+230602578+230300639
4277+230386082+230848796+230829463+229816015+228641706+228593503+229888807
4267+231545217+232515890+232579946+232169159+231644894+231025546+230330465
4257+229812135+229760069+230283219+231208805+232087632+232595156+232913417
4247+233325336+233601920+233267579+232294748+231177238+230508538+230644655
4237+231470633+232386543+232746464+232383062+231646913+231062925+231059984
4227+231819295+233007109+233689678+233057574+231336552+229607785+228828097
4217+229250857+230520371+231979932+233000775+233288879+233048943+232856514
4207+233162159+233858824+234506276+234855025+234969321+235059827+235262054
4197+235369214+234934674+233888041+232744620+232000553+231694403+231662383
4187+231844876+232229178+232742097+233286147+233755579+233992243+233837576
4177+233320707+232713366+232343891+232467287+233166248+234054907+234342716
4167+233648418+232497984+231742397+231803756+232510409+233302400+233734766
4157+233967689+234385664+234808423+234681442+233942979+233156034+232807858
4147+232796042+232635771+232128334+231661026+231617556+231743075+231529207
4137+231039798+230948126+231802468+233357025+234680938+235028052+234503926
4127+233785614+233386608+233290010+233192891+233037945+233126277+233603469
4117+234169707+234485707+234527314+234455723+234407103+234417874+234430369
4107+234394956+234320024+234226611+234227464+234480695+234773515+234553348
4097+233708959+232794163+232242560+231981672+231950697+232268019+232737050
4087+232792510+232182210+231450777+231476358+232514985+233847878+234530499
4077+234422155+234130779+234039628+233915084+233457764+232717369+231999752
4067+231785884+232485768+233766733+234497314+233983612+232879449+232249782
4057+232214595+232197594+232087283+232323583+232986018+233596456+233917120
4047+234293556+235050900+236051035+236922240+237343312+237067632+236049121
4037+234642967+233434724+232821449+232845446+233354275+234157474+234995789
4027+235539422+235622689+235465098+235421785+235495847+235459930+235479438
4017+236004555+236825103+236998721+236156943+235121482+234753729+234954929
4007+235252257+235671571+236439322+237292255+237666724+237415929+236957461
3997+236737137+236857801+237265508+237951958+238662648+238745933+237952567
3987+237138249+237353544+238436720+239230870+239086643+238590291+238802367
3977+240064225+241574094+242212497+241754725+240904107+240317352+240101256
3967+240119598+240376988+240990263+241803520+242305963+242302099+242246814
3957+242473525+242761855+243024292+243746816+245453534+247935329+250015177
3947+250607100+250272724+250477213+251168483+250718246+248553581+246050155
3937+244808135+245743849+249001156+253182309+255399648+254002961+250865935
3927+249180743+249893730+251277662+251738497+252029612+253640777+256181164
3917+257358989+255442039+251249541+247121968+244676699+244253539+246077998
3907+250988078+259365767+269489153+277626105+280690252+278041034+271038211
3897+262746035+256898189+255752383+258567945+261494601+261329179+260305691
3887+262364222+266935663+270039573+270851629+271507399+270890243+266930877
3878+262818079+263171162+268037111+274201305+279363920+282051770+280788433
3868+277482157+276016036+276506681+275339906+271087058+266862331+266053721
3858+270011939+279120330+291760106+299431229+293672793+280951993+270407326
3848+265295176+265904935+270971997+278133977+285454070+292172721+296782567
3838+296473198+291339330+285386586+281283985+278519184+276086914+274454501
3828+274336535+275688969+279245031+286465429+295236068+298770516+295477744
3818+291092660+287705674+282740656+276228043+271698384+271798618+276702782
3808+283588577+288480768+291703516+296478975+301687026+302408784+298881018
3798+295312949+292214624+288323491+284890529+284003106+285764153+289147275
3788+293697294+298966844+303687226+307506926+312095994+318266923+323692567
3778+326247746+327866115+332062529+340605047+353172780+367436425+380057547
3768+389999694+398763877+407038581+414975134+423792601+433487294+440861315
3758+443478165+444195225+448128140+457852730+471008296+480499666+483580519
3748+486817014+495070627+505012704+509865237+511472469+517187539+529924210
3738+548001916+566369084+577926920+578944857+573321633+568134812+567511722
3728+571707510+578367673+584388668+588397908+590234705+589216141+585602340
3718+581725667+580571091+584452010+593333412+601690531+600919770+590813420
3708+578970855+571191720+569621484+573064364+576993382+577347022+575220415
3698+574207629+575781345+579587506+585735569+594551818+603479021+606533318
3688+601763549+594735372+590351018+589335936+590649425+593804166+600208940
3678+611609847+624452668+629033453+624119180+618176945+613465229+605943258
3668+595641241+587126809+582687605+581390369+581144238+581190666+582495768
3658+584962928+586167412+585553267+587081982+594307427+604972445+609732678
3648+602056666+587956041+575973357+569286673+567272203+567506954+567546595
3638+566907566+566709742+567735753+570694828+577203004+586901839+592897392
3628+588214353+578137203+571055846+569785827+574389339+583287585+591666178
3618+594749920+594013197+593754606+594774700+595508987+596022202+597395484
3608+598633449+598032042+596739853+597674818+601785893+606953050+610982059
3598+614066288+616615376+617303026+615980001+615906913+620079591+626792865
3588+629937513+626063937+619163559+614607623+614025915+616150678+619102861
3578+622001587+624805229+626972173+627839480+628693283+632356296+639618075
3568+646537874+647149931+640870519+633003644+627903031+626004075+625441161
3558+624892586+625130086+627431929+631003339+633332608+633652871+633959421
3548+635226204+635324977+632384487+627886325+624502994+623237325+623523898
3538+624129064+623614388+621434148+618901766+618062581+619357833+620996458
3528+620923440+618999843+616743732+615459060+615492402+616617255+617839072
3518+617408690+614362049+610035261+607236213+607508586+609717155+611619244
3508+612436990+612888393+612976725+611522350+608395592+605452109+604297602
3498+604528142+604509974+603217506+600977474+598929628+598247686+599375532
3488+601597118+603494195+604015484+602966363+600965989+599357365+599518506
3478+601559182+603798170+604145232+602399690+600556490+600298177+600694173
3468+599265831+595548246+591913632+590331876+590366750+590731144+590965372
3458+590998157+590359162+588414614+585163049+581827920+580178959+580871969
3448+582992485+585245046+586568141+585990122+583514679+580718380+579345412
3438+579658993+580657022+581325043+581078146+579531020+576789258+574006812
3428+572738324+573291667+574269023+574260983+573412366+572574677+571805482
3418+570727369+569532073+568641796+567935944+567087883+566175610+565316482
3408+564306759+563266827+562971379+563702046+564367596+563928687+563151383
3398+563429081+564361645+564226015+562633366+560974102+560279978+560266997
3388+560401060+560434367+560034752+559094462+557980119+556852934+555549294
3378+554427085+554158575+554331375+553624722+551893415+550800163+551793633
3368+554298451+556357191+556764915+555939547+554725909+553246128+551270534
3358+549219243+548244393+549088311+550891175+551795478+551069961+549656481
3348+548480675+547596245+547094237+547345032+548114993+548651178+548722038
3338+548718592+548888852+549117024+549294697+549340464+548950559+547865555
3328+546450544+545716674+546523805+548527451+550044298+549605354+547644274
3318+545834832+545032782+544918453+545265514+546217464+547461172+548280032
3308+548444409+548299278+548024503+547426716+546633158+546446054+547356621
3298+548511511+548507926+547131512+545466645+544525659+544597667+545564756
3288+546997135+548096060+548255112+547683428+547193288+547384604+548142731
3278+548910882+549124786+548408179+546963375+545812175+545959777+547379279
3268+549231459+550630913+550840883+549613985+547886089+547111708+547602753
3258+548355451+548492543+548042462+547302084+546300714+545042841+543724862
3248+542684616+542326660+542751682+543393635+543476155+542815547+541787761
3238+540726598+539901786+539739358+540414792+541299849+541263792+539873178
3228+538192127+537709923+538263718+537972969+535856107+533294142+532056942
3218+532284244+533058277+533840002+534623536+535158016+534752692+533144799
3208+531187199+530044561+529831353+529770552+529483178+529205723+528904498
3198+528101613+526662552+525165438+524290510+524085760+523957683+523344094
3188+522307677+521408768+520947237+520520649+519685014+518723737+518164756
3178+517933381+517559764+516746020+515408621+513754578+512363581+511537726
3168+510645569+508789769+506067464+503572982+502204921+501932095+502148400
3158+502267254+501956144+501315514+500903648+501070044+501324145+500925435
3148+499846696+498544587+497224311+495973190+495140757+494933745+494927828
3138+494560267+493853266+493100080+492279863+491395085+490725845+490200311
3128+489508971+489061396+489456557+490079577+489809396+488867958+488337202
3118+488309881+487972425+486982575+485697833+484477026+483465076+482785152
3108+482483474+482317913+481864839+480981453+480086547+479786575+480128694
3098+480400998+479871043+478516033+476753542+474914239+473493450+473300325
3088+474535645+476121717+476725003+476117958+474883612+473335685+471513924
3078+469785784+468710212+468501007+468989720+469790169+470338396+470300147
3068+469963004+469611800+468781177+466993662+464847983+463426393+463039098
3058+463175737+463245588+462993749+462585085+462414791+462468701+462049213
3048+460649794+458845538+457677702+457363112+457280279+457075112+456977592
3038+457023150+456838865+456349212+455904178+455573718+454981151+453944455
3028+452754797+451765956+451144293+450939335+451023873+451050254+450721325
3018+450101646+449504729+449047304+448467058+447486640+446251702+445205261
3008+444549039+444053261+443447190+442799564+442392675+442301385+442232787
2998+441825863+440999520+439974344+439115286+438738188+438796658+438764709
2988+438106746+436831749+435422759+434412409+434055254+434077459+433787371
2978+432803611+431560773+430727609+430352947+429996558+429474956+428965500
2968+428489700+427883420+427289984+427086591+427221003+427123031+426407259
2958+425326084+424403091+423820826+423317844+422666007+422019634+421562384
2948+421074680+420232188+419156164+418283846+417823220+417628285+417468397
2938+417188680+416708598+416049905+415367614+414892197+414770523+414876848
2928+414795408+414142457+412947230+411615956+410602892+410155178+410118390
2918+409938421+409217811+408290399+407765629+407616148+407304516+406644256
2908+405933253+405415653+405111504+404953774+404750938+404280149+403614425
2898+403057846+402699612+402375590+402053865+401852770+401659749+401165293
2888+400386562+399740397+399382094+398869715+397823552+396603894+395905036
2878+395858539+395953170+395783154+395485653+395356844+395367842+395244603
2868+394803815+394019271+392992738+392076393+391729087+391942190+392036194
2858+391376839+390183840+389301951+389200359+389514323+389621274+389340235
2848+388883507+388428484+388001896+387554599+386970768+386209056+385477031
2838+385026567+384799474+384494072+383941355+383255271+382642309+382120881
2828+381477327+380632469+379931941+379731194+379822936+379717203+379329629
2818+378917902+378559460+378140041+377666085+377286725+377123914+377117023
2808+376918886+376166257+375010428+374031993+373481922+372992165+372178943
2798+371192643+370459330+370068311+369675761+369017207+368280205+367809520
2788+367636129+367525488+367311689+366969256+366536021+366142496+365948744
2778+365918708+365771002+365237358+364321326+363291347+362443983+361884166
2768+361519981+361214300+360881752+360489410+360039956+359512751+358834567
2758+358024129+357274737+356684537+356040774+355122724+354062222+353193558
2748+352725171+352648150+352750995+352718210+352406404+351962206+351567776
2738+351225308+350826911+350298209+349687300+349148784+348771826+348456435
2728+348053096+347532538+346942129+346349144+345883646+345644545+345504808
2718+345216216+344772331+344437833+344308920+344080643+343458284+342621083
2708+342017692+341803232+341726803+341521288+341149585+340626869+339859170
2698+338801766+337615067+336569496+335901231+335718129+335878852+336027359
2688+335920617+335648522+335422646+335303026+335222804+335105341+334863943
2678+334418631+333802711+333163751+332565337+331888267+331061367+330291198
2668+329876617+329867046+330060832+330251765+330302300+330057074+329427441
2658+328611922+328028021+327892774+328000039+328012951+327798700+327397553
2648+326915941+326522973+326305694+326116536+325764393+325273383+324806109
2638+324461275+324214656+323969673+323711222+323602599+323745503+323902885
2628+323708646+323086009+322268646+321537560+321070113+320875908+320785906
2618+320645822+320519763+320514681+320467035+320100414+319489192+319013983
2608+318821937+318679903+318391694+318036140+317763001+317590027+317428643
2598+317214844+316988446+316793337+316557960+316218833+315841597+315464291
2588+315052772+314710861+314604954+314653957+314650686+314620198+314694991
2578+314759621+314536078+313945216+313205186+312611227+312278957+312081238
2568+311831452+311499425+311197330+310976153+310749372+310497951+310409514
2558+310591468+310767818+310582141+310109263+309731540+309599147+309505977
2548+309222884+308755123+308324046+308170353+308308175+308476207+308416380
2538+308162348+307956728+307941867+308051220+308146512+308128032+307956345
2528+307697302+307509954+307490046+307577125+307672487+307760714+307844451
2518+307827641+307549247+306959569+306267568+305870633+306031878+306577669
2508+306997818+306916412+306408036+305830713+305454764+305297800+305218169
2498+305097574+304941689+304821268+304763981+304752601+304778007+304821129
2488+304819737+304730988+304609314+304539637+304484821+304307044+303983823
2478+303674523+303511538+303468555+303474193+303495319+303489263+303417637
2468+303320048+303275708+303289421+303265998+303118535+302884654+302675937
2458+302512534+302311404+302046687+301803514+301662107+301629218+301680449
2448+301798572+301967718+302154161+302288050+302273607+302063497+301749499
2438+301529192+301501558+301533299+301431742+301203325+301020885+301000316
2428+301131456+301358689+301616340+301835429+301985224+302072129+302083962
2418+302008194+301904897+301859061+301865917+301869049+301871486+301899955
2408+301936360+301984284+302098649+302285127+302485039+302675137+302858900
2398+302982035+302986768+302939888+303002221+303252076+303588523+303824840
2388+303819376+303478892+302733433+301587279+300112579+298313440+296086703
2378+293396278+290387016+287236938+284013547+280798352+277789404+275096281
2368+272650942+270544661+269116894+268471303+268390455+268958276+270722803
2358+274063883+278866385+284931598+292201817+300110770+307116290+311579508
2348+312864354+311604080+309408666+307815077+307007146+306160825+304797985
2338+303122642+301435744+299758209+298021368+296369239+295143072+294617851
2328+294780940+295280303+295606309+295493963+295175266+295114324+295521805
2318+296231591+296966087+297587019+298095152+298514048+298899011+299397295
2308+300083797+300728778+300979573+300815265+300566036+300469212+300480732
2298+300516336+300587301+300671247+300690529+300661015+300686248+300788536
2288+300875162+300868375+300765600+300587684+300350810+300075966+299787583
2278+299524537+299331551+299195051+299045743+298859718+298668542+298468073
2268+298237812+298032784+297933280+297927920+297922595+297843139+297703472
2258+297586218+297545533+297541356+297490438+297351294+297166591+297062563
2248+297147901+297366712+297545185+297605395+297607135+297602785+297596242
2238+297606091+297649978+297707474+297756617+297785608+297765596+297704411
2228+297701383+297829496+297997214+298051543+297966726+297818184+297655094
2218+297514871+297463187+297527122+297670408+297846271+297998258+298060487
2208+298038387+298008804+297991959+297916122+297734760+297508223+297368138
2198+297415297+297615244+297813869+297900182+297911702+297951030+298069293
2188+298249436+298423246+298490869+298390635+298158564+297890994+297693274
2178+297671696+297872165+298187903+298427039+298506148+298497621+298474337
2168+298404521+298255805+298144608+298267082+298646615+299047414+299228428
2158+299200689+299146604+299175526+299250458+299297652+299310634+299335971
2148+299365450+299316481+299189587+299151477+299336563+299638693+299843304
2138+299920150+300029747+300239125+300397586+300368351+300242432+300205992
2128+300308071+300486336+300706504+300949746+301162640+301324964+301478379
2118+301635065+301763351+301879839+302045086+302264036+302498647+302770220
2108+303125948+303502941+303759966+303888113+304043407+304305791+304575972
2098+304791963+305041610+305367128+305677124+305904775+306036750+306009395
2088+305818671+305664317+305753901+306044686+306339647+306543352+306702405
2078+306865912+307007354+307091057+307163170+307309972+307550291+307864359
2068+308270378+308720355+309001916+308946683+308667836+308421009+308343814
2058+308452123+308723069+309054504+309282468+309340033+309319917+309350370
2048+309468389+309627825+309821368+310125552+310526489+310793016+310727376
2038+310468924+310324350+310390442+310541559+310681957+310819084+310947544
2028+311029472+311094624+311223224+311409562+311625867+312048035+312888856
2018+313876897+314309889+313879646+313068025+312527316+312465435+312715917
2008+313032456+313211764+313178910+313055426+313046691+313215384+313393683
1998+313434542+313622586+314558839+316312003+317938446+318365835+317584841
1988+316404267+315452701+314945577+314898975+315116637+315287314+315298347
1978+315259958+315281154+315394962+315584328+315879568+316531614+317758477
1968+319083103+319485329+318681539+317594761+317117881+317166119+317264335
1958+317374732+317687895+318075956+318240194+318206539+318341647+318912287
1948+319909063+321380700+323460775+325588913+326319163+324946159+322684897
1938+321172053+320767112+320869713+320991805+321065936+321186113+321411676
1928+321875887+323004743+325046776+327244104+328514367+329098233+329868647
1918+330227055+328864040+326406555+324930950+325371668+326875151+328016571
1908+328086631+327411893+326687385+326221190+325941961+325859998+326234103
1898+327292934+328752738+329838159+330369019+331292464+333064247+334325322
1888+333671188+331853289+330493929+330034208+330042560+330215291+330409913
1878+330502630+330564267+330933986+332343499+335829292+341521566+347020437
1868+348468199+345123186+340349310+337193316+336086874+336041211+336147780
1858+336014900+335715623+335575469+335814048+336564240+338087039+340627217
1848+344364606+349289147+353933205+354997118+351390068+346532177+343755125
1838+343269544+343552359+343947658+345659336+349977284+355678051+359256422
1828+359297699+357924243+356453337+354054809+350821238+348491621+348001134
1818+348564083+349111509+349759414+351445406+354259942+356714364+357244319
1808+356107528+355039856+355725349+358798301+363210985+366530208+367071753
1798+365855401+365633458+368529434+374173644+378505062+377000257+371285325
1788+366832165+366136440+367858141+369948970+371862265+373456237+374109814
1778+374312058+376228451+381622354+389533639+395578822+395828503+391607622
1768+386252004+381702611+379754512+381591901+385427018+387661412+387679858
1758+387467625+387491640+387775672+390357406+396931222+405231368+409955822
1748+408998687+405380640+402514561+401733289+402844360+404554402+405312182
1738+406025030+410094758+418416204+424917420+422879423+415651403+408654619
1728+403340834+400402676+400286919+402063610+405308736+411920383+423609464
1718+437107847+443356457+438363214+428619169+420712409+417097285+418232719
1708+423514589+430570540+436247918+440780570+447738514+457759108+465187945
1698+465849318+461616186+453696723+444510789+439094299+439435792+443693704
1688+450369495+460767291+474237865+481613069+476156277+466050239+459739226
1678+459379530+463713314+469156917+472860268+476298971+481012742+483275117
1668+479206398+473189406+471576222+474663653+477625512+476994174+475350398
1658+477448188+486324020+502724783+520578841+524551085+516660543+513220969
1648+516984773+519560800+513604679+503984292+498202781+498403667+504481914
1638+515713014+527864878+531467647+523773815+514625400+511211963+513370520
1628+517717216+521954246+526206137+529647103+529935312+528381329+529697151
1618+535328727+540148405+538436484+533233862+530428131+531382865+534026654
1608+535925958+536539685+537018026+538290517+540001464+541277957+542059299
1598+543155022+545080359+547331841+549050410+550106944+551023115+552091100
1588+553172240+554159202+555150026+556255703+557713001+560428833+565911242
1578+574428736+581967553+582476486+578365028+577429367+581490638+585541364
1568+585023486+582344128+581689054+584862067+593989391+612171438+635555795
1558+644298677+632763568+618928634+610753468+607605758+607538726+608774603
1548+611283667+617267526+628329445+643329327+659467844+671403195+670322681
1538+658893514+650807793+651286274+656288601+659248859+659489700+661778527
1528+668442519+677704811+687542129+698313995+709430068+717022761+719600109
1518+719993878+719108473+716418291+714320954+716661638+725535870+740882952
1508+758491644+765159743+752969699+736980142+729550052+731221462+738438066
1498+745859594+748122875+745229231+743285378+747171970+756020656+763388238
1488+763226123+757414681+752009815+750223622+751519849+753904107+756669674
1478+761017414+768125640+777524780+786298638+789275045+784661266+778290182
1468+776368951+779748802+784446389+786151488+786408966+790621320+801556066
1458+815270440+820381424+812730053+802282906+795894280+793924672+794519188
1448+794935370+793166371+789987824+787525606+786864615+788679277+793945415
1438+801406271+805323073+801846259+796194496+794361110+796116536+797728501
1428+797513206+797512788+799537594+802759228+805934016+809380272+812519421
1418+812076232+806898355+800352835+795634018+793548723+793315818+793837733
1408+794821284+796402831+797856996+798401813+799087514+801576392+805797447
1398+810318787+813844257+814912520+812320345+807843831+805418644+806771322
1388+809576356+810064373+808169871+807591435+810538677+815970550+822080051
1378+828291247+834652865+840251518+843174675+842933138+841744733+841975760
1368+844140616+847875046+852749505+857233675+858931675+857461500+855012994
1358+853251860+852049882+850951966+850338448+850677644+851373438+851431908
1348+850846302+850232853+849946907+850699570+853563840+857997406+861203169
1338+861089640+858659650+856096223+854483004+853857374+853787628+853835517
1328+854139562+855143438+856701527+858283979+859977872+862212266+864649356
1318+866540864+867978254+869671382+871757930+873622082+874669811+874962997
1308+875223885+876200962+877943511+879861122+881409884+882365592+882644647
1298+882419955+882299604+882812958+883614207+883737760+882675901+880698776
1288+878437583+876605380+875543243+874655263+872959560+870347825+867614278
1278+865475734+864234775+864031661+864698777+865467938+865545689+865256123
1268+865842773+867556504+868891641+868736487+868207610+869032109+871208032
1258+873352006+874620668+875460828+876698097+878390320+879715851+880092009
1248+879995464+880248208+881020431+881933609+882787064+883884214+885683283
1238+888175085+890694450+892555471+893844249+895343451+897782977+901191785
1228+904778091+907586466+909226344+909925062+910290291+911126762+913111265
1218+916337006+920108328+923367480+925608417+927275163+928960007+930503062
1208+931214239+930930589+930786363+932551325+936727135+941547161+944602990
1198+945419414+945809563+947878291+951820499+955336154+955759505+953665022
1188+952956212+956241536+961977802+966990918+970029763+971455320+971463325
1178+970482837+969797484+970673074+973361307+976637791+978406721+977970979
1168+977003507+977339293+978992187+980653226+981785806+983424500+986191599
1158+988503117+988669270+988064522+989354066+992633683+996028151+998750979
1148+1001054771+1002461813+1002165634+1000487332+998836666+998329368+998621997
1138+998566172+998330829+999750748+1004031178+1010138799+1015547772+1017969131
1128+1017113100+1015213866+1015278531+1018406195+1022661218+1024998282
1120+1024648158+1023556159+1023380888+1024017377+1025175781+1027566165
1111+1031936249+1037589265+1042158982+1043013203+1039406223+1033138366
1103+1027401822+1025431240+1028967150+1036614345+1044024597+1047185881
1094+1045934620+1043538320+1042983272+1044433470+1046114346+1046664174
1085+1046271450+1046412683+1048793252+1053351693+1057027306+1056550705
1077+1052496916+1048503338+1047720465+1051113054+1056510611+1059411842
1068+1057757625+1054453925+1053420187+1055625206+1060101372+1065524266
1060+1069489166+1069801703+1067107832+1063990052+1061869675+1060586952
1051+1060255274+1061473053+1063801347+1065774365+1066101380+1064416814
1043+1061929329+1061379362+1064588744+1069499190+1071451952+1068750981
1034+1064478904+1061792690+1060946892+1061311912+1063199314+1066499116
1025+1069614947+1071541259+1073137910+1073741823+1070094819+1062186736
1017+1055215707+1053417960+1056252925+1060723313+1064977779+1068330205
1008+1069593508+1067710144+1063429366+1058922016+1056224386+1056450401
1000+1059007146+1061646027+1062033740+1059866447+1056759457+1053945861
991+1051503690+1049586566+1048903649+1049424799+1049868058+1049378092
983+1048674920+1048868358+1049809031+1050181082+1049018919+1046782646
974+1045039332+1044529249+1043618925+1039732264+1033233311+1028081328
965+1027012578+1028490340+1029601760+1029106643+1026159889+1020230532
957+1013865503+1010768397+1010851856+1010916939+1009477112+1007733868
948+1006562238+1005236567+1002779152+999076741+994915270+991091951+987313181
938+982672185+977404933+973256269+971549638+971737090+972296385+972595766
928+973386226+975379918+977947730+979583710+979412476+978240011+977925734
918+979283007+980816525+980103955+976464190+971759295+968600378+968169509
908+969690845+971623422+973010556+973661523+973722499+973358731+972335991
898+970131320+966995443+964378209+963785851+965402271+967903191+969358262
888+968480584+965625084+962720790+961568233+961990610+962207436+960936408
878+958073391+954045217+950328746+949207999+951132988+953741660+954829831
868+954616554+954051064+953050877+950903284+947439904+944139406+943553243
858+946524986+950584970+952167700+950162802+946741883+945326627+947648448
848+951964586+954871038+955004615+953686601+952395664+951139253+949319022
838+947243194+946224422+947034651+948778452+949844905+949662047+949056464
828+949001404+949405057+949434779+948846528+948136534+947423268+946716058
818+947235398+950363549+954880018+957287176+956203252+954105845+953427662
808+954005193+955267452+957673914+960317320+960763642+959495328+960256762
798+964161174+967801147+968356404+967224033+967132708+968259511+968806624
788+967693256+965251572+962284422+959651388+958594331+960425699+965144307
778+970692703+974206130+974294462+971765212+968178418+964634225+961715591
768+959723501+958763825+958685099+959089866+959729835+960630275+961200428
758+960330407+958424977+957463352+958039770+958416137+957284671+955702427
748+955670478+957970650+961547351+964974256+967983448+971021388+974150792
738+976729603+977861974+976670437+973217985+969853587+969496293+971579291
728+971854588+968348469+964882026+965451484+968564182+970399656+970760361
718+971261185+970265175+965788731+960940306+960491895+964158320+967168417
708+966621304+964494384+963748333+964367211+964451645+963409833+961922116
698+959923065+957123669+954375504+951642931+946615824+939105964+933541906
688+933294383+935787159+936371930+934484389+932077926+929003094+924338293
678+920488732+921516623+927184256+931949501+931399464+926321265+919432790
668+914212105+914290065+917699708+919646345+918497964+915116164+911142006
658+908437624+907679253+906972600+904432421+901334480+900112037+900837901
648+901565437+901142503+900496895+900844862+901100182+899070016+895338926
638+892343795+889765472+885254085+879616313+876745500+877581275+878458605
628+876276834+872231050+869038930+866969854+864372110+860457815+856396648
618+854409708+855303465+857976385+862041171+866975701+869409450+866645345
608+861328045+857486419+854744240+851349354+849599845+852694724+859207737
##END=
