##TITLE=<SNM>
##JCAMP-DX=4.24
##DATA TYPE=INFRARED SPECTRUM
##DATE=2/5/2025
##SAMPLING PROCEDURE=Instrument type and / or accessory
##ORIGIN=Admin
##XUNITS=1/CM
##YUNITS=ABSORBANCE
##RESOLUTION=4
##FIRSTX=4497.3318
##LASTX=599.83466
##DELTAX=-1.4281778
##MAXY=1.8257769
##MINY=0.3058382
##XFACTOR=1
##YFACTOR=1.7003873e-09
##NPOINTS=2730
##FIRSTY=0.32607123
##XYDATA=(X++(Y..Y))
4497+191762922+190448728+189789529+189935649+190440421+190778074+190879151
4487+191088789+191448597+191493272+190962807+190143482+189341176+188597234
4477+187935002+187476203+187386799+187836852+188814706+189890010+190368281
4467+189909692+189011953+188634443+189165645+190012206+190458701+190601509
4457+191035175+191804268+192128566+191384151+190097702+189441727+189778066
4447+190283048+190115912+189376545+188746142+188680066+189117622+189708520
4437+190145340+190289375+190149038+189917264+189943326+190481258+191449701
4427+192384299+192613164+191787547+190311126+188941250+188062877+187553637
4417+187126614+186666010+186415973+186723042+187448301+188014819+188166408
4407+188132651+188037814+187793824+187464793+187165050+186792974+186273498
4397+185860952+185898968+186314756+186546057+186210892+185728853+185816627
4387+186527443+187326244+187821183+187833820+187190850+186071537+185112664
4377+184796498+185098327+185691170+186128569+186043792+185439714+184634884
4367+183963713+183640361+183674749+183842165+183935337+183975105+184022235
4357+184018764+183958122+183952040+184040796+184171633+184364288+184621879
4347+184675037+184147691+183119675+182257340+182156386+182655531+183001475
4337+182715105+182093587+181713677+181718497+181901704+182138386+182292148
4327+182095393+181583540+181204839+181164563+181211359+181270600+181643324
4317+182360065+182947194+183039841+182760271+182387073+182091572+182049104
4307+182294199+182471885+182281667+182042900+182237763+182650624+182571034
4297+181734481+180606142+179863847+179895799+180633343+181575355+182080810
4287+181975264+181793687+182018783+182307695+182031753+181279994+180688465
4277+180652149+181203174+182159488+183073580+183513274+183543228+183608971
4267+183934653+184266628+184227912+183775352+183176410+182636234+182215416
4257+182002974+182064966+182294620+182525184+182773960+183298606+184227859
4247+185066200+185044923+184256971+183719880+183972143+184479614+184689409
4237+184688971+184571735+184100720+183298729+182648152+182480736+182664277
4227+182977113+183361563+183740684+183980030+184128377+184348198+184547407
4217+184442071+184073553+183874782+184106293+184535577+184776395+184682013
4207+184403828+184313267+184694545+185251967+185298413+184708706+184093499
4197+183835767+183713238+183593600+183711345+184141452+184560027+184609890
4187+184315861+184116792+184389631+184948788+185286214+185288177+185381560
4177+185947500+186812674+187409917+187443008+187233948+187252106+187543138
4167+187862546+188053536+188028998+187691345+187120760+186673126+186714366
4157+187207342+187615261+187419259+186752575+186229295+186147673+186262771
4147+186384495+186694894+187236857+187540106+187169187+186384390+185918300
4137+186197063+186936851+187504141+187608986+187528784+187629265+187886646
4127+188015187+187813857+187218665+186310024+185431441+184994551+185049006
4117+185300516+185532956+185700197+185737248+185595754+185340231+185027448
4107+184648502+184313407+184334212+184916364+185804569+186477492+186732962
4097+186799441+186823506+186666957+186299192+185883054+185445252+184989556
4087+184775256+184933540+185119114+185039332+184919273+185056368+185387764
4077+185755266+186061967+186014014+185351361+184479771+184218605+184736486
4067+185278835+185138323+184456776+183883738+183851138+184387318+185300779
4057+186270693+186852109+186654653+185719844+184633744+184043337+184131900
4047+184699294+185508121+186306553+186803963+186908335+186745915+186387650
4037+185891379+185493854+185404730+185610968+186078740+186771434+187368326
4027+187458641+187122092+186917414+187190920+187661023+187798346+187469788
4017+187046219+186888951+186983140+187153483+187304809+187364488+187316394
4007+187292750+187392863+187571742+187844161+188315175+188898695+189220364
3997+188892280+187931426+186932154+186576588+186897294+187351027+187645617
3987+188033082+188739586+189561943+190096703+190164076+190041827+190254742
3977+190923389+191492659+191451716+191080324+190989745+191163401+191045656
3967+190483519+190018218+190184390+190976127+192065171+193071402+193540331
3957+193193739+192398548+191951843+192365282+193629262+195303928+196586065
3947+196967623+196970340+197315986+197576609+196765557+195046407+193642074
3937+193464299+194734921+197176893+199851183+201306186+200808951+199325449
3927+198518726+198961435+199766633+200091265+200439872+201705236+203492460
3917+204143685+202534446+199439899+196653018+195299599+195510464+197319474
3907+201124083+206839848+212939713+217139814+218320032+216766896+213091214
3897+208596680+205591187+205805365+208570110+210648874+209724459+208175687
3887+209370120+212514828+214225846+214183396+214358155+213827479+210912477
3878+207966663+208232877+211552730+215890978+219992666+222432833+221721403
3868+219791283+219922138+221550605+221032530+217186470+213077263+212083915
3858+215795176+224533628+236020666+241768803+235221918+223649840+215179233
3848+211929609+213151068+216992343+221556406+226033132+230409763+233736137
3838+234127493+231581043+228285184+225387691+222457037+219632280+218096601
3828+218268732+219661725+222898940+229232156+236629967+239630517+237518505
3818+234716130+231925708+227061481+221517514+218784352+220340100+225318443
3808+230911310+234418437+236974876+241137663+245163163+244836604+241261315
3798+238357705+236322197+233863714+231842193+231852148+233996760+237662382
3788+242640199+248420901+253706892+258098473+263055556+269641579+276727711
3778+283087515+289848017+298970708+311221125+325833556+340226762+351117451
3768+357778646+361773351+364152682+366134751+369442862+373721746+376271437
3758+376283916+376972193+381993056+392446592+405738835+415946014+420625035
3748+424896208+433353968+444508084+452343258+455720214+460060267+469281599
3738+483517555+499744834+513327917+522090609+528331757+535311413+544254876
3728+554657268+564968206+573267104+578517848+580318655+578403468+574111824
3718+570562650+570287094+573696475+578810896+581498243+578709906+572420770
3708+566587576+563513097+564072727+567255627+569906272+569961236+569007183
3698+569305034+571330324+574872382+580267302+587447675+593475241+593040717
3688+585849688+578457345+575521293+576992772+580834644+585465781+591159532
3678+598339766+603365887+601006150+594457513+590096358+587437825+583153262
3668+578138849+574712643+572283115+569589984+567156776+566480066+568227592
3658+571288925+573445982+574582839+577639511+584495673+592640756+595643235
3648+590025900+579942635+570724353+564459929+560746179+558185060+556242952
3638+556067719+558735190+563620887+569905256+578453209+589076509+595579157
3628+591118239+581050889+574961979+576382384+583979825+593232180+598774219
3618+599776331+600290637+602440262+604209065+603653186+601829278+600147408
3608+598143676+596097809+596646608+601333200+607619918+611259460+611624438
3598+611882011+614283602+618270454+621965101+624250383+625680429+626980636
3588+627081660+624855057+621994826+620437045+619482537+617842871+616162333
3578+615707407+616093838+616132888+616345943+619200005+626271993+635133325
3568+639397101+634783280+625204752+617544916+614413160+614596630+616373636
3558+618826194+621244049+623040404+623717779+622658110+619967117+617254392
3548+616413246+617243174+617022898+613533595+608209589+604805957+604972181
3538+606435948+606170102+604355729+603339316+603850678+604397303+603730093
3528+602510439+602097158+602266186+601366221+599079466+597386589+597803095
3518+599169063+599139548+597222258+595040243+593777053+593004822+592113410
3508+591464919+591376724+591103026+589671578+587244259+585029960+583855069
3498+583155611+581586543+578889942+576593722+576390762+578569657+581992323
3488+585040511+586716002+586731846+584696951+580473487+575647697+572725421
3478+572571956+574068393+575776028+576673574+575820020+572907103+568994634
3468+565772755+564337452+564647185+565622200+566250255+566842450+568269166
3458+570045926+570586206+569335776+567129679+564552681+561672609+559226747
3448+558325064+558888094+559588044+559190186+557010344+553012344+548555423
3438+545974709+546486106+548880510+550582221+550006886+547873421+546014881
3428+545143063+544497412+543480157+542511942+542049551+541818022+541488133
3418+541260986+541312935+541404320+541287206+540881566+540095174+539090048
3408+538475524+538380073+537790717+535872305+533331237+531519178+530982683
3398+531472767+532475439+533320125+533479654+533006676+532218286+531201803
3388+530051730+528950733+527718635+526123031+524769683+524565566+525302042
3378+526007670+526516718+527198685+527503511+526510198+524659439+523453071
3368+523617262+524496896+525030446+524796359+524173106+523749729+523799120
3358+524221305+524660561+524718084+524402532+524144397+524093324+523653542
3348+522060077+519571694+517638875+517544686+519144742+521198811+522684381
3338+523273351+522788455+521120010+518814327+517151771+517109006+518117146
3328+518372827+516866820+514473328+512504579+511182498+510226307+509975254
3318+510879355+512319426+512965393+512449650+511851917+512143913+512958277
3308+513307516+512771792+511595885+510269493+509326762+509050646+509133512
3298+508941489+508211603+507382236+507192351+507886061+508890661+509395327
3288+509199588+508830194+508749641+508678867+508076752+507273780+507456584
3278+509233941+511745494+513604875+514369254+514524927+514474449+514208603
3268+513555380+512261377+510381980+508729309+507963073+507657406+507257726
3258+506927451+506539863+505364552+503546043+502416757+502769747+503849257
3248+504375060+503889638+502943087+502194728+501528991+500417337+498987642
3238+497973051+497628475+497370621+496494527+494936255+493333396+492350073
3228+492057726+492161169+492467748+492760340+492654408+491942821+490780164
3218+489532642+488602075+488029721+487271582+485954339+484652589+484203413
3208+484536597+484770334+484229598+483011662+481760319+480990858+480580066
3198+480080097+479400548+478844528+478619204+478671434+478844598+478879372
3188+478459395+477560972+476519180+475499612+474231514+472508175+470623344
3178+468988060+467637762+466497785+465746657+465575385+465838848+466049449
3168+465581870+464111863+462037709+460085575+458418603+456658072+454789612
3158+453356061+452670764+452490693+452509833+452526939+452137248+450992574
3148+449427292+448148047+447351174+446778258+446409670+446345137+446218558
3138+445516891+444359808+443367721+442859935+442581610+442132363+441365006
3128+440353886+439231085+438199563+437482577+437053417+436637120+436106409
3118+435512567+434721443+433608983+432559163+432052990+431881017+431434224
3108+430548175+429500739+428565230+428000482+428025475+428450429+428676244
3098+428302959+427482004+426575028+425752181+425018544+424424386+424051522
3088+423834645+423576370+423159794+422619268+422043443+421515887+421065729
3078+420631415+420152618+419609673+418893178+417919776+416997376+416680737
3068+417085781+417653123+417705809+417018163+415862587+414751249+414046917
3058+413650146+413187404+412508276+411717818+410816240+409767858+408840761
3048+408335429+407979530+407115109+405572471+403928003+402809233+402287251
3038+402010993+401687764+401347219+401222148+401367971+401406775+400823589
3028+399549952+398020285+396667708+395634714+394889756+394336856+393811227
3018+393139250+392277844+391423098+390925057+390934276+391178354+391261921
3008+391070494+390708040+390207755+389474820+388440004+387244502+386230717
2998+385606729+385186542+384644859+383915184+383182774+382624581+382233734
2988+381800472+381125025+380309609+379698765+379454652+379325900+378959345
2978+378380400+377975952+377917553+377805206+377117105+375884060+374673065
2968+373999440+373879066+373805629+373146306+371783949+370307703+369341452
2958+368892871+368580509+368206102+367816726+367434923+367017400+366563386
2948+366069306+365428246+364525827+363478532+362662099+362346687+362351735
2938+362232342+361766796+361108910+360523165+360107325+359773474+359434296
2928+359073034+358560060+357636819+356289851+354896962+353842025+353259610
2918+353135099+353309877+353516587+353663111+353819240+353835400+353424186
2908+352671376+352023586+351730573+351560703+351042647+349931554+348521769
2898+347451128+347087167+347204000+347320273+347152822+346655692+345871088
2888+344924151+344005152+343244034+342698951+342402432+342234175+341884551
2878+341171036+340277169+339545111+339189843+339228156+339476301+339652830
2868+339613816+339362902+338861356+338097083+337271571+336627181+336177549
2858+335798094+335412120+334979173+334477837+333956765+333502681+333174685
2848+332991951+332888438+332678432+332230202+331665944+331222131+330929259
2838+330605048+330160744+329720226+329407548+329175318+328897519+328544319
2828+328202792+327930040+327615820+327060712+326201549+325181244+324213415
2818+323474661+323067479+322953590+322939919+322810046+322472199+321973282
2808+321411478+320891213+320548705+320491567+320601530+320493390+319850262
2798+318792591+317777860+317130526+316774171+316428052+315943717+315380897
2788+314830591+314267140+313590185+312788265+312020942+311476841+311149300
2778+310837429+310381452+309827044+309306324+308805724+308174163+307388017
2768+306655923+306178704+305944721+305802439+305575152+305113812+304429461
2758+303728985+303168724+302676397+302113611+301443703+300700707+299985264
2748+299463211+299183624+298989672+298735709+298415670+297990085+297330902
2738+296446010+295578399+295004152+294788467+294736307+294596163+294300696
2728+293900840+293345592+292570925+291723137+291033756+290559622+290210138
2718+289877777+289454260+288887444+288267171+287745731+287376197+287080590
2708+286778235+286508305+286351528+286277793+286205127+286084157+285757861
2698+284999109+283909258+282970559+282518508+282437850+282421042+282263704
2688+281935462+281554622+281262013+281069954+280894353+280690394+280462476
2678+280180575+279793181+279335924+278923344+278590861+278257343+277871912
2668+277451462+277008192+276629911+276508030+276646229+276718194+276445302
2658+275917412+275375151+274910814+274521369+274238750+274083322+273986942
2648+273795287+273345076+272644250+271967646+271605368+271534419+271498700
2638+271331722+271046211+270734760+270501759+270364997+270211340+269975131
2628+269750052+269609172+269487869+269304925+269024776+268641588+268265060
2618+268069619+268013008+267810451+267323890+266783802+266521829+266628357
2608+266918530+267106943+266994421+266605589+266185998+265980935+266001721
2598+266060629+265988979+265739924+265348516+264918356+264621347+264587398
2588+264754393+264890313+264829513+264656751+264561879+264533100+264363265
2578+263996324+263660125+263553510+263599921+263629331+263618096+263618902
2568+263619428+263589072+263550741+263543905+263597625+263745095+263989524
2558+264248096+264374885+264283641+264055354+263853148+263711409+263519859
2548+263233523+262934885+262662553+262362635+262039073+261773122+261563712
2538+261309310+260984171+260704969+260580687+260573238+260528930+260317364
2528+259946427+259547080+259232614+259028357+258956988+259047005+259177685
2518+259107490+258795689+258505971+258444452+258500082+258497751+258477665
2508+258519940+258510178+258309531+258004197+257795295+257759593+257823601
2498+257856744+257757560+257566921+257468543+257554232+257648140+257494290
2488+257070002+256591100+256234850+255986110+255764309+255570392+255441851
2478+255349976+255216597+255005154+254764493+254584966+254502082+254444384
2468+254325027+254181114+254132670+254187301+254194382+254036851+253767815
2458+253521546+253381297+253332625+253264937+253058278+252739852+252475933
2448+252377994+252413906+252491813+252512740+252379589+252061512+251630213
2438+251211937+250942953+250923656+251108371+251261923+251153345+250815095
2428+250512758+250430890+250479370+250444456+250255640+250070329+250097514
2418+250343730+250600462+250708304+250707113+250689691+250675372+250672778
2408+250731668+250908653+251217458+251563717+251757247+251698813+251525701
2398+251498202+251784151+252417254+253471735+255267249+258368228+263381905
2388+270836678+281254231+295202415+313132666+335076587+360502308+388578886
2378+418619936+450048686+481784857+512117097+539747478+564463645+586061902
2368+603421131+615558570+622702768+625560195+624494356+619868827+612212006
2358+601526696+586881244+566566123+539755400+510403363+486657654+474664811
2348+476067970+489127914+508616787+526660332+538080014+543202498+544637766
2338+544689821+544664652+544883702+545308621+545762845+545559920+543723254
2328+539778360+533907518+526520574+518007989+508678412+498717624+488256167
2318+477502082+466793637+456461211+446510099+436481027+425857271+414600133
2308+403068945+391536075+380079061+368882600+358348442+348784075+340093068
2298+331940484+324196835+317003246+310405744+304219910+298311000+292746912
2288+287640904+283056756+279064504+275705444+272903068+270525788+268516324
2278+266870770+265515423+264294455+263098515+261940625+260876399+259907097
2268+259011847+258227733+257625198+257199998+256825310+256333999+255669909
2258+254954939+254358047+253907030+253500917+253073597+252628767+252162344
2248+251689699+251296188+251047570+250910826+250807944+250668203+250438830
2238+250133776+249832754+249587046+249390834+249235038+249113192+249009749
2228+248928214+248874547+248808997+248682156+248518333+248428701+248518175
2218+248749949+248944900+248997760+249029186+249214882+249554358+249904456
2208+250135704+250191475+250107293+250014366+250041831+250220499+250521819
2198+250909582+251310630+251638942+251891292+252135949+252396379+252626453
2188+252793063+252929667+253104900+253336323+253540545+253624989+253619013
2178+253630388+253690207+253723700+253644356+253433439+253168311+252972748
2168+252891809+252854617+252797778+252739799+252690093+252585213+252389018
2158+252177487+252052223+252030052+252064510+252104996+252125170+252184007
2148+252419742+252914103+253691819+254900308+256761162+259283389+262251690
2138+265511760+269071941+272957647+277144147+281636595+286526761+291926974
2128+297849730+304207922+310911882+317877868+325014389+332294911+339707970
2118+347055163+353918512+359823741+364394131+367471659+369091555+369251399
2108+367830678+364800893+360395465+355091159+349411639+343597549+337527042
2098+331062217+324320469+317567434+311037269+304872327+299128940+293829927
2088+288987574+284593749+280686328+277354714+274567868+272118762+269828660
2078+267701171+265860017+264403244+263292168+262386857+261617589+261043587
2068+260713400+260534784+260304780+259910042+259493378+259260394+259161035
2058+258997247+258735537+258460314+258212678+258064734+258116491+258326409
2048+258532033+258626012+258640700+258724250+258973656+259255679+259376614
2038+259406392+259595962+260042930+260622365+261166870+261630506+262112282
2028+262697151+263312850+263849257+264341970+264932377+265702522+266543054
2018+267127887+267146834+266644411+265986894+265502681+265296549+265304068
2008+265365236+265314514+265094763+264765960+264428640+264166860+263985738
1998+263827156+263787265+264183195+265104420+266013324+266198530+265586126
1988+264708788+264051796+263783865+263873742+264155835+264395847+264452739
1978+264352679+264210414+264125689+264150648+264369452+264945522+265892722
1968+266790918+267058534+266666039+266208169+266123515+266275297+266421611
1958+266636682+267038957+267498824+267844575+268087006+268338918+268726979
1948+269445630+270745100+272640044+274467790+275075689+274046779+272367660
1938+271274812+271054448+271269747+271553558+271841436+272126772+272342982
1928+272612842+273437758+275139521+277129214+278520911+279451864+280563991
1918+281404628+280946425+279567628+278787757+279350734+280680176+281771026
1908+282140192+282036679+281957178+282110309+282407932+282810364+283484988
1898+284594047+285915777+286901379+287505071+288478053+290070572+291137497
1888+290620387+289137656+287883457+287175235+286818004+286735488+286814639
1878+286847536+286781040+286797129+287461938+289687138+293672256+297572737
1868+298421279+295657305+291827772+289266355+288368616+288444524+288782563
1858+288971082+288921008+288790906+288774151+289067321+289942626+291675026
1848+294543127+298537762+302253510+302943715+299973065+296226890+294260700
1838+294143341+294648743+295204027+296672316+300023157+304286617+306826319
1828+306759577+305813936+304884456+303195084+300813124+299133743+298885458
1818+299448629+300030203+300764960+302336342+304673013+306530572+306818291
1808+305966034+305389087+306249337+308892586+312540051+315420262+316203499
1798+315592235+315760738+318343274+322798828+325858059+324480033+320328358
1788+317405276+317288232+318922499+320945862+322970240+324691336+325572863
1778+326138838+328153962+332946346+339670918+344746219+344984373+341586701
1768+337547373+334576372+333846627+335879699+339105749+340989668+341464399
1758+342132169+343083243+344033510+346489363+351887438+358660769+362949293
1748+363192354+361479321+360225911+360489724+362273495+364591202+366091775
1738+367413645+371265262+378267528+383483815+381822836+376272874+371242337
1728+367796255+366232095+366697746+368497046+371501943+377267835+386864696
1718+397388234+402084431+398539288+391678323+386200747+383930082+385345895
1708+390039393+396135770+401268173+405777324+412292977+420719855+426338206
1698+426658070+423719003+418111274+411309374+407335070+407948718+411817545
1688+417925174+427367659+439303260+445862694+441658229+433778011+429388463
1678+430210504+434904282+440238524+443921603+447399969+452089225+455113962
1668+453362160+450106104+450318985+454307240+458257426+459325684+459522685
1658+462809273+471809557+487127442+503702452+509016608+504451091+503295901
1648+508158497+512534865+510481077+505516510+503510955+506249550+513771415
1638+525666949+538730328+545535173+543685711+540838029+542980819+550171638
1628+559591269+569272854+579657510+590673690+600011120+607128467+615280455
1618+626759307+638511718+645255674+648072018+651459175+656576084+661792617
1608+665644653+668287552+670714802+673381117+675847696+677661368+679254973
1598+681676053+685541551+690393806+695140971+699101744+702303327+705005116
1588+707562975+710432320+713765213+717258231+720676655+724491325+729833980
1578+737214229+744526404+748306931+749904112+753986030+761816928+770456511
1568+777038099+783084700+791528123+803306473+818995961+840384948+865348769
1558+880211833+879381765+874697626+872217306+871731042+872091043+871875113
1548+870804086+870949418+874368333+881008881+888808090+891599056+881200204
1538+863513644+851758359+848600243+848777123+845966528+840194117+836479069
1528+837161071+840490459+844304919+848530767+852558843+853920674+852337374
1518+849767247+846243521+841415032+837288456+836274987+839409968+846797158
1508+855867059+857788064+847399799+834822788+828272187+827773936+830815884
1498+834186285+834417148+831054108+828255361+830031456+836160642+841553143
1488+840536800+833786043+826509483+822119865+820723891+821115650+822837972
1478+826182994+831047028+836507042+840280068+838697539+831381719+823817018
1468+820886260+822749076+825643239+825935796+825362320+828638357+837440168
1458+847381150+849067157+840586857+830526903+824182978+821844274+821972429
1448+822113695+820383591+817319839+815024672+814944679+817284786+821422860
1438+825622908+826871096+824170078+820892429+820008308+820897056+821083541
1428+819554855+817733892+817103418+817838001+819829394+823116157+826026795
1418+825050904+819776744+813863908+809958239+808060509+807104878+806452882
1408+806183951+806411449+806762405+806930662+807359367+808535625+810162741
1398+811721644+812977052+813134513+811128818+807943149+806318346+807361891
1388+808955286+808131878+805429037+804414096+806941529+811795817+817093814
1378+822267160+827553449+832516894+835862617+837005153+837076312+837550166
1368+838903795+841092820+844158745+847559222+849691741+849315196+847267576
1358+845666049+845844752+847349672+848507001+848078155+846384717+844804152
1348+844429079+845330726+847076324+849602214+852959014+856307472+858082795
1338+857701272+856344488+855418793+855224597+855575553+856744449+858911040
1328+861323848+863239175+865257489+868529950+873051230+877572019+880840344
1318+882623659+883899399+886122145+890003347+894837024+899195234+902417429
1308+905018544+907573669+910026227+912351049+914880936+917581813+919907828
1298+921592152+922814610+923520800+923216114+921623700+919240759+916976929
1288+915219904+913613749+911840389+910004423+908376325+907225727+906549403
1278+905770232+904296931+902571244+901872766+902965246+905218840+907054034
1268+907570514+907712340+909104879+911787248+913945566+914142147+913140666
1258+912893959+914151331+915991363+917676388+919712369+922398665+924642794
1248+925268571+924515339+923312932+922000456+920557301+919352369+918846476
1238+918843111+918617787+917724271+916343932+914964924+913902170+913037048
1228+912083310+910958371+909771808+908791640+908545494+909316181+910381249
1218+910691613+910490546+911127680+913051069+915085438+916007978+915975098
1208+916023051+916924980+918875781+921549948+924116219+925830339+926843247
1198+927983890+929825184+932335440+935218316+938171089+940822260+942717256
1188+943691325+944329019+945628876+947945356+950577669+952526577+953389806
1178+953659298+954458380+956783273+960601728+964495268+966495215+966023534
1168+964521979+963563685+963586329+964587039+966479721+968443142+969667002
1158+970914138+973778575+978466710+983087822+985435500+985503083+985748178
1148+988118711+991546178+993382915+992623585+990598400+989185391+989642139
1138+992443129+997070691+1001848283+1004691898+1005000300+1004379010+1004629713
1128+1006163938+1008916975+1012796143+1016491841+1018112158+1017701190
1120+1017389704+1018712135+1021194769+1023710844+1025752294+1027190892
1111+1028024676+1028635310+1029286465+1029501904+1029012626+1028724275
1103+1029424926+1030191618+1029753378+1029236759+1030975276+1034377575
1094+1036059796+1035067009+1034427141+1035976298+1037615333+1037019843
1085+1035245291+1034257552+1033821415+1033027872+1032209231+1032111151
1077+1033584593+1037941682+1045338476+1053303278+1058352114+1059133107
1068+1057465679+1056832682+1059332562+1063199882+1064875163+1064046426
1060+1063987466+1066728655+1070915033+1073741823+1073486002+1070896875
1051+1068608228+1068622810+1070087138+1070102912+1067278786+1063902706
1043+1063364985+1066368585+1070684801+1073264113+1072225896+1068120422
1034+1064084564+1063441682+1066202571+1069083905+1069180232+1066550583
1025+1062819972+1059095039+1056002193+1054025662+1053582445+1055440424
1017+1060179737+1066307311+1070162223+1069660185+1067024367+1065675295
1008+1065727385+1064667996+1061894487+1059850724+1060409969+1062332377
1000+1062669312+1060065953+1056102236+1052972092+1050957283+1048918988
991+1046312895+1044320170+1044084189+1044534487+1043365521+1039788514
983+1035609988+1033555919+1034704204+1037564015+1039685246+1039711116
974+1037803991+1035118257+1032851132+1031078403+1028826772+1025547651
965+1021821667+1018645953+1016895238+1016977333+1018207573+1019017872
957+1018365875+1016361793+1013223587+1008580110+1002584337+996771334+992786514
947+990469613+988364436+986092754+984437314+983053960+980487759+976765630
937+973780749+972916959+974107027+976400442+978144427+978180743+977409634
927+977753580+979521051+980813126+979703400+976654581+974280402+974357380
917+975806424+976357817+975587410+974727405+974166408+973110384+971020631
907+968210456+965602681+964601621+966161855+969290597+971655170+971827283
897+969932498+966541065+962497145+959529299+959105992+960618554+961988097
887+962205779+961923879+961495945+960151149+957841540+956451105+957613551
877+959942931+960215718+957701676+955245893+955180693+956511117+957318470
867+957798003+958786724+958997256+956098466+950559161+946308635+946429990
857+949716893+952402838+952820607+952221681+951215784+949118809+946440717
847+945276798+947124892+951162082+954428233+954576440+952614211+951216906
837+951017311+950596458+949506362+949029633+950262187+952996365+956123494
827+958150852+957778794+955129725+952307773+951581112+953050067+955060810
817+956727537+958713462+961349491+963505145+963704670+961799649+959612026
807+959599757+962480179+965935269+966216469+962448000+958532235+958701754
797+962417924+965779561+967143565+968244738+969760385+969762558+967347297
787+964679440+964548269+967312383+970344728+970689094+968383340+966147764
777+965840134+966391106+965625325+963652651+963089830+965495487+969282675
767+971746941+971916600+970570473+968755609+967261135+966444878+966169216
757+966171250+966590420+968010230+970561359+973239942+975011760+975937735
747+975923854+974190805+971201717+969117783+969628373+972534805+976139153
737+977963411+975886487+970843540+967149244+968009178+971539423+972464908
727+968667695+963898797+962275676+963668214+965879043+968350179+971231723
717+972831077+971312206+967788832+965049816+964055556+963574972+962903976
707+963204175+965975090+970691057+973622727+970665608+963131264+957609135
697+957952940+960701210+960729323+958399102+956982727+956303670+953142539
687+946839766+941321283+940414447+942915519+943550900+939659954+934614553
677+932623931+933898199+936433203+938769453+938966664+934515212+928032124
667+927420790+930594049+928524206+920108264+912600841+911910496+915670552
657+917603547+915390685+911441269+907886907+904726057+901116801+897575829
647+896482929+899673996+906057321+910962858+909426740+902064649+895635194
637+896000943+901381876+904725075+902658948+896894388+890768426+887763143
627+888500600+888715759+883294584+874328372+869541667+872076110+877028338
617+878351120+875989911+874158502+876130756+881623440+886433351+886712167
607+885289132+888501161+896699490+902345709+897560055+882663059
##END=
