##TITLE=<SNM>
##JCAMP-DX=4.24
##DATA TYPE=INFRARED SPECTRUM
##DATE=2/5/2025
##SAMPLING PROCEDURE=Instrument type and / or accessory
##ORIGIN=Admin
##XUNITS=1/CM
##YUNITS=ABSORBANCE
##RESOLUTION=4
##FIRSTX=4497.3318
##LASTX=599.83466
##DELTAX=-1.4281778
##MAXY=1.8610827
##MINY=0.39575988
##XFACTOR=1
##YFACTOR=1.7332683e-09
##NPOINTS=2730
##FIRSTY=0.40586585
##XYDATA=(X++(Y..Y))
4497+234162158+234856309+237028344+238714296+238773393+237810220+237028860
4487+236824952+236890875+237191741+238044819+239251119+240047197+240139806
4477+240046062+240355680+241284671+242647009+243689636+243529437+242151968
4467+240395244+239039130+238496186+238912288+239897555+240567583+240346739
4457+239524353+238874718+238846795+239147678+239249331+239151254+239189941
4447+239367920+239500126+239673875+239974208+240138980+239907339+239421652
4437+239077852+239054708+239033611+238532518+237594397+236867061+236872082
4427+237475086+238131478+238398041+238132836+237380672+236275371+235122288
4417+234466944+234830501+236234139+238056838+239485958+240180419+240414364
4407+240544456+240522637+240019669+238893598+237435023+236076158+235020188
4397+234371705+234363160+235076482+236106867+236890600+237235466+237215349
4387+236773404+235806947+234488093+233134335+231856558+230674984+229868417
4377+229849985+230707808+232016431+233098158+233590001+233766604+233982254
4367+233942054+233158046+231973531+231360245+231737007+232578891+233184972
4357+233479442+233928969+234789406+235673777+235904078+235134427+233646966
4347+232174034+231296059+230926244+230576323+230042010+229529517+229242699
4337+229136387+229036041+228909474+228949949+229295486+229830607+230386292
4327+230857811+231004822+230555174+229665455+228924536+228821009+229386564
4317+230313629+231198430+231611419+231176473+229940736+228662358+228331574
4307+229202895+230521318+231395751+231771292+232293225+233271133+234124417
4297+234069137+233126133+232061480+231458356+231315712+231469343+231829684
4287+232180413+232229503+231864743+231142376+230285447+229817229+230235498
4277+231347745+232286605+232372886+231723389+230948803+230502989+230445062
4267+230738551+231486812+232615566+233609482+233925496+233524697+232832317
4257+232303473+232083506+232037477+232069665+232261880+232679959+233223935
4247+233687613+233873930+233780823+233615088+233444623+233129607+232706180
4237+232316575+231779012+230861387+229902926+229552454+230016236+230984859
4227+232040159+232824511+233112430+232977558+232730372+232614173+232683931
4217+232921212+233303303+233773430+234263759+234730808+235016869+234713837
4207+233550471+232044974+231276664+231710957+232665980+233219189+233189598
4197+232934761+232705114+232586852+232621447+232646206+232465598+232347112
4187+232759052+233537490+233948743+233718185+233381400+233404114+233550953
4177+233457932+233365547+233804036+234817433+235933067+236702770+236893626
4167+236427799+235607631+235074780+235085578+235176639+234904728+234484259
4157+234317956+234306143+234043088+233527551+233316096+233842774+234788976
4147+235423996+235413593+234983960+234510240+234203769+233996302+233664349
4137+233264685+233199519+233590861+233994841+234015439+233818083+233867826
4127+234431163+235247995+235549721+234754553+233236968+232014987+231756505
4117+232427271+233643544+234925843+235725102+235690095+235069209+234605616
4107+234784007+235270898+235452315+235289055+235085423+234818860+234375746
4097+234015611+234033631+234320827+234586393+234676440+234551987+234250778
4087+233887737+233590001+233509325+233779603+234312316+234836106+235237919
4077+235616142+235956847+236047822+235782136+235291462+234690780+233926906
4067+233049172+232389289+232170268+232154501+231985034+231667335+231515527
4057+231834584+232699044+233815384+234655170+234936589+234808234+234453774
4047+233925187+233473699+233487919+233918326+234294520+234426331+234531922
4037+234665487+234643822+234551145+234756376+235392444+236154117+236597489
4027+236498312+236005197+235516450+235355459+235536068+235850122+236170314
4017+236630107+237373261+238079929+238110140+237354485+236574827+236619635
4007+237500035+238415958+238633018+238170922+237545514+237065002+236723712
3997+236648677+237124924+238077901+238944510+239202958+238831011+238265593
3987+238013388+238281464+238937478+239658142+239980655+239578670+238893942
3977+238994081+240217163+241478932+241587651+240745853+240050361+240122577
3967+240888342+242140362+243607963+244716634+244965762+244595432+244323676
3957+244357136+244221542+243667370+243339423+244286347+246716829+249313666
3947+250378302+249804735+248818487+247930849+246595712+244809329+243580917
3937+243733757+245449988+248565955+252166543+254326765+253858582+252082652
3927+251204935+251686255+252302429+252296841+252384119+253386117+254878736
3917+255356686+253600633+250122021+246884972+245586597+246729897+250129707
3907+255553389+262311966+268530471+272097273+272748799+271389951+267974838
3897+262698253+257954279+256621876+258941111+261670465+261774180+261069043
3887+263012771+267030441+269561304+269971800+270268161+269685446+266403176
3878+262853948+262918254+266867113+272196019+276786535+278937386+277378396
3868+274218223+273004908+273756247+273318635+270237521+266718245+265484950
3858+268028794+275401517+287115352+295704383+291484388+279238785+268548525
3848+263205004+263273041+267351407+273560335+280185537+285873615+289098920
3838+288532747+285084964+281287158+278171277+275288757+272841837+271831105
3828+272294371+273454006+276051410+281853624+289218180+292391249+290095364
3818+286945043+284317772+280076215+274857954+271775327+272534506+276782975
3808+282164617+285775384+288091730+291704200+295791180+296771289+294737032
3798+292355347+289748590+286207373+282986951+281793960+283020910+286327665
3788+291302678+297009808+301922114+305566032+309475326+314988195+320901415
3778+325194280+328463946+333246608+341437487+353187826+366432418+377987980
3768+386992768+395085468+403019843+410627045+418593780+427139000+434278826
3758+438156449+440264091+444036450+451770443+462685827+472171368+476869295
3748+480345741+487144502+496255104+501704250+502216675+503702502+511301279
3738+526376960+545566340+561131199+567005457+564929349+561671306+562290988
3728+567274685+573484782+577544802+579178122+579629850+578706310+576012859
3718+573083674+572744155+577197958+585860030+593283356+592899924+585934516
3708+578595029+574707159+575214803+578377005+579591885+575690019+569942207
3698+567858122+570911656+577029936+584622316+593742031+602701427+606556250
3688+603237820+597046087+591933948+589100054+589232381+592955358+600387901
3678+610205842+617243466+615915929+609743315+605106565+601473548+594835520
3668+585988712+579163128+575896041+574980066+574986291+576016813+578864842
3658+582645867+584871977+585308231+587145132+592436159+598669365+599460165
3648+592017100+581710084+574232562+570883629+570136469+569655888+568056269
3638+565977616+565133686+566527215+570229111+576421808+584618877+590596301
3628+588798879+581728654+576000926+574746327+577993435+583526696+587794663
3618+589335684+590300215+592668282+596095380+599491253+602234843+603465885
3608+602423705+600392165+600355644+604359026+611704015+619039788+623155345
3598+623973793+623191040+621313630+618323749+616074735+617577654+623807903
3588+631150897+633801088+631146152+627703923+626693861+627562242+627833018
3578+626281061+624238516+623876405+626023628+630694217+638018366+646388961
3568+650923096+647998690+640784928+634657776+631106949+628691838+626197841
3558+624108528+624101581+627095451+631365963+634084587+635559514+638291687
3548+641594848+641646225+637170413+630930329+625613372+622276785+621345198
3538+622100441+622620946+622184486+622339716+624425040+627509971+629237516
3528+627997189+624266784+620429293+619093778+620359622+621409711+620227569
3518+618369073+618162397+619177205+619421914+618441358+617253232+616351151
3508+616108092+617645193+620803372+622701003+620805504+616674747+614008325
3498+614027789+614419131+612493577+608592398+605384562+604388875+604813643
3488+605717512+607343955+609513118+610681573+609917597+608472519+608097890
3478+608781535+609300528+609086837+608279324+606734727+604529112+602876878
3468+602775638+603077913+601847283+599469382+598363101+599833006+602582374
3458+604052417+602908171+600259838+598203125+597640597+597978568+598129190
3448+597205100+595037518+592453491+590578969+590025451+590678490+591612209
3438+591641164+590581101+589158858+587748445+586410660+585591387+585810373
3428+586979860+588233874+588469298+587583311+586921537+587475193+588239858
3418+587509307+584978238+581672326+578565111+576068396+574671463+575168894
3408+577438747+579417741+578726737+575422544+571578244+568715498+567223412
3398+567148101+568324844+570228733+572013054+572705846+571793861+569535012
3388+566616969+563992776+562710769+563175566+564472050+564862738+563581420
3378+561953636+561826054+562968340+563348231+562163131+560808806+560517809
3368+560899420+560939310+560313197+559609951+559474907+559676940+559480168
3358+558722381+557826834+557111792+556632587+556299258+555932264+555392397
3348+554666454+553987383+553823727+554294645+554801808+554903391+555109070
3338+555827894+556267930+555692781+554928701+555349927+556818801+557775457
3328+557455368+556779667+556621789+556522062+555738209+554600600+554090377
3318+554501836+554989707+554521403+553119896+551784175+551330899+551754394
3308+552433844+552637665+552238861+552064958+553039874+555014501+556766118
3298+557040057+555675553+553800515+552587389+552070804+551873929+552394779
3288+554026758+555848906+556445857+555728958+555011922+555478919+556934691
3278+557941382+557292917+555404020+553867298+553754813+554866527+556281445
3268+557036343+556651466+555600414+555045863+555557394+556203314+555515508
3258+553456079+551786066+552100928+553901961+555208728+555118045+554647059
3248+554658235+554621921+553932395+552756340+551244652+549458372+547925948
3238+547072904+546590639+546247475+546422994+547098352+547420298+546733420
3228+545212551+543503025+542447021+542727803+544050285+545235660+545606162
3218+545489723+545073965+543910771+541960319+540119326+539238359+539108577
3208+538711113+537353830+535383846+533723462+532915055+532898480+533500796
3198+534580116+535704141+536202913+535678109+534278219+532546478+531004116
3188+529682769+528257224+526992928+526970472+528435288+529736415+529229046
3178+527410749+525736197+524330976+522434480+520288633+519067116+519236514
3168+520020642+520388635+519958640+518878769+517335100+515622549+514377200
3158+514047964+514191708+513809204+512410552+510447582+508790947+507973840
3148+507798251+507550894+506647437+505050225+503181412+501666045+501036390
3138+501381995+502128812+502213923+500962145+499058255+498049156+498533210
3128+499477314+499568547+498514193+496785926+494988951+493753025+493403946
3118+493485757+493201294+492459911+491974894+492196494+492665898+492639626
3108+491946489+490988079+490263890+489986890+489852362+489228691+487822025
3098+486015043+484456036+483549313+483359694+483678270+484091414+484226149
3088+484016653+483645257+483274273+482964328+482763602+482668999+482528694
3078+482207779+481848006+481754847+481963483+481977754+481083307+479232892
3068+477467794+476904509+477420201+477888436+477552150+476519117+475105952
3058+473501312+472038112+471159002+471013057+471378780+471933330+472316419
3048+472048497+470889740+469343594+468215580+467599165+466903518+465900334
3038+465150113+465301491+466279640+467164940+466994648+465875506+464798937
3028+464193044+463446296+462053765+460397094+459147620+458569307+458462840
3018+458413011+458236735+458173460+458269989+457966578+456891419+455547238
3008+454583773+453966016+453387360+452872047+452436928+451729933+450552468
2998+449355470+448701021+448494036+448212565+447712143+447305085+447100163
2988+446727976+445862415+444720164+443783350+443154658+442530161+441805628
2978+441228966+440839997+440356287+439769480+439410188+439339313+439315516
2968+439293164+439354685+439298047+438738888+437546671+435997740+434582134
2958+433627472+433012157+432393954+431652605+430854274+429973616+428997462
2948+428153325+427762396+427914050+428323136+428526338+428373137+428226023
2938+428363233+428322448+427355338+425521945+423743780+422717247+422329687
2928+422167201+421978752+421546728+420729621+419738611+418855993+417969008
2918+416894056+415891903+415319196+415127480+415154956+415422258+415754762
2908+415668687+414998454+414165665+413649561+413576692+413779894+413912393
2898+413650593+413041537+412409062+411815790+411009103+409948249+408937981
2888+408203200+407736754+407539294+407585169+407559687+407047538+406052298
2878+405000488+404199200+403603418+403116303+402783353+402633178+402550886
2868+402373338+402035333+401625868+401318365+401207771+401230674+401238377
2858+401035931+400368690+399125198+397640506+396560051+396267610+396557816
2848+396888359+396837704+396332123+395559480+394719677+393862438+392977620
2838+392146757+391466448+390896904+390333585+389803932+389496979+389523080
2828+389607298+389213996+388202421+387116051+386514010+386310395+386047667
2818+385477469+384664970+383854431+383341044+383216592+383233855+383039456
2808+382474589+381680144+380979408+380539475+380145141+379492962+378621348
2798+377843410+377415582+377403511+377643887+377752246+377382328+376538501
2788+375557979+374827256+374530345+374568138+374641798+374406408+373627988
2778+372368575+371040935+370096521+369614290+369324395+368992029+368614855
2768+368258933+367865700+367304890+366572414+365847846+365290717+364814847
2758+364186740+363397247+362791217+362657823+362777461+362589459+361808322
2748+360725391+359867877+359454939+359246407+358903828+358394774+357916875
2738+357528422+357098186+356576752+356063847+355637634+355308329+355075553
2728+354882496+354599753+354170170+353685601+353258563+352886926+352460851
2718+351877587+351169629+350506273+350024970+349656703+349168523+348453550
2708+347737682+347327186+347162189+346862596+346248072+345552838+345078895
2698+344876002+344803992+344711074+344507253+344171345+343721818+343165032
2688+342502399+341805411+341209525+340770417+340407480+340068925+339816478
2678+339632396+339332837+338829870+338291344+337914652+337718706+337624412
2668+337561722+337459691+337261337+336988774+336729690+336510944+336206089
2658+335655012+334906889+334231084+333845072+333731659+333721308+333617282
2648+333249875+332563754+331687739+330856911+330270104+330015766+330042279
2638+330152942+330129970+329938048+329721675+329569402+329406159+329153678
2628+328833314+328476601+328094235+327749145+327504161+327273207+326872924
2618+326293648+325805640+325678333+325848076+325966888+325759147+325255216
2608+324696195+324286077+324058837+323949619+323905774+323845353+323585994
2598+322985398+322160759+321423984+320969814+320730160+320557117+320442121
2588+320465540+320568259+320504571+320123201+319636569+319448325+319684334
2578+320024953+320021480+319482645+318597174+317804964+317471257+317551967
2568+317653138+317465548+317009659+316459579+315944266+315562656+315399345
2558+315419668+315437825+315296660+315064331+314957933+315056353+315192291
2548+315156974+314910167+314567588+314270918+314073321+313902685+313674413
2538+313455633+313402262+313494733+313495593+313254701+312907720+312689008
2528+312696230+312872575+313058342+313071822+312864872+312545917+312208634
2518+311881186+311642564+311562301+311528290+311372682+311154486+311082133
2508+311169755+311184955+310969201+310656093+310488311+310504198+310528167
2498+310445703+310326409+310255087+310223209+310202095+310139507+309905046
2488+309452939+308999526+308830024+308970227+309193477+309291141+309242894
2478+309164660+309137149+309123118+309072739+308995674+308864929+308616678
2468+308330771+308228809+308397038+308640990+308693605+308501682+308232420
2458+308024231+307842831+307608129+307332264+307080540+306894463+306760657
2448+306610826+306417734+306285991+306332141+306518183+306722589+306897489
2438+307053166+307162660+307175727+307102823+307006226+306884181+306644939
2428+306258824+305854208+305604134+305591101+305786463+306089392+306403566
2418+306685449+306873692+306866196+306678984+306509173+306524064+306698929
2408+306912379+307079886+307165823+307170087+307140341+307140513+307182227
2398+307240378+307350318+307594167+307929250+308141084+308085890+307894311
2388+307779350+307654141+307077445+305618234+303171108+299879879+295920893
2378+291467056+286742374+281967037+277263418+272686057+268341093+264392699
2368+260924593+257933732+255527202+253963450+253460379+254134137+256096333
2358+259438663+264212881+270654809+279139694+289129836+298365819+304163631
2348+305356090+302907141+299279145+296609147+295075966+293795610+292484992
2338+291386621+290439353+289200401+287489896+285797702+284827291+284758256
2328+285178037+285591972+285812283+286016706+286557810+287652124+289235924
2318+291052433+292761030+294061124+294905364+295600942+296586863+298037580
2308+299680907+301031484+301806706+302105062+302229892+302419545+302740528
2298+303156080+303597836+303963971+304162496+304201940+304163425+304108059
2288+304089420+304167998+304328524+304475707+304534649+304459167+304209127
2278+303830062+303452131+303127709+302799677+302484574+302332852+302423087
2268+302600395+302624673+302444718+302228723+302121912+302090928+302057261
2258+302050693+302112146+302162284+302112489+302001724+301884321+301723555
2248+301528055+301419112+301455874+301567018+301695287+301837725+301962624
2238+302040480+302107916+302205923+302315760+302384056+302363457+302264659
2228+302212285+302364214+302705624+302991083+302975952+302692006+302413390
2218+302346091+302429483+302460227+302336737+302149045+302083259+302259535
2208+302621544+302974336+303136272+303034894+302694482+302242616+301911901
2198+301871116+302046395+302249906+302425907+302612603+302785027+302909617
2188+303014365+303086271+303053533+302915016+302742626+302575394+302419167
2178+302299701+302258744+302324701+302464457+302576598+302598950+302566350
2168+302507649+302423328+302413424+302633889+303062887+303484938+303752722
2158+303904719+303992960+303968854+303822909+303688484+303669914+303682535
2148+303611178+303543639+303697253+304126457+304609720+304875922+304894492
2138+304850302+304866293+304891053+304863336+304835378+304895007+305064956
2128+305308014+305586012+305885399+306191904+306473753+306720525+306957566
2118+307183877+307343750+307395470+307380408+307419611+307653281+308134928
2108+308734631+309181063+309270852+309066274+308861662+308921464+309254139
2098+309655075+309940638+310111206+310309697+310649731+311078281+311399264
2088+311454355+311297681+311174432+311294139+311618354+311913924+312023452
2078+312019084+312073521+312271840+312585292+312934336+313232623+313448893
2068+313641056+313842986+313962624+313915959+313788068+313711656+313682185
2058+313632218+313587032+313619048+313730604+313876790+314057365+314306028
2048+314597197+314862333+315139126+315545015+316001042+316201562+316015691
2038+315693195+315531500+315556913+315624349+315644570+315637382+315656571
2028+315731745+315885702+316140694+316454730+316775645+317214305+317914629
2018+318651267+318910213+318540192+317969582+317651281+317641790+317758298
2008+317845921+317855962+317846677+317919065+318095719+318281693+318329424
1998+318213810+318296824+319181126+320888623+322417126+322724904+321960171
1988+321044437+320505087+320322208+320372140+320522178+320614305+320614889
1978+320606430+320630605+320666679+320697938+320815065+321294098+322301753
1968+323398095+323754051+323129039+322193154+321678735+321679422+321893491
1958+322160656+322540753+323033095+323444623+323595623+323576881+323684415
1948+324183359+325283656+327034172+328809689+329350794+328134332+326188694
1938+324817622+324358706+324480854+324837498+325175194+325340431+325388954
1928+325619838+326525290+328313806+330278357+331433745+331941423+332559661
1918+332872666+331871786+330065973+329053229+329478272+330628536+331419989
1908+331307848+330555598+329821677+329482158+329465892+329644747+330120788
1898+331056605+332229187+333021810+333352525+334111824+335720110+336929797
1888+336381815+334670054+333330791+332948321+333227109+333787024+334305982
1878+334554681+334607330+334853861+336013376+338993594+343881106+348637563
1868+349990926+347205003+343053785+340256171+339359247+339529093+339879891
1858+340010774+339933674+339842166+339949080+340554388+342007788+344448139
1848+347915231+352359061+356446832+357220300+353769922+349244418+346693267
1838+346372112+346931889+347631490+349253669+352726400+357052897+359630768
1828+359667942+358902521+358075751+356262441+353632711+351835736+351680918
1818+352364770+352857145+353287966+354567599+356802754+358706781+359038734
1808+358159315+357561298+358602687+361721147+365794578+368478401+368473208
1798+367189517+367191718+369922584+374656173+378024672+376622237+371940369
1788+368458834+368203842+369907487+371686959+373190222+374592623+375417330
1778+375771188+377253818+381499983+388059846+393490663+394313101+391223630
1768+386900435+383126769+381563223+383246579+386669172+388852125+389281294
1758+389441442+389467336+389355814+391142611+396600561+403880314+408280231
1748+407813096+405043474+402849379+402212262+402965647+404289573+405070331
1738+405916978+409563682+416909049+422844828+421244349+414753710+408462490
1728+404030730+401963529+402281348+403957998+406649765+412120679+421931605
1718+433392082+439000964+435271384+427269367+420536426+417483407+418716410
1708+423602615+429892769+434866355+438814784+444760605+453160429+459354536
1698+460167276+457221549+451185974+443805978+439534228+440346830+444546330
1688+450439673+458998236+470071532+476625240+472938027+465105751+460091277
1678+459931645+463696198+468407915+471682018+474749377+478999978+481559280
1668+479143206+474929229+473997023+476741439+479398370+479233064+478316298
1658+480517168+488384520+502555402+517905400+521666274+515419278+512784149
1648+516219156+518724468+514104499+506343786+501663431+501792560+506721614
1638+516138102+526738899+530477764+524578437+517117386+514379951+516420948
1628+520384989+524139054+527665397+530527662+531122584+530397948+531819744
1618+536349856+539912685+538309283+534233823+532299912+533428477+535872920
1608+537679146+538353644+538678204+539392420+540488728+541663614+542990291
1598+544756455+546826063+548645425+549948684+551036498+552198798+553288951
1588+554063966+554670684+555590819+557116538+559089651+561575602+565566535
1578+571782100+577782839+578838638+576022075+575265251+578564079+582368488
1568+582760862+581051956+580493898+582797383+589880125+604206203+622593160
1558+629879826+621795689+611687508+605651968+603398621+603725450+605413105
1548+608334621+613999728+623450812+635675816+648654687+658522973+658396079
1538+650063175+644341946+645489906+650017438+652479110+652772445+655267818
1528+661776752+670242534+678586030+687401681+696641688+703015612+704957329
1518+704983258+704361788+702932323+702561477+706147793+714920528+727971340
1508+741134740+744761222+734905385+723185962+718001607+719482036+725276925
1498+731816396+734915014+733823520+732857407+736024665+742873908+748563775
1488+748685717+744684811+740847320+739412147+740283760+742744194+746896960
1478+753412703+762018240+770927772+777256510+777891048+773062203+767817049
1468+766627686+770050038+775228202+778703925+780860502+785267193+794050588
1458+804468816+808272125+802193186+793422584+787731685+786193140+787364553
1448+788334448+787222803+785219255+784283060+784686782+786313363+790036477
1438+795707224+799736190+798750820+795423655+793969775+794616555+794973234
1428+794038208+793378085+794286081+796270440+798726129+801873578+804624665
1418+804026992+799740867+794868555+791496960+789757998+789383575+790345974
1408+792456883+794767452+795746839+795179084+795228878+797804239+802140434
1398+806125383+808742079+809720022+808733551+806825191+806170570+807575618
1388+809578753+810119067+809340922+809738729+813140929+818884580+824829610
1378+829554395+833217192+836380942+838846397+840234251+841013703+841995910
1368+843611073+846181963+849715322+852937188+853888445+852423973+850555985
1358+849803838+849911406+849825090+849050522+848170311+848054078+848601269
1348+848764340+848014669+847133771+847268230+848817573+851244582+853344556
1338+853985421+853177014+851909451+850900490+850341744+850519877+851560132
1328+852752178+853186574+852968895+853136573+854627525+857470292+860513338
1318+862326097+862954102+863949651+866187936+868698509+870115387+870368487
1308+870373508+870812031+871679724+872548861+873056712+873334571+873880593
1298+874815275+875521410+875310883+874245662+873091444+872476782+872086472
1288+870872899+868274222+864828280+861408472+858556077+856597234+855499551
1278+854558817+853153355+851837648+851789710+853238295+855151263+856516146
1268+857359285+858189701+859032771+859496880+859425695+859149968+859179336
1258+859664834+860322825+861144162+862676380+865085300+867594910+869533257
1248+871328272+873788019+876893515+879708839+881287551+881628685+881798771
1238+882929881+885056883+887153005+888354955+889010402+890312972+892907454
1228+896096926+898525310+899580008+900051957+901314500+903898252+907112209
1218+909962128+912020698+913419419+914517584+915695462+917158628+918831632
1208+920408143+921651290+922834395+924699219+927660833+931202032+934320870
1198+936341062+937131312+937128560+937431042+939281148+942935555+947146024
1188+950327037+952081818+952964298+953528202+954499817+956650341+959547511
1178+961707183+962648123+963568568+965538553+968082139+969784786+969818487
1168+968888826+968424855+968741987+968931949+968874177+969981558+973205419
1158+977569537+981428761+984337416+986857893+989144528+990882390+992415777
1148+994540647+997188775+999365159+1000309676+1000183539+999742884+999760422
1138+1000868972+1003054298+1004920360+1004700755+1002909178+1002326017
1130+1004376883+1007225840+1008370773+1007802811+1007634789+1009522034
1121+1012628630+1014247645+1013117842+1010726116+1008807027+1008097247
1113+1009847969+1015689627+1024468895+1031778464+1034829832+1035298205
1104+1035244421+1033671418+1029737227+1026223401+1026601194+1030429813
1095+1033873623+1034577970+1034538079+1037086893+1042639617+1048070607
1087+1049555575+1046451111+1041385328+1036730971+1033203596+1031098533
1078+1030536417+1030755748+1031309404+1033240736+1037043150+1041110357
1070+1043557724+1044347011+1044458223+1044457192+1045315737+1047944538
1061+1051201068+1053467895+1055005134+1056072555+1055880598+1054545083
1053+1053204479+1052541742+1052764992+1053883103+1055443932+1057190184
1044+1059671114+1063390446+1068057665+1072260156+1073741823+1071346383
1035+1067095541+1064003732+1062124809+1060172156+1058745099+1058647985
1027+1058737808+1057770526+1056632195+1056563418+1056358462+1053756071
1018+1049288925+1046226828+1046240584+1047766474+1048596821+1047806021
1010+1046176758+1045834248+1047977482+1051432641+1053880214+1053430136
1001+1050362331+1047930714+1048979222+1052125158+1053453108+1051376863
993+1047325956+1042698697+1038165456+1035259139+1035638377+1038724683
984+1041691111+1041948269+1039575870+1036840877+1035381219+1034854179
975+1034233809+1033182275+1031727088+1029643002+1026958835+1024459817
967+1022881037+1021927510+1020721640+1019196850+1018109552+1017491245
958+1016153460+1012761164+1006892270+999929614+994609218+992719359+993374874
948+993776051+992230560+989862011+988669209+988613637+987388578+983439393
938+978320171+974758614+973309960+972420809+971157510+970095865+969604521
928+969000039+967848503+966769458+966585823+967417201+968692192+969512497
918+968811864+966119307+962824124+961692464+964260741+968976173+972383325
908+972199897+968895360+964580005+961087019+959130790+958430432+958162751
898+957803391+957739015+958469429+959021159+957537154+954078557+951108758
888+950592104+952065311+953674972+954058336+953299586+952495512+952219166
878+951730917+950411289+949332313+949795802+951252984+952334574+952652875
868+952288218+951420181+950881656+951153120+951159172+949642498+947186052
858+945288765+944124849+942797725+941449968+941419293+942917879+943887431
848+942155346+938250454+934880028+933964879+935159333+936909849+938003819
838+938176037+937865026+937590468+938061454+939948356+942698205+944621352
828+944756980+943854211+943414312+944085165+945166686+945925917+946861493
818+949212090+952928602+955984922+957139622+957512257+957637362+956120757
808+952908038+950457439+950027788+949821937+948166402+946034379+945268958
798+946098204+947390114+948998262+951633803+954318107+954882906+953408117
788+952587811+953892308+955963945+957124354+957308264+957655932+959549437
778+963118490+965875423+964291829+957751945+949594491+943921750+942630115
768+945109326+949623378+954618251+958897360+961235715+960741895+958168597
758+956365466+957926295+961775478+963705297+961729742+958826932+958598042
748+961014872+963614649+964760201+964690599+964072361+962483539+959173638
738+955258635+953212996+953431019+953451034+951897013+950778284+952515114
728+957184121+962934099+967092779+967035832+962813601+958387034+957371814
718+958728237+958607671+955472326+951332215+948598460+947558756+947471478
708+948615173+951199613+953290439+952594208+950455031+950498567+952818628
698+953323246+949919532+945394270+942491598+940696789+938844069+936916452
688+934464958+930341561+924694886+919433157+916636815+916924717+918775510
678+919559983+917965728+915126400+912714178+910218255+904748406+894848001
668+886010685+887655766+898269115+909064380+915754611+917497286+914716969
658+909841287+905864660+903370937+901037534+898550895+896654915+895520505
648+894597309+893865244+894600266+897570752+900452103+898875936+892010737
638+885326421+884778886+889471415+892153656+889147337+886108142+888290167
628+892855664+895055984+895401795+895193882+891575721+884073301+878904834
618+881102059+886775762+887777777+883691106+879261788+874573111+866713806
608+857417746+853871457+859606373+869170114+873107400+869063578+864967210
##END=
