##TITLE=<SNM>
##JCAMP-DX=4.24
##DATA TYPE=INFRARED SPECTRUM
##DATE=3/5/2025
##SAMPLING PROCEDURE=Instrument type and / or accessory
##ORIGIN=Admin
##XUNITS=1/CM
##YUNITS=ABSORBANCE
##RESOLUTION=4
##FIRSTX=4497.3318
##LASTX=599.83466
##DELTAX=-1.4281778
##MAXY=1.7074468
##MINY=0.18440667
##XFACTOR=1
##YFACTOR=1.5901838e-09
##NPOINTS=2730
##FIRSTY=0.2042181
##XYDATA=(X++(Y..Y))
4497+128424217+129228965+129914760+130354603+130734558+131000311+130788767
4487+129959581+128936092+128426438+128797171+129756358+130637261+130878098
4477+130284951+129124162+128011980+127491971+127656202+128137885+128433887
4467+128371319+128325478+128793151+129757932+130699933+131126572+130962781
4457+130563261+130242623+129726990+128523631+126899489+125745045+125405768
4447+125456267+125585817+125830552+126007041+125742543+125099224+124676961
4437+124919747+125503796+125647449+125007569+124013608+123282120+123016545
4427+123072179+123287790+123533696+123610302+123311113+122600138+121682558
4417+120922621+120626066+120780270+121068026+121220825+121217377+121120418
4407+120969774+120842895+120797981+120801476+120854533+121002778+121117860
4397+120920138+120302280+119443575+118639212+118191048+118287351+118721243
4387+118933124+118647936+118198526+117917844+117671076+117335623+117136074
4377+117176143+117271743+117436527+117883997+118468927+118731644+118540500
4367+118241472+118134692+118086030+117738911+117005268+116244694+115965634
4357+116481370+117739136+119226259+120198771+120337382+120071900+119983938
4347+120069623+119888019+119300878+118682851+118369476+118274344+118182698
4337+118027491+117721950+117242356+116999599+117481122+118456417+119241121
4327+119668763+119988763+120048933+119499678+118526988+117628955+117078612
4317+117112975+117988247+119381569+120405348+120567180+120179008+119725156
4307+119322749+118865617+118404859+118256455+118677566+119469092+120112560
4297+120317882+120241951+120201929+120381874+120828024+121491648+122160277
4287+122566291+122704360+122826816+123024360+123034546+122600748+121876560
4277+121305743+121139394+121255722+121532692+122112664+123025991+123845629
4267+124107887+123929112+123855927+124142708+124471030+124508672+124448840
4257+124654987+125062172+125347773+125408598+125350659+125332321+125487247
4247+125690001+125583344+125127383+124769019+124858387+125291671+125812308
4237+126281799+126606794+126658764+126381850+125943891+125622120+125512192
4227+125560788+125794503+126204575+126494768+126325429+125822063+125544755
4217+125898818+126764935+127729809+128456030+128756737+128616007+128303916
4207+128254804+128689708+129412059+129929669+129797570+129070262+128378788
4197+128280686+128619624+128818199+128629585+128262675+127953872+127794495
4187+127874952+128261654+128848045+129384378+129598836+129375195+129071199
4177+129425000+130720530+132299992+133302696+133585692+133577511+133597452
4167+133666964+133723113+133725287+133632339+133479784+133461174+133730366
4157+134112017+134275789+134200289+134156181+134271581+134376121+134218918
4147+133765984+133332720+133248196+133358742+133206178+132724242+132376026
4137+132538467+133032679+133369828+133389216+133513406+134234783+135407415
4127+136256365+136141395+135190961+134140804+133628254+133763201+134326634
4117+135041376+135585075+135729281+135569669+135363373+135245180+135298612
4107+135603038+136035806+136394245+136783945+137473977+138375355+139063466
4097+139240938+138881121+138128334+137323830+136868600+136860973+137106476
4087+137483854+138003544+138630989+139317628+139984523+140381307+140311374
4077+139966587+139691613+139585509+139557884+139498605+139304940+138996896
4067+138760642+138732286+138868452+139021972+139014738+138806155+138644351
4057+138803260+139215403+139607005+139860970+140023711+140099886+140075203
4047+140136085+140621554+141527580+142258299+142274333+141843233+141677484
4037+141960264+142204043+142078934+141961688+142441619+143490258+144425474
4027+144706661+144483076+144235549+144172034+144220012+144388516+144773671
4017+145247548+145457284+145180698+144517504+143778942+143299986+143278442
4007+143696995+144396144+145190396+145964268+146755662+147593142+148176319
3997+148062137+147274828+146359300+145800608+145735622+146091944+146639203
3987+147094676+147390997+147642160+147849440+147887682+147737882+147571177
3977+147605127+147881329+148148825+148030089+147392562+146549207+146025056
3967+146118041+146765464+147771326+148906363+149793976+150055251+149688097
3957+149076423+148629159+148598695+149170561+150399756+151841984+152607103
3947+152383293+152009907+152290851+152806905+152621646+151715742+150934243
3937+150924685+151731175+153030256+154374936+155276961+155390262+154900024
3927+154451729+154402870+154454849+154364225+154555715+155434492+156558462
3917+156945304+156089617+154491329+153083773+152316583+152112507+152707023
3907+154915841+159047015+163826831+167178005+168228031+167297313+164564437
3897+160705520+157714949+157404779+159456759+161311093+161065599+160216218
3887+160898650+162465828+163009779+163079366+164277918+165449539+164643882
3878+163199367+163589152+165810780+168473019+171004912+172734090+172411175
3868+170810713+170054702+170175191+169396784+167249991+165274887+164964698
3858+167114396+172254309+179425381+183354579+179221606+171337141+165308828
3848+162912605+163876701+166923253+170544004+174121181+177871867+181184771
3838+182175256+180415716+178032106+176566301+175585580+174442784+173525316
3828+173257520+173691890+175713959+180319179+185585353+187278585+185451914
3818+183774968+182340087+178958495+174567621+172117741+172973793+176574360
3808+180846900+183718257+185878582+189056922+191937387+191678755+189380962
3798+187847107+186775753+184740939+182411904+181474270+182254251+183891652
3788+185847658+188227145+190957735+193853848+197206972+200983164+204011536
3778+205450654+206308693+208311646+212536452+218996362+226293545+232559761
3768+237611815+242372776+246987254+251807082+258148208+266287388+274439255
3758+281366389+288708420+298888504+312534141+327646839+340032977+347943699
3748+355153678+365178733+376656249+384781709+389149663+394721903+405178948
3738+421036149+439317555+454397624+462994319+467214928+470739891+475130971
3728+479834546+483251709+484403145+484350220+484766055+486058051+488167400
3718+491999161+499239014+511126180+526632729+540768043+547934654+549686453
3708+551717200+556601855+563901380+571644216+577420101+580719230+583352177
3698+586871855+591432545+596660656+602597304+609762529+617518596+622603559
3688+622430538+619032941+615452878+612724912+611533107+612970200+617580555
3678+624040690+628485070+628449687+627817913+630345832+633159146+631108009
3668+625720522+622398378+623061712+626804339+632126493+637892183+643414833
3658+648049665+651399358+654241759+658258948+664410111+670987904+672911375
3648+668173691+662846401+662201396+665180834+667630339+667798712+668001344
3638+670596208+675174740+680371965+686107743+693386091+701811339+706404265
3628+702327103+694549784+690357400+691013950+694017902+696479851+696472205
3618+694944628+695802086+700816469+706509142+708216861+706353588+704831034
3608+705393277+707269519+709741889+712215383+713741011+714511509+716343896
3598+720319254+724841187+727021940+726257589+725071706+726216508+730563771
3588+735933716+738005169+734859832+728397111+721297857+715755865+713395569
3578+714196953+716492703+718937111+721722088+725526449+730054979+733787372
3568+734970257+733150464+730109853+728436169+728933716+730158881+730403119
3558+729769134+729504355+729653087+728984168+727589581+727818676+731563364
3548+737650656+742203625+741869653+737372609+732681253+730664900+731082534
3538+732316695+733521394+734581185+735204450+735240133+735349283+736629923
3528+739005662+740257365+738460361+734832620+732426070+732576526+733540360
3518+732623155+729158463+725378541+724400988+726955970+730287222+731184337
3508+730121923+730429807+733499654+737055054+738311030+737304765+735635128
3498+733580017+731091830+729925063+731723191+735097623+736680450+735200027
3488+732681553+731296936+731096103+731262751+731852432+733567723+736390482
3478+738886092+739327940+737750211+735785959+734362659+733344175+732960350
3468+733606780+734790789+735714516+736246698+736505405+736205767+734886970
3458+732754420+730993999+730598705+731268224+731914878+731791410+730835522
3448+729624900+729139422+729965170+731780090+733647037+734841466+735695550
3438+737363163+740275132+743439435+745563439+746112563+745022412+742375447
3428+738629859+734672418+731791785+731243260+732568729+733404148+732300727
3418+730384903+729325412+729537490+730929979+733319211+735840384+737775174
3408+739413026+740976361+741882772+741627214+740187572+737966187+736223909
3398+736424817+738298285+739296529+737493453+733897497+730572242+728279490
3388+726945925+726799667+727944843+729785627+731477303+732648493+733631594
3378+735037651+737002952+738748005+739440838+739117811+738042577+736389133
3368+735067937+735444640+737280551+738525057+738353835+738522508+740361942
3358+742479274+742915350+741998744+741135738+740678747+740946450+742927194
3348+746294430+748873626+749038626+747162308+744673596+742868946+742211197
3338+742401535+743413497+745756626+748522262+748619192+744415114+738387794
3328+734415360+734147433+736568526+739800149+742408731+743469347+742795779
3318+741354863+740411719+740252642+740207363+739844978+739859297+741052526
3308+742937915+744028516+743460950+741729392+739176584+735386242+731251657
3298+729379462+731107123+734772047+737897444+739818216+741005748+741196086
3288+740083744+739178158+740442605+743304422+744855688+743374890+740562625
3278+739312797+739981941+740352196+738939692+736803469+735643599+735815945
3268+736808491+738158249+739335661+739674506+738917502+737757857+737444651
3258+738349862+739417224+739533946+738842911+738316652+738852432+740843747
3248+743824084+746755245+748745135+748750982+745914129+741785616+739907950
3238+741733515+744582213+744577490+741460115+739160916+741023740+745641928
3228+748417760+747109233+743841626+741507793+740829128+740884903+740678897
3218+740014851+739508907+739851725+741019841+742275217+742846081+742483247
3208+741380351+740007954+739284984+739730056+740002631+737989427+733860239
3198+730079342+728243956+727863880+728175138+729109661+730171850+730058802
3188+727994470+724893513+722502331+721746601+722638994+724884667+727508468
3178+728955231+728596820+727352764+726300545+725346906+723602153+720928875
3168+718588295+717530904+716804186+715265664+713663646+713304560+714188931
3158+715727528+717716893+719575744+720515439+720442348+719277530+716677793
3148+713380951+711398407+711857947+713696856+715019102+715228481+715168134
3138+715259667+714711367+713046154+711031300+709420286+708228556+707420875
3128+706817176+705822756+704568729+704191276+705005854+705868110+705889250
3118+705255940+704162789+702303114+699675715+697116310+695512793+694660133
3108+693718189+692789663+692784491+693726960+694551058+694638543+694151416
3098+693142302+691653183+690049366+688544054+687121579+686114789+686144851
3088+687345052+689012515+690087149+689907980+688770151+687656835+686830037
3078+685264828+682559165+680145418+679245005+679144551+678955112+679376270
3068+680838401+681887697+681436928+680600760+680509002+680353748+678901737
3058+676356950+673939155+672648545+672772388+673921538+675323547+676191126
3048+675935792+674488429+672625755+671492648+671531406+672093424+672197101
3038+671323226+669488665+667072819+664822273+663356168+662485966+661700999
3028+661105172+661024134+661065515+660508894+659359745+658381292+658126184
3018+658184057+657553445+655788002+653509794+651769914+651183082+651512032
3008+651793828+651193652+649797041+648070130+646082939+644112464+643115270
2998+643630885+644795927+645056658+643627061+641183029+639338872+639222075
2988+640353458+641142547+640629781+639462865+638881281+639118547+639358737
2978+639060899+638483513+637943909+637460680+637009087+636376900+634954651
2968+632406041+629328472+626742230+625130804+624170268+623444450+623261721
2958+624194669+625765164+626408482+625190252+622975689+621426635+621185845
2948+621301367+620398142+618245914+615778004+613654112+611620967+609564882
2938+608324836+608713121+610217721+611380327+611259370+609943571+607890185
2928+605549117+603521482+602408953+602321093+602679204+602571066+601386833
2918+599221485+596773779+594741608+593275503+592292627+591952020+592208403
2908+592357023+591817719+590879898+589995452+589024309+587709897+586182283
2898+584747926+583647017+582889151+582038102+580746030+579619183+579609925
2888+580488898+580796482+579587285+577585400+576178368+575855453+576131552
2878+576341944+575919999+574659338+573242860+572531698+572197538+571277109
2868+569739262+568148901+566487923+564636794+563145838+562421594+561936491
2858+560969208+559599697+558624842+558662625+559295336+559224681+557592339
2848+554921273+552455837+550938531+550282168+550065817+549977808+549816444
2838+549371935+548467323+547056543+545263625+543399452+541926750+541227920
2828+541276685+541523997+541240477+540145527+538676499+537488966+536721842
2818+535889760+534470096+532485116+530505609+529157088+528696423+528983542
2808+529574534+529878633+529562127+528721574+527456115+525671406+523594930
2798+521945384+521209858+521104943+520905535+520059059+518527734+516774435
2788+515401925+514670597+514302590+513733638+512632841+511221911+509992511
2778+509163615+508557367+507875553+506933234+505762569+504610121+503676423
2768+502877663+502091235+501397052+500795415+499950813+498521254+496654833
2758+494886653+493502186+492264052+490933185+489728036+488939172+488451183
2748+488039808+487755163+487572996+487057007+485812314+483997318+482083406
2738+480388918+479058838+478172369+477557912+476724930+475321309+473578169
2728+472074731+471074651+470274054+469267602+468088278+467092996+466409421
2718+465743238+464718269+463218729+461434732+459730424+458406454+457475417
2708+456742027+456101745+455598987+455182403+454632941+453807007+452759210
2698+451618345+450541124+449707431+449098559+448398941+447420488+446467749
2688+445933768+445673225+445128186+444027352+442637225+441300886+440038275
2678+438741181+437509044+436557354+435929966+435465178+434934533+434177567
2668+433256538+432425543+431806851+431225791+430447610+429413307+428238145
2658+427122055+426212833+425504407+424977772+424710032+424588513+424137444
2648+423044931+421701320+420800682+420525220+420443695+420093830+419367262
2638+418428504+417543383+416908236+416450908+415916927+415229116+414543367
2628+413923550+413229218+412329292+411212227+409938859+408711933+407921044
2618+407816430+408084395+408042376+407429569+406705175+406346726+406189149
2608+405717876+404747745+403576705+402646905+402194487+402102692+402022928
2598+401687644+401128774+400575002+400122472+399581894+398762219+397803294
2588+397044191+396665015+396591023+396596533+396437344+396038826+395541016
2578+395092533+394714631+394340627+393851476+393211606+392644715+392387732
2568+392277533+391970998+391503512+391228762+391306052+391541369+391610488
2558+391307926+390717234+390136849+389744628+389459571+389177775+388927801
2548+388746459+388607398+388502071+388433253+388325527+388093283+387829778
2538+387776553+388006698+388285233+388372680+388287969+388163826+388078177
2528+388095195+388184441+388089460+387606980+386941322+386470462+386285147
2518+386225512+386207145+386246052+386260896+386069058+385582043+384922307
2508+384329329+383990521+383942918+384045396+384052668+383824397+383440048
2498+383031447+382621684+382241795+382031254+382024545+381965659+381569053
2488+380927609+380466194+380483849+380868236+381250373+381347866+381153968
2478+380838737+380520282+380215584+379947956+379711290+379390174+378950687
2468+378607007+378543511+378619714+378588265+378430650+378285854+378222395
2458+378198331+378101176+377818930+377425959+377206872+377310774+377504786
2448+377465429+377173437+376823160+376505680+376196146+375913113+375691402
2438+375483222+375227664+374961011+374756130+374557995+374193212+373636104
2428+373141930+372943946+372954066+372970933+373021647+373244633+373539173
2418+373584903+373204114+372557085+371954435+371579457+371426039+371410334
2408+371472706+371640779+371999677+372502960+372892781+372987126+372936974
2398+373006917+373210299+373317950+373149876+372795738+372564619+372637261
2388+372760917+372453557+371518622+370141277+368463506+366324321+363539982
2378+360272450+356921707+353675316+350350099+346757966+343076886+339808155
2368+337493963+336335105+335828112+335121972+334170582+334065293+335832385
2358+339464699+344342757+350040827+356530236+363692649+370645046+375907641
2348+378359620+378066466+376426516+374928213+373509674+371226930+367934548
2338+364110171+359935292+355473706+351204708+347776975+345442130+343978649
2328+343063317+342503660+342164928+341974102+342054578+342606851+343589052
2318+344708178+345755224+346789376+347946360+349163578+350206802+350973476
2308+351617769+352291486+352932443+353426917+353809955+354180060+354557250
2298+354905729+355193597+355431763+355712735+356121823+356580388+356932615
2288+357179889+357434848+357672301+357748692+357641416+357458537+357247058
2278+356969760+356629228+356279438+355984560+355842051+355912593+356055028
2268+355997005+355658160+355258517+355035232+354993626+355027248+355150717
2258+355461450+355899100+356195739+356132655+355777393+355410623+355266201
2248+355371116+355591253+355805917+356030927+356336037+356666299+356864358
2238+356882687+356834559+356825414+356880851+357019687+357236301+357441444
2228+357570161+357713233+358016694+358465626+358845740+358974306+358943795
2218+359016849+359276681+359574632+359840910+360177844+360610134+361018809
2208+361353606+361685255+362051874+362421343+362765961+363058177+363240868
2198+363324755+363514568+364078685+365002638+365899791+366386356+366458360
2188+366426762+366600870+367066145+367645255+368081293+368339213+368678770
2178+369372541+370395036+371425365+372167975+372653716+373172703+373942077
2168+374934923+376007008+377096747+378298373+379762491+381529396+383526858
2158+385748055+388304274+391265270+394530066+397837366+400890421+403583490
2148+406075276+408513611+410824767+412939700+415018725+417259451+419661990
2138+422098414+424495780+426938089+429642815+432742498+436067603+439294128
2128+442298492+445178976+447927294+450280806+451959776+452916376+453263842
2118+453030399+452082870+450324548+447935166+445305855+442681717+439981227
2108+437031662+433833474+430501023+427092631+423611822+420109985+416730080
2098+413611731+410719103+407857548+404934972+402066970+399388782+396948010
2088+394773629+392846673+391028041+389184934+387349173+385671890+384297506
2078+383299187+382649309+382235573+381934286+381656350+381346367+380992829
2068+380625684+380259514+379860471+379392648+378868562+378345152+377922120
2058+377709854+377701833+377714165+377570718+377306914+377094723+377039099
2048+377122048+377270105+377430382+377598418+377764092+377899893+378075462
2038+378466521+379136865+379924267+380632543+381243364+381864530+382512684
2028+383032796+383279134+383280296+383123880+382824766+382423925+381996770
2018+381449895+380567548+379356514+378095253+377010724+376123130+375368562
2008+374682026+373992041+373267385+372566306+371984834+371546659+371130599
1998+370564458+369900524+369471608+369436674+369426778+368988079+368195054
1988+367410987+366741018+366124313+365639435+365396283+365363261+365441525
1978+365516566+365457718+365239267+364988020+364824145+364754014+364707386
1968+364563751+364197469+363618246+363032764+362704114+362744783+363017096
1958+363233297+363191429+362898837+362465273+361983581+361563473+361356492
1948+361493117+362061770+363022306+363942360+364081684+363176698+361865172
1938+360943993+360604511+360539703+360423169+360174133+359915239+359765832
1928+359809387+360264916+361284675+362503693+363375807+363949782+364468170
1918+364457787+363366211+361808086+360967870+361208547+361913113+362230893
1908+361784172+360882934+360123718+359779063+359689704+359677410+359833076
1898+360339882+361107306+361765693+362188649+362702127+363374757+363560410
1888+362754078+361422500+360365708+359886264+359860289+360045866+360210191
1878+360254084+360224397+360249698+360724531+362307995+365106391+367761077
1868+368216382+366169967+363438516+361630717+360983163+360972668+361057267
1858+360949466+360692483+360521674+360568490+360863218+361523479+362759926
1848+364837001+367767337+370444026+370783845+368380781+365447897+363892433
1838+363757120+364128950+364562514+365671070+368165817+371308643+373113331
1828+372909874+372017032+371218309+370050831+368538134+367590080+367658149
1818+368251016+368772702+369331684+370472250+372196650+373609379+373898334
1808+373421702+373277356+374208055+376241801+378817098+380955233+381855609
1798+381824086+382283814+384508909+388146809+390754566+390210503+387866287
1788+386554349+387247107+389157534+391434581+393812868+395865618+397026275
1778+397762700+399635794+403805126+409616732+414337174+415626922+414330090
1768+412515619+411390458+411892916+414463041+417906217+420303434+421542130
1758+422716281+423913559+425091083+427459288+432020166+437580599+441357485
1748+442160031+441425142+441036931+441945141+444081327+446474871+448089857
1738+449640186+453320929+459647324+465042421+465662162+463417913+461511460
1728+460741224+461213921+463017934+465814868+469661584+475601494+484148337
1718+493098308+497969207+497362584+494622062+492962133+493622881+496737707
1708+501804004+507501624+512375446+516942209+523348780+531821257+538993491
1698+542630866+543976463+543379136+541477706+541130614+544131155+549847405
1688+557360283+567120296+578501969+586355491+587125352+585348327+585854908
1678+590029524+597148832+604844627+610984883+616255311+621985279+626954158
1668+629505616+631462447+635612475+641915594+647861801+651856874+655324564
1658+660545253+668977698+681206483+694614029+701659009+702288871+704332512
1648+709710553+714451986+714863698+713202382+713308609+716510695+722804668
1638+731355634+739047868+740712032+736048339+731029758+729358022+730596906
1628+732648568+734032136+734550524+733666153+730556349+726586464+724320175
1618+723956141+722571749+717997640+712241921+707637226+704071406+700449737
1608+696477902+692813127+689956633+687786225+686090575+684959343+684524766
1598+684547481+684380607+683477045+681962662+680410647+679056091+677601156
1588+675838637+674177696+673267162+673152615+673362894+674109852+676592192
1578+681301690+685884645+686558811+684312238+683707640+686508809+690766563
1568+693914374+696135909+699001174+703677011+711878038+725718061+743219786
1558+753754870+753737253+752583530+755166025+761194469+769378853+778227358
1548+786655006+795264745+805531602+817713158+830323519+839253737+838368991
1538+830027179+823670685+822608795+824175804+825053053+825706829+828678471
1528+834358400+841025927+847499293+853990650+859684298+862459304+862862845
1518+863708383+865455385+866787676+867808559+869911123+873843450+879338064
1508+884879231+886687254+883014308+878707752+877571121+879477800+883021730
1498+886594072+888707206+889321550+890270391+892896441+896319601+898212186
1488+897464328+895384104+893865598+894003085+895615898+897350005+898399375
1478+899994346+904058238+910683260+916950170+918492140+914567534+909589060
1468+907484997+908662559+910832067+911678055+912166382+915182328+921414979
1458+927196786+926679448+920577837+915046341+912455450+912164883+913275500
1448+914555915+914489870+912775779+910631684+909435081+909984055+912355970
1438+915443659+916999648+916232149+915460601+916396773+917931247+918210644
1428+917510164+917705225+919345250+921383194+923311762+925385839+926413844
1418+924265776+919891676+916367462+914709520+913940371+913181193+912664979
1408+913098581+914297058+914871895+913995471+912762809+912421266+912602683
1398+912385432+911692524+910459412+908118532+905095090+902856763+901767810
1388+900173664+896514362+892343419+891029869+893726536+898532964+903086458
1378+906903113+910706275+914416479+917056622+918554962+920128942+922421244
1368+924882219+927206157+929788052+932176760+932736754+931123716+929417871
1358+929479868+930968087+932285160+932451959+931942792+932115288+933923012
1348+936886407+939432168+940684171+941499573+943140348+945379950+946704369
1338+946562984+946283811+947097564+948594405+949649248+949961105+950064408
1328+950436313+951132445+951907291+952371703+952397642+952491724+953247603
1318+954433336+955207957+955221076+954976088+955224075+956210699+957401529
1308+957944581+957465550+956370750+955373406+954935157+955208857+956027632
1298+956707422+956331019+954567450+952002122+949509962+947552307+946081179
1288+944723325+943006235+940730125+938093355+935357181+932692974+930364613
1278+928535974+926778628+924447493+921688304+919334605+917741733+916260561
1268+914058142+911137253+908313668+906456392+905836351+905835751+905234301
1258+903124165+899692384+895977982+892977254+891084594+890013708+889150778
1248+888347670+888263559+889433099+891120203+891796693+890954304+889743157
1238+889547497+890717112+892828747+895276153+897299178+898377710+899028263
1228+900322996+902360864+904034774+904503385+904166339+904027128+904707742
1218+906279248+908617055+911487567+914333042+916432007+917605821+918555187
1208+920185316+922724331+925727083+928801128+931903960+934796962+936745022
1198+937173526+936520574+935984195+936324164+937363189+938651100+940239549
1188+942712444+946357803+950258270+952803431+953727609+954675325+956836737
1178+959370429+961198394+962814055+965034090+967454134+969300465+970637929
1168+971864068+972963815+973936646+975175754+976941422+978785579+979686742
1158+979078620+977909155+978061260+980324776+983496201+985710839+986368363
1148+986562074+987767748+990434654+993810736+996742871+998541673+999527473
1138+1000721077+1002715615+1005211000+1007569946+1009340187+1010315117
1130+1010791749+1011847791+1014400749+1017910719+1020507532+1020392385
1121+1017498258+1014195793+1013691498+1017138797+1022780493+1027933938
1113+1030811722+1030882340+1029237967+1028125175+1028790646+1030012587
1104+1030017910+1028942002+1027732130+1026504791+1025501674+1025809934
1095+1027836707+1030655718+1034044394+1038714160+1043625840+1046322207
1087+1046842469+1048405130+1052856145+1057618793+1059100491+1057803958
1078+1057137138+1058246706+1058833388+1056908718+1053719750+1052033846
1070+1052917317+1055064936+1056773629+1058120689+1060359165+1063030344
1061+1063512599+1060560973+1056888102+1056356445+1059829158+1064390598
1053+1066206568+1064706953+1062986265+1064101230+1068019839+1071808457
1044+1072389216+1069522677+1065954983+1064312858+1064605374+1065312901
1035+1066181229+1068432450+1071890019+1073741823+1071990174+1068703601
1027+1067449724+1068699628+1069970297+1069567956+1068085359+1066767386
1018+1065960230+1065256677+1064243590+1063233577+1063393104+1065400461
1010+1068044652+1069384590+1069086301+1068106949+1066774058+1064385200
1001+1060633990+1057234294+1056869286+1059876761+1063133647+1063181625
993+1059543613+1053937676+1048137652+1043634386+1041301377+1040520834
984+1039624694+1037492668+1034606263+1032443051+1031688746+1031345853
975+1030188982+1028162358+1025377006+1021392953+1016642524+1012954285
967+1011115376+1009209297+1004990151+999107065+994140960+990965936+988022332
957+984211374+980426729+977596773+975438509+973713473+972852191+972798591
947+972533062+970847608+967368223+963330044+960729108+960032602+959707025
937+958558550+957198972+956583578+956498267+956072312+955196937+954867987
927+955662174+956609666+956814623+957041244+957978166+958493930+957516227
917+955955890+954879682+953730757+951926332+950387436+950343431+951878429
907+954018101+955311410+954455151+951429459+947944902+946114164+946889909
897+949594973+952232492+952517512+949691754+945621114+943244626+943762189
887+945709499+946710441+945866477+943939183+941562844+938777867+936446958
877+936030149+937215882+937805562+936675678+934976355+934113575+934424383
867+935571958+937019021+938411735+939584499+939840057+938393743+936232031
857+935671962+937223153+938701178+938236540+936588418+935660193+936030598
847+936551535+935841685+933950749+932268368+931702602+931560467+930838097
837+929737150+929074378+929083149+929391258+929695244+929924789+929967820
827+929681750+929345379+929920966+932283211+935944088+939351580+941682940
817+943255046+944484859+945972554+948763378+952821348+956059643+956387243
807+954115481+951214008+948946369+947093141+945074914+943167561+942206425
797+942310478+942667015+942922498+943820213+945432950+946008312+944339275
787+942328394+942804427+945295163+946508034+945249884+943920142+944518668
777+945752979+944902418+941512392+938107974+937481710+940083021+943816389
767+945968056+945635733+944319934+943878311+944671298+946102919+947629896
757+948628889+948619294+948058700+947566550+946492666+943999606+941214629
747+940372089+942037303+944619647+946375420+946788481+946315147+946064537
737+947342103+950209467+952911007+953817418+953375120+953164916+953875891
727+955379778+957243052+958453673+957885058+954753065+949249980+944006952
717+942767994+945420356+946963076+944323982+940871960+940356646+941316882
707+940773005+939299779+939173836+940404249+941027214+939424447+935205600
697+929349727+923578116+919104236+916351719+915380088+914944687+912265037
687+906716373+902032739+901779205+904508183+905267361+901324613+894747719
677+889295237+887084872+888126896+890353453+890351354+886626907+882550345
667+882025885+882226043+880537890+879561311+881514169+883950630+883377892
657+880449206+877987106+876666885+875166221+872867321+870668801+869413650
647+868341115+865792805+861672464+858310701+857837892+859175730+859059308
637+856314138+852792323+849900145+847298160+844942511+843525359+843308558
627+844232361+846541530+850491325+855291081+857941794+854521932+845675226
617+837536572+834624078+836078638+839068496+841449033+841431791+838941055
607+836045353+833481450+830046221+826677860+826071238+827287407
##END=
