##TITLE=<SNM>
##JCAMP-DX=4.24
##DATA TYPE=INFRARED SPECTRUM
##DATE=2/5/2025
##SAMPLING PROCEDURE=Instrument type and / or accessory
##ORIGIN=Admin
##XUNITS=1/CM
##YUNITS=ABSORBANCE
##RESOLUTION=4
##FIRSTX=4497.3318
##LASTX=599.83466
##DELTAX=-1.4281778
##MAXY=1.8504324
##MINY=0.31462678
##XFACTOR=1
##YFACTOR=1.7233495e-09
##NPOINTS=2730
##FIRSTY=0.33132482
##XYDATA=(X++(Y..Y))
4497+192256314+191733107+191880791+192387466+192972912+193405641+193418300
4487+192921672+192103960+191309041+190919321+191183267+192020330+193067333
4477+193917089+194279383+194175762+194006288+194009919+193833857+193111379
4467+192144738+191557787+191696687+192677508+194391063+196093272+196746629
4457+196234991+195486971+195077691+194537969+193460409+192468277+192467586
4447+193542275+194948476+195741631+195340653+193866748+192062543+190739125
4437+190321475+190762038+191558341+192058081+192091354+192152139+192764079
4427+193853312+194843022+195229803+194982526+194354989+193416259+192072884
4417+190599810+189654509+189532782+189834549+190082898+190221192+190318518
4407+190240854+189838025+189250867+188957487+189511044+190956760+192459510
4397+192968191+192348625+191326784+190431236+189701737+189205421+189026228
4387+188890891+188472930+187854904+187202447+186413096+185537659+185013051
4377+185095125+185502226+185803284+185836867+185761157+185914877+186481266
4367+187166217+187466203+187269856+186923437+186752770+186748308+186679239
4357+186359988+185798234+185235564+185034391+185302039+185687194+185802886
4347+185710557+185601575+185286388+184538438+183680277+183287755+183453805
4337+183736169+183766467+183606556+183485607+183506878+183757976+184395578
4327+185284711+185773384+185327961+184304045+183587585+183549973+183818520
4317+184051425+184387744+184928332+185322756+185212598+184727816+184276998
4307+184118661+184278347+184611415+184823344+184616863+183954842+183184618
4297+182826388+183163538+183973917+184693057+184945902+184860836+184773194
4287+184784175+184769701+184609755+184215573+183561404+182879271+182567024
4277+182787859+183442478+184490017+185839133+186970682+187244729+186651155
4267+185793686+185146642+184699680+184243692+183669694+183036605+182624853
4257+182831715+183710904+184674553+184965668+184544196+184234388+184724064
4247+185668085+186176559+186022925+185815147+186022804+186444068+186718789
4237+186824433+186882608+186790850+186292441+185420013+184674934+184583971
4227+185168967+186001119+186587637+186588415+185991262+185222455+184828065
4217+184985399+185507344+186171561+186796851+187176714+187181228+186862323
4207+186464941+186369448+186769199+187342885+187619110+187632253+187722818
4197+187849076+187659300+187125820+186620407+186411401+186388315+186261486
4187+185923991+185580045+185459840+185469541+185335864+185074650+185067923
4177+185611830+186508399+187222092+187477565+187550871+187851341+188397618
4167+188913199+189248965+189381206+189175278+188569599+187899918+187675573
4157+188004646+188448616+188526989+188255035+188050127+188157951+188375690
4147+188359123+187970008+187295087+186560210+186037002+185851203+185929075
4137+186227557+186803733+187516700+187889611+187524637+186656118+186066695
4127+186272000+186964958+187538818+187913562+188356858+188746613+188689096
4117+188201634+187675158+187312017+187036552+186756869+186446645+186141523
4107+185933796+185836314+185767158+185783172+186091061+186744244+187505528
4097+187964941+187793253+187084818+186394264+186171111+186278502+186350166
4087+186400610+186723821+187378717+188074424+188449532+188375863+188102405
4077+188013224+188118488+188036863+187602682+187033941+186388176+185512083
4067+184647697+184333928+184587672+184886880+184992092+185158782+185598324
4057+186235096+186897203+187466411+187936199+188344389+188546720+188269354
4047+187596992+187093067+187086219+187131440+186650636+185855388+185466844
4037+185716351+186192987+186548727+186843577+187229943+187671578+188011996
4027+188124125+187970146+187675625+187573266+187900195+188376901+188471910
4017+188182092+188013016+188128570+188143079+187777880+187232900+186918422
4007+187061956+187516129+187963592+188360161+188941180+189692312+190158365
3997+190004922+189544801+189414859+189763353+190107022+190060174+189793616
3987+189635020+189631526+189646381+189576153+189438983+189452316+189953354
3977+191049124+192330398+193023287+192590420+191269820+189873390+188975645
3967+188600295+188839876+190106122+192211922+193846048+193846135+192647574
3957+191655823+191607436+192197482+192982458+193983858+195213582+196106087
3947+196162843+195943340+196332732+197004800+196728851+195184443+193376934
3937+192514312+193377643+196029287+199268573+200992452+200273848+198607902
3927+198026260+198749689+199391840+199294790+199599272+201335238+203620680
3917+204352306+202434208+198884110+195613004+193837609+193858257+195818552
3907+200177403+206980501+214581993+219953002+221235556+218772114+213612343
3897+207409771+202986606+202728591+206148903+209298437+208903856+207336344
3887+208569267+212120194+214564458+215395727+216279240+215846078+212293248
3878+208616166+208690942+212270801+216791812+220804954+223124446+222191216
3868+219634771+218828473+219473442+218185492+214125728+210483111+210203341
3858+214171296+222447709+233533084+240220628+235302893+224362436+215254770
3848+210679459+210622979+213804869+218528850+223811334+229276280+233523105
3838+234180543+231181166+227240103+224024871+221255408+218869925+217721653
3828+218045365+219378883+222429205+228388513+235077026+237234134+234658131
3818+231965658+229716376+225274984+219274639+215107673+214995942+219062018
3808+224893581+229128025+232081903+236282659+240442050+240823349+238408139
3798+236522448+234838673+232080692+229708715+229736315+232124081+235811799
3788+240274427+245138432+249761092+254568634+261350876+270543573+279536031
3778+286034162+291698170+299680771+311431019+326336180+341402687+352251610
3768+357556939+359701787+360715310+361655959+363500458+365833595+366858843
3758+366508481+367645686+373298782+384532965+398992928+410174539+414753759
3748+418309667+425991227+435971545+442096056+444433170+449450981+460818218
3738+477736037+495688269+509008122+516049867+519808936+523914390+530640117
3728+540586852+551720941+560273009+564828710+567105056+568407445+568741205
3718+568342250+568234202+569855963+573410523+575649480+572381228+564829609
3708+557594734+553576335+553726924+556851089+559574223+559711186+558962181
3698+559524384+561179764+563382095+567381713+574501312+582371680+584688215
3688+579367599+572496297+568985213+568787482+570585220+574204387+580452267
3678+588939520+594707236+591996898+585354351+582862186+583648614+580661308
3668+572187440+563791633+559225488+557627729+556541782+555625758+556878205
3658+560637517+563743524+564651143+566909953+573736535+582435181+584524552
3648+575744351+562731211+553017589+548601134+547703026+547872050+548128890
3638+548817231+550245411+552338345+555475584+560720524+567723220+572054628
3628+569431794+563359475+559276849+558975738+562604797+569040794+574716129
3618+577118024+578318902+580136146+581234960+581062996+581408446+582361442
3608+581474367+578309806+575584596+575795574+579618075+586198539+593536482
3598+599273969+602041444+602175639+601236892+600837902+601884075+603840426
3588+604204207+601270925+597437633+596151983+598076239+601180101+602769144
3578+601803212+599538833+597819537+597300740+598039923+600511336+604385648
3568+607440329+607705815+605678146+602623120+599299494+596700180+595419095
3558+594809888+594279746+594207322+594645948+594994995+595408581+596385650
3548+597139359+596202756+593642732+591213306+590288186+590770737+591421310
3538+590532436+587334014+583297630+581010286+581646885+584204557+586772883
3528+587994686+587508745+585379669+581693162+577485298+574870142+574801765
3518+575578543+574902481+572915071+571738057+572418236+573668953+573720625
3508+572576676+571312021+569898297+567469805+564351209+562079359+561358507
3498+561319839+560737783+559405061+558337444+558508233+559473853+559588957
3488+557827778+555055600+552880973+551695935+550612340+549201245+548168491
3478+547851575+547408487+546065770+543915872+541292416+538736024+537359653
3468+537881114+539456668+540351110+539726823+538414577+537947313+538899618
3458+540256274+540592524+539482574+537395347+535022470+533188624+532477491
3448+532450686+532063559+531133079+530336551+529685495+528348726+526215188
3438+524370586+523696633+523990030+524511111+524528888+523405968+520932825
3428+517635416+514688230+513626839+515090022+517210625+516936907+514045405
3418+511573127+511577450+513071415+514228818+514281493+513106624+511175175
3408+510018705+510811913+512493024+512722056+510736445+507958249+505903914
3398+504932379+504896063+505689927+506818381+507259532+506267902+504032299
3388+501492473+499758686+499436859+500066229+500470995+500077263+499406423
3378+498955760+498503922+498015353+498095283+498845741+499407633+499203711
3368+498640366+498220590+497954896+497810082+497890600+498139795+498259776
3358+497968834+497320372+496821219+497052361+498055612+499170785+499597651
3348+499184931+498461381+497743399+496730188+495350428+494245942+493818453
3338+493565591+492959877+492331544+492300347+492675127+492428629+490962610
3328+488994361+487738663+487557603+487811329+487868051+487711063+487503267
3318+487080793+486158994+484833431+483663369+483371079+484394736+486496869
3308+488725797+489876248+489272782+487305986+485182236+483909729+483515754
3298+483414312+483346972+483537128+484056272+484558191+484605921+484126344
3288+483650572+483841594+484552519+484770518+483924878+482792273+482538754
3278+483316674+484340193+485028499+485522152+486129699+486772766+487059730
3268+486627226+485384671+483626016+481944489+480900322+480627089+480643102
3258+480144226+478807285+477324803+476752846+477254489+477993499+478398611
3248+478830354+479565663+479889981+478979456+477188394+475681494+475142913
3238+475266422+475200396+474364267+472952826+471476397+469978386+468306301
3228+466819669+466004292+465716844+465520496+465438111+465823924+466698167
3218+467455196+467248784+465814862+463785499+461964138+460642207+459766823
3208+459176396+458524371+457572032+456587873+455984961+455712661+455369182
3198+454713215+453787022+452689627+451450531+450122962+448882309+447934604
3188+447297555+446731962+446003363+445197463+444587875+444189681+443730510
3178+443066449+442288633+441419474+440376795+439226759+438133133+437080666
3168+435887950+434505562+433144098+432030862+431243950+430875119+430938793
3158+430942355+430133688+428499925+426832717+425623918+424678877+423783466
3148+422952145+422047950+420870729+419638308+418859973+418693577+418706616
3138+418320181+417336091+416021631+414899748+414408378+414454966+414374725
3128+413659787+412597324+411845379+411602340+411554057+411398417+411099521
3118+410830611+410816672+410973384+410731797+409584286+407757357+405967263
3108+404664285+403907602+403678535+403838809+404047746+404053349+403802044
3098+403231435+402323297+401248971+400206430+399351313+398927110+399034224
3088+399277506+399058020+398205012+397066563+396137085+395757014+395856139
3078+395859701+395202834+394033914+393072409+392732873+392773339+392812595
3068+392709977+392352594+391545484+390282730+388865444+387668543+386869457
3058+386340421+385849535+385375803+385029454+384759161+384434082+384048581
3048+383583081+382912068+382055671+381205639+380395934+379515430+378659553
3038+378083272+377800493+377569351+377249080+376850886+376289789+375439998
3028+374393480+373368335+372450202+371608332+370827852+370131661+369574541
3018+369156771+368717211+368141518+367600585+367240955+366840408+366138682
3008+365237946+364363530+363509278+362534664+361447783+360530030+360170676
2998+360413543+360719391+360485344+359760446+359069130+358578210+357929989
2988+356958385+356036516+355503642+355219237+354887068+354432117+353936942
2978+353500426+353149753+352743949+352132252+351413441+350793685+350297645
2968+349812085+349218443+348405833+347423126+346601731+346242170+346221521
2958+346105242+345601939+344802852+344033579+343581395+343525122+343666962
2948+343611416+343082865+342216888+341400750+340841866+340452595+340120911
2938+339844080+339517238+338872683+337878529+336950469+336413652+336035829
2928+335496867+334978277+334820977+334874690+334590562+333659459+332371803
2918+331326426+330825232+330708814+330773422+330929476+330871440+330152836
2908+328800123+327442706+326671738+326493514+326466364+326247846+325899352
2898+325615605+325325216+324812229+324134368+323601182+323336907+323153668
2888+322896828+322645142+322478055+322284370+321928268+321405769+320785391
2878+320197835+319831253+319692561+319480165+318920936+318113929+317414140
2868+317094561+317131914+317245289+317211498+317075780+316880954+316400790
2858+315452912+314281882+313355205+312932869+312960366+313194586+313343135
2848+313204962+312758830+312149658+311614743+311363403+311438767+311654517
2838+311685542+311308583+310604229+309852629+309211326+308610074+307959848
2828+307315363+306800404+306452430+306157234+305737526+305118497+304370564
2818+303624325+303039640+302767548+302785741+302848826+302741262+302461354
2808+302036839+301362921+300409163+299440706+298843190+298748872+298902713
2798+298908074+298603989+298134443+297625814+297008859+296301565+295785293
2788+295611426+295493071+295115940+294600117+294195524+293780624+293092491
2778+292274727+291724802+291468031+291134133+290563767+289991222+289571359
2768+289168132+288686584+288224647+287826867+287381981+286776198+285986277
2758+285110166+284373923+283943269+283706369+283391631+282869306+282239243
2748+281700593+281381671+281220238+281012546+280599289+279937736+279044470
2738+278029062+277126026+276516058+276157724+275893207+275613851+275263646
2728+274839840+274442735+274174413+273969194+273652070+273152157+272555729
2718+271982614+271476302+270997296+270515298+270099153+269857843+269787097
2708+269750487+269631008+269431236+269193091+268889801+268459476+267908202
2698+267313314+266762108+266322687+265988875+265637632+265169071+264667100
2688+264287496+264076760+264005581+264020972+263991452+263800863+263509247
2678+263229390+262925219+262517773+262052532+261592497+261108822+260626479
2668+260305845+260224722+260225154+260117002+259893383+259609376+259218185
2658+258705371+258219275+257862809+257507761+257023429+256538267+256267126
2648+256204870+256168606+256035396+255796058+255477429+255134971+254850013
2638+254668191+254585339+254565487+254507502+254272435+253824298+253284437
2628+252826719+252570641+252525107+252589940+252672515+252778350+252901149
2618+252911508+252682511+252258151+251817917+251511377+251332132+251143273
2608+250878651+250671219+250663419+250760019+250734927+250542194+250362361
2598+250350930+250476099+250618007+250698870+250656139+250426796+250078613
2588+249833827+249813577+249869227+249795557+249584372+249348094+249150259
2578+249037905+249084199+249264879+249411180+249389702+249241187+249074844
2568+248916939+248760020+248716354+248970496+249527616+250130804+250509492
2558+250621846+250600818+250557135+250481806+250279544+249865647+249252618
2548+248592137+248142581+248076175+248235827+248238870+247913135+247443381
2538+247045930+246744059+246490903+246303167+246240981+246319233+246400442
2528+246249627+245824421+245389409+245207415+245265053+245394061+245471500
2518+245416698+245187873+244876785+244658354+244591619+244588852+244583370
2508+244582384+244574983+244547729+244555130+244617974+244616072+244439905
2498+244181337+244028620+244013903+243983554+243824611+243614239+243477051
2488+243391104+243258223+243091256+242976671+242896966+242731556+242424324
2478+242072926+241824888+241680075+241461038+241058953+240612527+240318490
2468+240191160+240140906+240135320+240150988+240111732+239971518+239744683
2458+239439889+239086346+238795473+238672864+238691904+238725142+238658026
2448+238453343+238181736+237993101+237958566+237932695+237698095+237275759
2438+236943296+236882009+236959379+236954451+236861465+236831167+236902726
2428+236945199+236839468+236606147+236334608+236087073+235936863+235993084
2418+236258864+236545811+236676998+236705860+236795301+236965017+237101824
2408+237130651+237052400+236897469+236728289+236612840+236571249+236640526
2398+236944196+237553264+238369367+239356899+240862450+243554577+248092275
2388+254958822+264547880+277257541+293414076+313087506+336018189+361729559
2378+389632988+418976979+448750950+477700205+504498076+528013306+547527119
2368+562791910+573892278+580985798+584287703+584271448+581297838+574833723
2358+563821966+547993760+527509208+502549472+476186284+454952104+444229040
2348+445771426+458310246+477226128+495021994+506390546+511566279+513121323
2338+512985571+512274784+511748723+511747720+511762419+510596024+507410468
2328+502467363+496601941+490137169+482676547+474081591+465028849+456089204
2318+446948197+437121685+426884493+416937793+407428197+397761371+387362764
2308+376314829+365197826+354573403+344716697+335617920+327086188+318944178
2298+311207279+304027466+297477887+291469934+285856266+280540631+275525881
2288+270929091+266904242+263480108+260521716+257902272+255636337+253781255
2278+252279318+250987495+249821082+248775342+247828553+246921764+246033773
2268+245190450+244413533+243741171+243259623+242991007+242759087+242301836
2258+241563345+240770588+240155259+239699028+239241051+238729309+238244337
2248+237863730+237611577+237461835+237309671+237026961+236605369+236172830
2238+235856277+235701087+235695242+235771142+235815430+235779426+235740395
2228+235756720+235729984+235544722+235308807+235294073+235604989+236022759
2218+236249180+236212259+236047402+235895308+235839675+235940858+236209250
2208+236593350+237021704+237423841+237775361+238148308+238611732+239096998
2198+239470809+239692059+239832204+240015374+240333501+240738301+241068896
2188+241233476+241291443+241359613+241497095+241661899+241778508+241859388
2178+241991336+242201069+242415176+242525749+242451596+242203870+241895324
2168+241618666+241358645+241076592+240807025+240612770+240482845+240343652
2158+240193633+240140283+240231125+240350708+240375368+240337686+240368260
2148+240544012+240882804+241514198+242745789+244796164+247552190+250775964
2138+254405541+258467381+262899020+267641816+272745886+278292144+284287474
2128+290634877+297235747+304160624+311573862+319424204+327365544+334997438
2118+342052394+348377402+353829827+358206889+361261016+362750899+362549087
2108+360817721+357998505+354546322+350744953+346658384+342119976+336939574
2098+331130251+324765503+317833501+310424932+302813133+295295893+288146965
2088+281597698+275756037+270680068+266454358+263050492+260272071+257917905
2078+255876592+254108997+252601526+251263478+249953894+248700946+247726143
2068+247174678+246920346+246636010+246080171+245354217+244747915+244387368
2058+244236277+244253934+244324058+244294019+244216165+244270414+244468422
2048+244671427+244791477+244862743+245005792+245281724+245575000+245758810
2038+245886002+246096098+246485767+247082315+247784023+248411976+248902689
2028+249317572+249705477+250082366+250454327+250859438+251453963+252333446
2018+253184102+253477551+253123679+252566456+252204248+252043196+251881850
2008+251595508+251224291+250881020+250611384+250373878+250136494+249896083
1998+249658232+249582608+250003768+250940492+251730448+251671703+250907617
1988+250118163+249654686+249468006+249474906+249594195+249692853+249721093
1978+249758567+249895391+250134246+250385413+250627847+251077299+251916817
1968+252810446+253102339+252669178+252110138+251942740+252113805+252396809
1958+252784973+253304497+253806468+254146073+254369122+254628279+255031626
1948+255682596+256836368+258666790+260571590+261230065+260114858+258328153
1938+257207412+257007346+257247515+257526818+257741583+257929803+258131304
1928+258491419+259448929+261252546+263222283+264433451+265125129+266016423
1918+266557114+265645172+263802939+262751716+263304945+264799947+266027992
1908+266335155+266000548+265686191+265700700+265936528+266276618+266786008
1898+267556993+268446575+269128690+269697310+270784883+272402010+273304683
1888+272574596+271056404+270020867+269623589+269415378+269264149+269262039
1878+269382849+269528441+269769821+270704314+273360125+277963400+282496619
1868+283664675+280764993+276590661+273785332+272813849+272867544+273159195
1858+273336433+273400834+273548414+273941680+274658122+275800722+277573540
1848+280400867+284523769+288582980+289522454+286457207+282481418+280424195
1838+280332887+280809645+281242650+282627512+286054827+290511438+293156614
1828+292990495+291884003+290906035+289266444+286914769+285199451+284885388
1818+285404186+286004850+286873127+288741957+291483042+293622079+293869304
1808+292750465+291929208+292684162+295345836+299095291+302087439+302896002
1798+302218591+302335701+305003462+309745861+313202990+312075885+307908522
1788+304833020+304545468+306002217+307856365+309785428+311485113+312328885
1778+312847372+314991251+320245910+327666343+333296473+333637635+329941893
1768+325367792+321823955+320803514+323000034+326633486+328796768+329311485
1758+329847921+330495381+331114894+333569188+339479711+347021231+351768471
1748+351915499+349907717+348603079+349147713+351286370+353731567+355083796
1738+356227987+360159401+367551368+373089603+371201214+365075078+359568006
1728+355865278+354127479+354312240+355680552+358321785+364109665+374246141
1718+385536838+390467387+386260630+378399843+372180531+369623239+371130035
1708+376106792+382432803+387468564+391546487+397668334+406137636+412136459
1698+412558380+409163921+402815048+395466038+391351695+392034917+395871046
1688+401784924+411165062+423444553+430491140+426283207+417895736+412843580
1678+413104501+417523792+422906180+426781079+430402875+435049123+437668878
1668+435248964+431554260+431835206+436175260+440174498+440648818+440015919
1658+442795948+451800097+467601186+484986787+490858851+486352851+485318403
1648+490562790+495110847+492512397+486668695+484022239+486541624+494335210
1638+507121532+521635830+529563646+527462758+523482750+524678613+531729765
1628+541858701+552508511+563443624+574374587+583229010+589986800+598389246
1618+610910670+623989628+631214820+633497114+636180889+640904784+645822502
1608+648972710+650371458+651413895+653142806+655568427+658426034+661970736
1598+666632029+672264442+678151067+683723783+688951465+693783478+697811423
1588+701075213+704412881+708284218+712165862+715741347+719963253+726389219
1578+735299465+743630318+747000981+747574494+751859486+762156651+774807775
1568+784427113+790927371+797711723+806829696+820117625+840489219+866091952
1558+881817055+880981584+875958654+872530093+869829232+867057124+864250912
1548+862482988+863696975+868347339+874574917+879972903+880697836+871893701
1538+858302378+849486346+846744881+845246870+840686085+834875344+832172546
1528+833366334+836157051+838977511+842341741+845707562+846743636+845350699
1518+843119869+839604634+834614423+830695149+830474003+834709328+843089571
1508+852730076+854275471+842418454+828458301+821698990+822360907+827052428
1498+830820767+829608925+824891256+822394663+825250817+831504957+835710331
1488+833749829+827156395+820251337+815708468+813648703+813110813+814040015
1478+817314804+823006844+829383144+833067023+830806863+823849579+817612179
1468+815505099+817064259+819376921+819795694+819470858+822109739+829510976
1458+838193919+839438895+831112470+821360250+815191123+812629508+812383252
1448+812843944+812325976+810096876+806883374+804248781+803978453+807218448
1438+812849547+816472691+814516133+809763462+806701518+806066371+805873102
1428+804868156+803951614+804191367+805584374+807976308+811103136+812990176
1418+810856257+805345865+799720369+795720785+793364890+792142188+791708819
1408+792294991+793863489+794980564+794429048+793560027+794341544+796481550
1398+798485492+799767822+799795422+797643103+794402001+792775674+793485113
1388+794333728+793084532+790779825+790436935+793216929+797697197+802098399
1378+806296856+811260573+816839032+821021786+822257285+821614599+821169678
1368+821818728+823619440+826642025+830215849+832372387+831784347+829621584
1358+828013311+827926291+829005044+830274646+830875690+830572574+829654233
1348+828480505+827349111+826812121+827790435+830814611+834868426+837618815
1338+837870328+837143804+837529236+839237948+841104582+842346722+843137646
1328+844104477+845914735+849010159+853230197+857810420+862072861+865996563
1318+869817335+873337965+876187893+878550083+881050342+884098866+887747743
1308+891884912+896127086+899822585+902570760+904615307+906370780+907606902
1298+907684445+906793566+906176957+906484501+906886603+906572835+905902548
1288+905225413+903899367+901411213+898385239+895818712+894152611+893383130
1278+893422213+894058882+894859974+895411837+895725467+896257961+897431205
1268+899272798+901450019+903400698+904646989+905486957+906824901+908779938
1258+910449152+911514417+912836728+914920635+916996448+918070567+918092840
1248+917679255+917175952+916523927+915755622+915031450+914360403+913575012
1238+912475161+910976528+909273834+907795675+906600020+904983654+902387659
1228+899558068+897988670+898144794+898980542+899578543+900405506+902111659
1218+903975318+904770324+904504008+904030242+903620876+902988704+902150119
1208+901546654+901597219+902432622+904120720+907093085+911684168+916974036
1198+921090522+923199470+924141468+924711523+924733866+924150737+923868926
1188+924936958+927221673+929505075+930882171+931743583+933009587+934643178
1178+935877293+936914128+938929899+941969500+944516796+945803069+946662543
1168+947568157+948110058+948721686+950475845+953006263+954764918+955290356
1158+955566149+956475567+958274480+961186595+965571127+971376266+977457127
1148+981821392+983108840+981736655+979333169+977266902+976254278+976841211
1138+978845292+980709228+981221247+981563791+983713066+987371627+990462624
1128+992241339+993837161+996096144+998782409+1001365952+1003509763+1005014691
1118+1005548983+1004957070+1004376155+1005637456+1008616461+1010962118
1110+1011459956+1011684077+1013224007+1015519375+1017117410+1017163894
1101+1015467426+1012838505+1011390922+1013167216+1018127129+1023699362
1093+1026755080+1026015413+1022258833+1017653847+1015348241+1017814605
1084+1024078084+1030105544+1033408971+1035155175+1036726924+1037471779
1075+1037014200+1036740482+1037797377+1039458498+1040286153+1040387076
1067+1041404611+1044390465+1048106025+1049347127+1046601996+1042669025
1058+1041121486+1042357885+1044986805+1048660031+1053083369+1055902447
1050+1055049958+1052446562+1052280271+1056267196+1062042452+1065303129
1041+1063708553+1059547796+1057508575+1059695065+1064333739+1069039787
1033+1072660234+1073741823+1071059847+1065860871+1060394750+1055533824
1024+1051768805+1049760159+1048876612+1047895877+1047307768+1048865613
1015+1052424427+1055171149+1055036608+1053387108+1052795125+1053012052
1007+1051363451+1047227942+1043143690+1040913621+1039745151+1038681823
998+1038120069+1038289750+1038224589+1036996353+1034964949+1033170877
990+1032006696+1030922270+1029340214+1027503947+1026240847+1026137226
981+1026921718+1027581836+1027460160+1026971730+1026868731+1027444527
973+1027810383+1025784790+1020246936+1013105652+1006954164+1002095243+997928191
963+995277965+995218131+996885546+998132044+997649355+995491848+992448996
953+989618990+987798771+986310167+983144326+977908620+972981425+970153840
943+968396983+965997441+963184727+961613531+962058729+963401100+963842424
933+962856294+961337254+960099610+959462596+959777333+960631689+960189743
923+957243456+953191854+950467821+950092972+951534953+953770694+955801130
913+956964966+957256392+956855257+955597415+953618790+951929792+951556466
903+952366689+953053093+952234223+949941621+947619898+946247229+945246433
893+943888844+942878502+943411619+945430226+947609384+948624567+947883240
883+945527829+942521293+940618966+941273965+944016191+946807253+948195487
873+947880611+945673369+941778029+937683263+935149386+934579400+935191235
863+936160626+937461494+939545954+941804453+942557955+941275210+939067622
853+936803935+934759803+933764403+934403631+935524511+935590433+934671538
843+933897285+934088064+935138733+936009414+935635672+934313914+933443856
833+933183765+932185875+930344074+929728227+931844714+935135759+936736422
823+936350160+936189264+937110233+937403319+935984166+934654660+935916445
813+940100237+945740260+951121091+954194310+952912118+947692184+941962029
803+938760494+938253110+938945532+939975518+941173664+942000697+942095187
793+942201644+943433754+945948124+948874420+951109124+952245083+952847580
783+953831359+955458516+956768722+955984715+952737180+949750289+950469135
773+954829733+959079308+960583337+960327259+959655520+958206898+955769103
763+953384017+951687479+950367865+949622042+949832397+950471487+951032895
753+951895690+953358423+954982398+956108050+956215753+955220007+953848514
743+953186874+953780378+955113688+955850381+955262272+954418914+954415525
733+954186078+951884553+947864840+944772806+944702733+947016433+948967527
723+948332311+945563107+943498500+944910598+950216999+957491995+964567565
713+970155708+972786150+971028602+965032961+956974512+950231318+947412517
703+948044620+948777578+946883828+943272166+941324531+943194692+948043929
693+952902157+955094873+954232908+952124030+950151285+947191925+942005401
683+935797191+930800755+927822510+925977666+924406677+922944982+921629173
673+920319797+917640587+911171457+903703884+904324504+912817706+920045249
663+921639065+919901438+917715847+914324087+908343664+901500100+896987460
653+896269997+897810757+897992475+894923683+890821653+888939110+890573391
643+894132828+895516841+891735982+884151161+876485821+870898993+867249286
633+864887650+864598438+867580832+871711707+871919710+866293315+859234623
623+856046715+856733327+858659242+861020671+863586506+865630292+866717138
613+866088009+862932544+859630846+860833488+867747401+874141133+870871116
603+859432735+851663221+852326659
##END=
