##TITLE=<SNM>
##JCAMP-DX=4.24
##DATA TYPE=INFRARED SPECTRUM
##DATE=3/5/2025
##SAMPLING PROCEDURE=Instrument type and / or accessory
##ORIGIN=Admin
##XUNITS=1/CM
##YUNITS=ABSORBANCE
##RESOLUTION=4
##FIRSTX=4497.3318
##LASTX=599.83466
##DELTAX=-1.4281778
##MAXY=1.7104435
##MINY=0.17519209
##XFACTOR=1
##YFACTOR=1.5929746e-09
##NPOINTS=2730
##FIRSTY=0.19837371
##XYDATA=(X++(Y..Y))
4497+124530360+124392402+124144832+124136300+124701019+125552607+125895208
4487+125235103+124060297+123502144+124100464+125202878+125892318+126117887
4477+126487822+127227887+127808948+127678296+126980653+126253627+125730937
4467+125301715+124942903+124842138+125118829+125600052+125949313+126017824
4457+125933402+125774004+125436604+124945082+124513120+124158592+123685741
4447+123132060+122736645+122439038+121953849+121356717+121083431+121293202
4437+121622566+121586085+120922014+119678303+118340723+117731926+118307768
4427+119522274+120333787+120323020+119751613+118713623+117169855+115693447
4417+115170747+115808729+117043188+118181120+118729544+118400394+117250563
4407+115793023+114756006+114540558+114857846+115138344+115244637+115399946
4397+115600362+115582982+115245526+114743883+114297692+114081776+114180174
4387+114536077+114957338+115192861+115080815+114670517+114155843+113636249
4377+113052073+112455746+112133472+112161619+112079507+111474789+110657064
4367+110255709+110427182+110858612+111215675+111269481+110914644+110327568
4357+109977951+110330590+111382761+112510712+113058547+113062485+113028856
4347+113115187+112949345+112201758+111065875+110175561+110106564+110880286
4337+111895134+112408797+112156643+111477670+110864589+110577412+110708616
4327+111251203+111912336+112209775+111969201+111510541+111275327+111428167
4317+111866893+112498636+113298615+114039607+114255111+113762186+113040044
4307+112768479+113118536+113748202+114360833+114972820+115592168+115885706
4297+115447148+114403676+113469303+113249618+113720429+114552943+115642410
4287+116931226+117934110+117974942+116964369+115585741+114627936+114410552
4277+114877976+115788056+116638661+116882219+116501153+116078863+116192396
4267+116981066+118153113+119070134+119098206+118238752+117151726+116464606
4257+116443980+117205045+118645364+120225165+121297056+121632052+121382414
4247+120790024+120143521+119753054+119754382+120063345+120521304+120882389
4237+120788228+120119106+119286835+118842955+118870195+119019620+119049414
4227+119121470+119572310+120423139+121189490+121369374+121022713+120584800
4217+120275173+120065235+120033103+120339166+120904820+121366839+121391946
4207+121086425+121070111+121859492+123122379+123882696+123587428+122640361
4197+121814096+121505909+121648740+122000368+122317553+122397813+122164405
4187+121780663+121622464+122026522+122951766+123892135+124259749+123950739
4177+123489591+123540385+124265493+125176873+125690349+125769963+125785707
4167+125861243+125790505+125531232+125303390+125233176+125301715+125530952
4157+125854386+125957003+125591418+124973641+124633350+124871165+125448840
4147+125833376+125720189+125282417+124920060+124828397+124877769+124946654
4137+125201025+125801590+126514332+126975012+127209487+127532257+128026417
4127+128439933+128518088+128205046+127627643+127067479+126843294+127084392
4117+127675060+128416538+129102498+129489130+129384156+128812430+128073647
4107+127669400+128031253+129121553+130418348+131388932+131784815+131556093
4097+130861256+130087019+129528895+129176537+128931782+128772319+128696287
4087+128758746+129055773+129467989+129619435+129282914+128694257+128377839
4077+128686175+129435726+130023232+130059003+129779057+129660585+129842180
4067+130142462+130367096+130346339+129956957+129352688+128955383+129055072
4057+129548342+130075654+130310400+130187756+129975357+130047450+130526680
4047+131205915+131760260+131972949+131866441+131635006+131361570+130936137
4037+130401202+130146887+130477477+131175149+131815048+132324137+132863310
4027+133327797+133420321+133227725+133277396+133798047+134338838+134457946
4017+134425506+134672824+134841239+134203855+132951464+132160119+132383340
4007+133098589+133687189+134203594+134907065+135653435+136089907+136102731
3997+135809773+135320160+134727584+134247671+134112632+134267511+134408191
3987+134466431+134745376+135342377+135826752+135822720+135555177+135518892
3977+135953633+136802910+137798207+138497741+138563511+138020213+137167559
3967+136462582+136418355+137229784+138505187+139564093+139921484+139522420
3957+138767350+138233276+138173305+138534877+139443629+140948904+142319851
3947+142738231+142661798+143087923+143758112+143491393+142103355+140650502
3937+140076849+140731931+142522166+144626546+145578402+144622702+142787033
3927+141812240+142323911+143373024+143811506+143870775+144623123+146167985
3917+147094051+146026352+143407485+140971326+139858239+140054708+141506158
3907+144847963+150322482+156346941+160191604+160545403+158099590+153996280
3897+149607673+146810878+146918743+149256466+151010659+150257133+149198825
3887+150805314+154224955+156236036+156514205+157058382+157173290+154991288
3878+152175241+151733064+153992529+157534759+161425418+164333912+164369103
3868+162491022+161525471+161603523+160434273+157349806+154373801+153648225
3858+156468275+163711365+174139893+180403943+175665411+165644150+157712734
3848+153976299+154104986+157009328+161331875+166069958+170721252+174220340
3838+174802402+172462499+169408620+166961049+164711714+162432258+160838454
3828+160286345+160661153+162912022+168241091+174591444+176962123+175084023
3818+173376414+172419956+169436271+164816426+161920728+162712887+166771063
3808+171532457+174341422+176205977+179496127+182558725+181748044+178466855
3798+176322943+174991190+172719911+170199526+169201964+170104935+172294739
3788+175353108+178906039+182228406+185188705+188715893+192988937+196361985
3778+197791340+198814514+201540225+206809970+214255038+222337058+229176716
3768+234577028+239558491+244577541+250488223+259063851+270543204+282259407
3758+291877853+300960054+312854831+329280269+348726510+366105151+378157156
3748+388248349+400027469+411788255+418756797+422315471+428510562+439688687
3738+454045890+468304610+480139183+488514237+493027948+494597637+495354736
3728+496965472+499472012+501493252+502056830+501785892+501780391+502640051
3718+504659196+508624184+516182158+528263460+541729085+549894603+550829883
3708+549209456+549683233+554149686+561612022+568530911+572093888+573437727
3698+575339194+579235522+585396151+593818575+603840359+612505695+615169687
3688+611650787+607131501+604676820+603995042+604724228+607532912+613356974
3678+621687576+628116037+627702914+624114867+623261979+622896376+618026228
3668+610613620+605600726+603806983+603802493+605273176+609043781+614796825
3658+619886349+621626661+621553473+624332523+632267774+642740923+648823312
3648+646863025+642121668+639965839+640695773+642398256+644233045+646978794
3638+650824908+654166263+655896285+657794684+662724250+670816317+677985377
3628+680428720+680238790+680088822+680330986+681220468+682655717+683527163
3618+683725474+684700716+686742198+689057949+692211245+696893484+700696493
3608+700210817+696057509+692148384+691432444+694264551+698806101+702441855
3598+704017942+704157134+703534587+702301840+701264860+702208896+706243442
3588+711607946+714626765+714474851+713386834+712460908+711365782+710592817
3578+710894026+711549350+711168892+709992795+710565727+715069934+722058943
3568+726362743+724304424+718613941+714671890+714437135+716316526+718462626
3558+720119834+720714169+719829028+718040411+716624843+716785139+719426568
3548+724380380+729066809+729585561+725069755+718986093+715009767+714221612
3538+715652819+717940731+719922496+720169898+717914015+714598178+712966340
3528+714123653+716028338+715651323+712945236+711270293+712784417+715712687
3518+717480874+717816431+717314966+715674072+712740265+709863556+708876341
3508+710503989+713760258+716089628+715387232+712070796+708383481+706473783
3498+707066396+708555077+708543103+707396491+707692685+710258906+713519216
3488+715860260+717006274+717769585+718773114+719036831+717072877+713560525
3478+710632255+709180617+708884049+709581206+711097351+712638715+713141003
3468+712007861+710176738+710125851+713086149+716840741+718358083+717663545
3458+716890431+716651709+715950735+714710505+713851331+713579308+713407488
3448+713371044+713956399+715057362+715920727+716002521+715206058+713574668
3438+711267898+708737298+706813007+706311242+707171538+708399870+709415073
3428+710793523+713066094+715539894+717239458+718333387+719151327+718623221
3418+715807876+712202729+710366892+710899114+712279360+713157616+713548102
3408+714105244+715004754+715712837+715573869+714273023+712350752+711138210
3398+711623212+713184108+714163840+714184120+714315753+714681244+713945847
3388+711765397+709540122+708385427+708107717+707987233+707641199+707072981
3378+706366919+705753501+705729629+706656378+708418429+710670420+712942617
3368+714268233+713559327+711254203+709903742+711801467+716106166+719201691
3358+718658917+716196940+715236815+716380359+717103484+715416118+712314981
3348+710334189+710670346+712617985+714676680+715719871+716033352+717112764
3338+719549371+721380120+720134502+716199709+712233337+710037022+709360968
3328+709057215+708515265+707928339+707408464+706829096+706917850+708963298
3318+712746850+716070171+717021840+715558304+712828270+710539610+710385077
3308+712984524+717487908+722020403+724954360+726039160+725715276+723777290
3298+720162190+716529055+715097473+716131236+717723637+718020056+717290645
3288+717209075+718148172+718728962+718140539+716860497+715389402+714376594
3278+714798435+716276190+717142697+717334124+718462177+720445813+721310000
3268+720505306+719536650+719375756+719357346+718557816+717133119+716020705
3258+715715306+715514825+714037220+710842689+707626157+707000916+709622065
3248+712865987+713316939+711009495+709479132+711241182+715061328+717857141
3238+717781409+715229332+712091301+710156458+709789545+710301861+711075798
3228+711473019+710645201+708778981+707464665+707657737+708476800+708766559
3218+708836604+709643468+710756106+710798986+709809600+709068441+708713950
3208+707548704+705651053+705021920+706893304+710119714+712233337+711344005
3198+707464740+702588980+699346854+699182817+701526705+704451458+705932131
3188+704836630+701591587+698157287+696626100+697334258+698596490+698481469
3178+696582696+693988338+692146439+692013533+693374995+694379796+692833194
3168+688808974+684936893+683614345+685051614+687779478+690020543+690879343
3158+690748532+690298179+689544372+688324347+686571576+684022716+680743324
3148+677682148+675772000+675145636+675655333+677142368+678849116+679468819
3138+678166626+675304734+672276411+670557764+670475895+671177617+671908974
3128+672393153+672060514+670429423+668296493+666988014+666567894+666168128
3118+665611510+665316363+665128604+664597804+663858066+663136887+662184095
3108+660873520+659708798+659265254+659446653+659672802+659656339+659435727
3098+658729739+657258495+655640127+654791131+654791430+655098700+655030601
3088+653941835+652160178+651180221+651519296+651598097+650236036+648616844
3078+648141197+648185424+647447332+646082128+645150291+644785548+644170858
3068+643067874+642174351+641744802+641187660+640454208+640410205+641284121
3058+641902628+641024596+638830302+636621265+635283376+634517521+633744856
3048+633306625+633901709+634920729+634644515+632551846+630202570+629259731
3038+629611677+629832813+628839162+626718804+624264648+622160342+620709565
3028+620052444+620231822+620897138+621334881+621071315+620144753+618822167
3018+617471780+616558614+616240755+616073200+615478604+614356013+613109422
3008+612312136+612280406+612674297+612583074+611336857+609224469+607015021
2998+604997074+603124194+601812422+601725464+602690042+603556999+603312440
2988+601786679+599437665+597184139+596122276+596647951+598031489+599118833
2978+599110114+597793328+595714803+593838593+592470732+591022500+589197401
2968+587652483+587013172+587015567+587027690+586869079+586722553+586492699
2958+585832622+584788945+583739879+582708997+581492452+580305878+579463804
2948+578737499+577822349+576975785+576531942+576211202+575396742+573858745
2938+571993610+570421153+569387877+568609075+567695422+566582523+565548349
2928+565016875+565185589+565653416+565620601+564523305+562426857+560005552
2918+558202081+557557607+557667052+557514390+556508616+554949741+553380576
2908+551963624+550743187+549967192+549744859+549783960+549815952+549933367
2898+550180844+550076114+548921606+546655882+544138828+542314852+541223654
2888+540203923+539006386+538138269+537932662+537818016+536897590+535041585
2878+533042608+531743147+531316703+531335673+531230082+530741975+530162719
2868+529974548+530091851+529753749+528432810+526569246+525061221+524230522
2858+523675513+523035566+522400971+521869647+521171255+519999535+518429210
2848+516895741+515889593+515425545+514842510+513584806+512007746+510888897
2838+510453323+510340398+510116157+509452301+508252968+506863068+505798736
2828+505218770+504904914+504590797+504079566+503258558+502220380+501192006
2818+500229149+499249230+498405697+497936897+497530135+496538018+495007729
2808+493686528+492896501+492225499+491263652+489890928+488128353+486323684
2798+485031332+484352210+483906870+483484655+483111381+482594200+481604927
2788+480207881+478885632+477957424+477249041+476480642+475675761+474866614
2778+473757418+472176766+470561054+469527554+469186272+469084983+468620935
2768+467496586+465929479+464385346+463157912+462313556+461825673+461517917
2758+461015179+460043342+458818303+457862406+457271589+456501131+455181053
2748+453755083+452862122+452406867+451702526+450371895+448758578+447429819
2738+446455250+445363604+443840050+442179101+440920162+440305884+440176682
2728+440148806+439852612+439166942+438243859+437261845+436208476+434978461
2718+433652994+432499497+431574282+430548115+429162930+427638666+426365022
2708+425417432+424584936+423664399+422631721+421713354+421221430+421081602
2698+420707916+419682461+418352429+417359339+416768746+416081617+415021962
2688+413929529+413266235+412960424+412438978+411328772+409911820+408695387
2678+407787085+406982391+406209052+405544111+404985921+404476524+403988865
2668+403431686+402670283+401743721+400847729+400036599+399188725+398304482
2658+397530994+396842929+396021809+395008626+394002552+393206427+392662979
2648+392249819+391744836+391046968+390317108+389751884+389350996+389017010
2638+388666673+388194505+387550181+386826907+386113436+385379647+384620228
2628+383925353+383313320+382687817+382048581+381551045+381238985+380916150
2618+380432645+379888936+379401876+378886604+378173881+377199350+376116721
2608+375299791+375003784+374974075+374712828+374110486+373449511+372907972
2598+372448339+372081389+371874995+371718180+371335589+370636935+369927281
2588+369592621+369594380+369477713+368920646+368067571+367252625+366608749
2578+366063244+365557888+365121154+364777552+364492358+364194367+363812076
2568+363342827+362917880+362702694+362691730+362726641+362756312+362893933
2558+363135386+363263053+363156976+362939919+362674556+362216607+361539243
2548+360928595+360669705+360712847+360762836+360590979+360186275+359679047
2538+359216047+358900208+358785899+358910910+359291555+359812365+360172131
2528+360096474+359612407+359008307+358547327+358293526+358165859+358052073
2518+357836737+357445914+357007572+356813526+356903776+356920277+356630032
2508+356258292+356044491+355875477+355569404+355129378+354617361+354109161
2498+353749020+353596321+353504574+353297694+352968498+352648394+352460223
2488+352413264+352391450+352251771+351956550+351606849+351339241+351206110
2478+351165363+351133596+351031110+350847354+350665133+350531665+350353709
2468+350037609+349657226+349358973+349169193+348985063+348724976+348444721
2458+348292583+348326258+348398511+348296624+347972030+347553069+347172836
2448+346885173+346696478+346548567+346302250+345886395+345458006+345274662
2438+345396080+345609171+345644343+345380066+344849415+344180770+343592983
2428+343324365+343431079+343705609+343892657+343920571+343858870+343773558
2418+343702354+343655769+343586435+343464006+343372484+343396655+343463108
2408+343445148+343355721+343297724+343313065+343383185+343490348+343628230
2398+343823061+344093176+344324489+344308699+343982309+343505913+343043848
2388+342563673+341897385+340933294+339657218+337977448+335634794+332464510
2378+328711453+324877837+321222663+317582457+313749495+309884224+306461748
2368+303885518+302163915+300905575+299787848+299135049+299727120+301996174
2358+305845524+311113828+317676336+325309332+333571049+341399026+347173360
2348+349636983+348842167+346424417+344338895+342822189+340641552+337079959
2338+332535491+327716642+323113055+319108255+316021411+313896489+312514971
2328+311677873+311261794+311088347+311058993+311378012+312373347+314060563
2318+316007791+317688310+318940364+320005894+321135519+322318987+323438061
2308+324473507+325443548+326283451+326937317+327522709+328240782+329094830
2298+329857317+330371879+330719035+331025520+331283287+331430374+331511681
2288+331692369+332099992+332657733+333118039+333260262+333034823+332591991
2278+332202291+332020929+331909651+331616225+331096575+330539770+330147787
2268+329988128+329998044+330085974+330236915+330456591+330620853+330561547
2258+330339139+330223707+330339887+330519976+330568244+330495056+330438219
2248+330496141+330678737+330921537+331133805+331288076+331443769+331648703
2238+331865049+332058983+332311025+332721941+333247690+333769323+334263043
2228+334740711+335149830+335505331+335933346+336433390+336852126+337217317
2218+337826582+338872579+340177841+341419905+342527716+343747030+345326484
2208+347241684+349252184+351135616+352835929+354437497+356044416+357737731
2198+359617309+361737255+363998339+366230873+368336638+370288806+372108179
2188+373849201+375528261+377154449+378810946+380530341+382173592+383562481
2178+384596019+385268331+385748768+386286939+386906493+387391832+387604062
2168+387622696+387596167+387571584+387491362+387344013+387217468+387185700
2158+387302517+387673396+388362359+389292663+390275313+391053030+391435845
2148+391422786+391145637+391080232+392320425+395797568+401154550+407196417
2138+413229266+419168685+424896771+430318785+435555958+440743366+446016384
2128+451562398+457443932+463542486+469530959+474807270+478846232+481520514
2118+482820724+482796852+481915864+480808277+479719100+478793436+478709884
2108+480514665+484883235+491827455+500973639+511522520+521735207+529094234
2098+531470749+528189299+520394661+510382829+499853967+489034598+477751854
2088+466317458+455030972+443846823+432703907+421760686+411550581+402802141
2078+395722733+389884753+384968096+380958955+377729028+375058488+372818919
2068+370858857+369068070+367470243+366019129+364624029+363346831+362233669
2058+361222918+360373174+359792983+359419110+359154533+359019307+359127742
2048+359715342+360993476+362965811+365696518+369571443+375084268+382691334
2038+392828064+405628487+420731526+437485525+454925905+471550664+485608866
2028+495618378+500650168+500641300+496486008+489608390+481411705+472805600
2018+464075045+455343556+446886147+438784276+430789643+422782475+414978633
2008+407620803+400776487+394440259+388626487+383337080+378516061+374076361
1998+370008775+366495301+363813498+361951955+360393155+358558702+356396549
1988+354221188+352248741+350585845+349314035+348376136+347622441+346948071
1978+346236770+345391590+344504728+343756683+343234751+343032885+343212712
1968+343462921+343226257+342421900+341600779+341189864+341036229+340822352
1958+340516728+340227344+339937099+339573815+339158671+338801300+338616870
1948+338689347+339152647+340125382+341248646+341583642+340631449+339088065
1938+337919002+337309513+336919140+336578531+336399303+336457935+336622421
1928+336820134+337365228+338525610+339828177+340608588+341105413+341835572
1918+342264897+341503495+339959886+338886835+338849942+339461451+339990006
1908+339936275+339350023+338658366+338139988+337760091+337510032+337633733
1898+338359440+339437055+340217578+340525933+340987848+341864122+342270846
1888+341450325+340006433+338883954+338235739+337875598+337809856+337972546
1878+338126069+338187919+338384397+339260259+341489575+345020299+348140070
1868+348425152+345661106+342198519+340043176+339418646+339569138+339778786
1858+339729920+339509644+339390695+339490487+339811826+340496448+341803805
1848+344043748+347284377+350352587+350870740+348286746+345094573+343455288
1838+343334393+343611729+343819993+344823223+347598008+351299616+353463452
1828+353218257+352173906+351232040+349725175+347673890+346255666+346064127
1818+346562112+347128684+347923238+349493937+351712028+353472021+353822508
1808+353129504+352617786+353265253+355327502+358215586+360645010+361568242
1798+361360801+361716825+364179026+368452893+371644917+370940538+367744885
1788+365576596+365768434+367376363+369352964+371525444+373570630+374788111
1778+375529084+377503253+382115708+388703566+393999073+395003874+392649210
1768+389545416+387260310+386994124+389354401+392919325+395264784+396207847
1758+397194576+398387062+399609444+402229022+407450592+413721078+417534152
1748+417634730+416048166+414991467+415411886+417272419+419582482+421040705
1738+422287221+425905913+432576613+437994586+437561445+433721804+430370047
1728+428472733+428225181+429743720+432473941+436311972+442594432+452251361
1718+462700076+467997864+466101448+461389426+457961375+457400042+460219952
1708+466144590+473321658+479266277+484309554+491422264+501139959+508962996
1698+511702871+511218093+508679823+505331882+504426386+507613433+513766354
1688+521805102+532743832+546293123+555801768+555828820+551845348+550306940
1678+553233339+559969108+567874838+574507821+580712304+587988751+594232184
1668+596381465+596608962+599272056+604937319+610326144+613028264+615085312
1658+620034783+629921043+645099628+661335922+667950010+665756614+666300211
1648+672199631+677711857+677165791+673418309+671794178+673873452+679436117
1638+687662137+695218316+696125533+689993753+683738271+681492491+682690964
1628+685157131+687567696+689766481+690890493+689886814+688505446+689787434
1618+693634296+695696807+692517468+686849286+682445133+679669151+676925198
1608+673116951+668904373+665703631+664186439+664213753+665465134+667557055
1598+669924216+671938534+673052369+672920735+671610160+669612681+667512678
1588+665656186+664142885+662924881+661749906+660557420+660412615+663180440
1578+669245618+675211416+676341116+674338173+674718856+678666819+682803515
1568+684454586+685604341+689071045+695684833+706369389+723118747+743933485
1558+756611478+756887393+756111136+760087760+767959141+777671223+787806868
1548+797956133+808931270+821586440+835421074+848586239+856363703+852116926
1538+840308658+832578714+832024116+834467684+834885409+833672044+834743523
1528+839251472+845139218+850616347+855818534+860385154+862952422+864275045
1518+866003720+867234970+866757601+866113277+867794207+872804520+880829610
1508+889629910+892739279+886282044+877636127+873351634+873714880+876671886
1498+879636900+880324927+878770467+877784075+879671922+883671371+886336449
1488+885229498+881906777+879108045+877758257+877434748+877957541+880111649
1478+884734693+891518281+898883482+903962343+903098679+896332378+889422320
1468+887466822+890949989+896128454+898395861+898159011+899824824+905554894
1458+911972018+911796681+904410376+896837136+892586243+891391063+892176600
1448+893208117+892726108+890842302+889087511+888435703+889357438+892413301
1438+896825387+899140389+896929856+893050665+891101828+891203752+891383804
1428+890679987+890263832+891455271+894176549+897730135+901640905+904510879
1418+903928069+899991106+895647269+892966252+891910937+891078031+889367840
1408+887479020+886758964+886921878+886663325+886140383+886596648+888241583
1398+890103537+891023851+889875816+886311155+882079943+879564909+879041368
1388+878343462+875210296+870553052+867936393+869628773+874804095+880973666
1378+886259818+890144322+892754171+894491976+896167967+898324020+900482544
1368+901955659+903257253+905633769+909102942+911880345+912164566+910232567
1358+908033409+907246824+908202460+910225607+912513070+914379515+915342184
1348+915745317+916729390+918896818+921685746+924438305+927059155+929310922
1338+930763831+931683471+932425080+932235450+930627034+929262504+930265210
1328+933428684+936913946+939724502+941969459+943772967+945088182+945864140
1318+946052722+945907768+945962173+946407886+946961362+947375196+947635470
1308+947655151+947204124+946417465+946053695+946626777+947585181+948157589
1298+948488432+948950385+949157377+948583397+947221935+945104196+942201146
1288+939054060+936591859+935180108+934256053+932899455+930581834+927401373
1278+923903688+920782869+918473630+916844485+915433632+913843626+911688171
1268+908777113+905849741+904320800+904582570+905128038+904020788+900885003
1258+896798671+892635634+888477610+884435206+881010859+878532419+876901778
1248+875876172+875197200+874688625+874367137+874150267+873719894+873140451
1238+872982700+873321027+873486560+873328136+873730969+875361012+877690457
1228+879694672+881010410+881945167+882715811+883371136+884277755+885963175
1218+888413702+890898578+892619769+893592242+894815709+897183918+900305485
1208+902925437+904602850+906245765+908790433+912173846+915716057+918965666
1198+921991894+925012808+927923043+930347677+931999796+932780095+932997114
1188+933689183+935961529+939670247+943436886+946216161+948047433+949313407
1178+950443256+952054665+954402669+957039010+959390157+961038534+961594928
1168+961348423+961607126+963452691+966571190+969692084+971717177+972372727
1158+972550982+973826160+976716863+979880113+981796322+982623991+983719865
1148+985720638+987500424+987415562+985672669+984674528+986327320+990136840
1138+994531265+998516496+1001276987+1002107873+1001897888+1002688064+1005027163
1128+1007330715+1008199318+1008137280+1008450761+1009234951+1009366360
1120+1009048089+1010730367+1015484970+1020147377+1020645998+1017513281
1111+1015244976+1016832138+1021281268+1025418637+1027295708+1028290107
1103+1031415116+1037650617+1044182911+1046472245+1042984139+1037280112
1094+1034106012+1034833851+1037540835+1039931644+1041607860+1044042597
1085+1048217159+1052445601+1053789477+1051766404+1048950835+1048000663
1077+1049414584+1051784589+1053416802+1053529952+1052436995+1051114821
1068+1050525875+1050866895+1051700251+1052827781+1054002680+1054241552
1060+1053453172+1053962719+1057558511+1062685191+1066653659+1068524743
1051+1068770350+1068196819+1067723192+1067756718+1067967526+1068030387
1043+1067938117+1068094969+1069199974+1070866162+1071268995+1069638429
1034+1067496818+1066599703+1067407391+1069741102+1072641084+1073741823
1025+1071435502+1067465687+1065032896+1065202770+1066448313+1066549041
1017+1064492217+1060990192+1057411911+1054877420+1054525324+1057328920
1008+1062558646+1067325073+1069120425+1068350529+1067151008+1066543278
1000+1065746517+1063791917+1061076327+1058723384+1056558425+1053219913
991+1048515299+1044052700+1041005443+1038715511+1036108580+1033150526
983+1030311609+1027627673+1024889034+1022493585+1021361864+1021708946
974+1022312635+1021421208+1018304655+1013738559+1009230161+1005822727
965+1003131308+999654951+994464812+988135319+982107409+977686866+975117278
955+973549946+972373325+971734913+971218780+969370071+965543789+961295590
945+959121875+960077511+962606838+963778969+962127150+958841546+956051121
935+955153632+956459118+958781678+959806685+958338659+955617381+953500840
925+952519611+952298326+952514373+952721664+952349288+951579093+951428900
915+952235839+952749128+951870348+950548922+950418785+951451650+952453383
905+952776742+952155766+950261334+947632027+945520425+944030173+941954118
895+938950115+936642223+937012129+940233301+944182162+946173804+945442822
885+943180055+940376384+937313861+934703413+933207100+932166452+930640130
875+929053791+928482580+928993250+929620886+929710912+929479823+929122713
865+928221408+926636864+925331827+925487558+927080483+928868351+929667508
855+929513873+929664365+931095273+933030865+933929027+933609783+933181806
845+933219747+933255592+933182778+933440882+933450835+931944120+929479973
835+928613016+930553622+933290764+934291899+933834661+934122698+936350219
825+939590324+941688979+941175091+939054360+938010719+939043583+940169467
815+939393359+937585061+936979127+938310431+940753475+943326056+945094692
805+944973087+943022378+941035376+940815737+942240060+943401415+943010779
795+942059410+942321854+943890083+945359906+945828219+945587103+945356014
785+945725846+946674970+947322512+947216921+947193872+947542301+946721891
776+943700004+940133921+938578563+939831964+942705904+945722104+948168515
766+949505432+949023723+946235543+941596933+937004122+934790371+935857809
756+938823496+941101679+941093896+939211362+937039743+936171889+937714076
746+941988242+947923582+953350273+956840923+958427861+958452257+957475743
736+956931772+957638059+958429283+957783388+955796310+953348327+950909250
726+949358232+949944335+952229254+953737616+953114320+952137956+952856965
716+954543208+954817626+952133166+946674970+940544687+936769890+936567388
706+938137788+938644118+936392725+931516965+925856791+922056401+921285008
696+922090825+922420321+921371591+918471459+913661254+908674665+905366461
686+903608750+902802709+903300956+905019154+905991926+904000059+898763448
676+891483409+883927155+877825608+873480424+870592265+871747634+880161264
666+890921552+895865860+892022665+882294119+872794642+867344827+864796417
656+862367217+860166263+860424217+862913134+864253718+862701428+860093524
646+857881419+855694684+854281137+855479759+858306179+858413043+853353789
636+846010365+840862956+839395528+840457728+842809698+845349876+846096574
626+843330994+837773268+831653611+826334083+823397432+825167265+831109640
616+836176602+835666830+831228028+828974166+832257824+838572275+843227423
606+844413474+842286231+835835357+825403967+815215638
##END=
