##TITLE=<SNM>
##JCAMP-DX=4.24
##DATA TYPE=INFRARED SPECTRUM
##DATE=2/5/2025
##SAMPLING PROCEDURE=Instrument type and / or accessory
##ORIGIN=Admin
##XUNITS=1/CM
##YUNITS=ABSORBANCE
##RESOLUTION=4
##FIRSTX=4497.3318
##LASTX=599.83466
##DELTAX=-1.4281778
##MAXY=1.7399665
##MINY=0.19042577
##XFACTOR=1
##YFACTOR=1.6204701e-09
##NPOINTS=2730
##FIRSTY=0.20794457
##XYDATA=(X++(Y..Y))
4497+128323610+127975484+128046648+128189079+128150163+127834607+127345899
4487+126917771+126669978+126677022+127102694+127797549+128168379+128036956
4477+128075320+128827077+129992580+131130211+132126791+132595508+131931992
4467+130452874+129480377+129794240+130806940+131589070+131836073+131521005
4457+130646211+129768189+129758929+130562494+131024388+130372523+129192822
4447+128529048+128617960+128883731+128752271+128195727+127722752+127949037
4437+128953562+130035965+130348715+129702036+128540322+127393284+126675385
4427+126693657+127366534+128015815+127813945+126615476+125197407+124442809
4417+124437494+124651364+124786025+124923342+125030553+124922018+124634886
4407+124423397+124437907+124580540+124604136+124372573+124042019+123792764
4397+123457273+122784377+121992187+121589356+121717129+122110874+122616015
4387+123307495+124083059+124467618+124003251+122804883+121584427+120981979
4377+120942870+120916414+120622781+120331254+120296816+120293644+120025648
4367+119755564+120049520+120916111+121602230+121340882+120104132+118610798
4357+117796584+118189309+119491523+120781975+121336183+121212494+120907853
4347+120635388+120251454+119825230+119788135+120290940+120800660+120647968
4337+119747454+118592866+117759774+117512671+117680885+117864199+117909616
4327+118125004+118789725+119519845+119523863+118664445+117847785+117974004
4317+118864761+119680906+120023947+120086752+120067699+120053198+120192768
4307+120456001+120516195+120270499+120110551+120306656+120525566+120363696
4297+119971228+119743160+119704501+119593814+119398086+119426464+119842113
4287+120379163+120648814+120612133+120551892+120618422+120693247+120714571
4277+120790499+120929003+121031258+121253901+121926871+122892177+123350116
4267+122734877+121495129+120601567+120447909+120662699+120896598+121273865
4257+121996592+122953861+123829022+124303680+124199604+123693958+123275687
4247+123271660+123577220+123986625+124470258+124945191+125162749+125088909
4237+124990084+124933963+124695595+124309464+124104733+124140366+124241986
4227+124447204+124774392+124880932+124569910+124248736+124372702+124755357
4217+124810908+124382026+124011039+124260240+125009128+125667982+125819166
4207+125378854+124516392+123718997+123506579+123848370+124234593+124381925
4197+124494534+124790751+125148349+125377172+125574224+125959298+126510775
4187+127014592+127315131+127330156+127031732+126598740+126420153+126791727
4177+127694936+128874407+129956055+130519054+130379824+129909847+129764042
4167+130180602+130788981+131105171+130961445+130505794+130046503+129830177
4157+129825956+129856090+129934390+130216538+130628601+130855797+130750112
4147+130505169+130365166+130366389+130404790+130336430+130001840+129430914
4137+129017950+129169640+129766166+130228612+130119387+129523679+128893837
4127+128647800+128899731+129437884+129875612+129940689+129731196+129573252
4117+129601133+129744106+130104849+130891383+131855880+132299622+131892065
4107+131114450+130683950+130881434+131550835+132335503+132786629+132647886
4097+132152401+131743740+131519175+131245220+130862095+130659526+130911145
4087+131549373+132308992+133007130+133506882+133635225+133414889+133205764
4077+133348782+133755402+133991691+133720615+133023112+132270812+131731335
4067+131433316+131325783+131329985+131348293+131416046+131666028+132069190
4057+132464545+132787512+133017861+133079665+133008859+133012298+133224348
4047+133584079+133915589+133979075+133607298+132983911+132609761+132737598
4037+132995957+132867624+132374217+132016656+132234205+133031296+133902080
4027+134235963+134058433+134032511+134494579+135046921+135269849+135179815
4017+134921548+134607528+134462146+134654812+135003012+135122315+134868692
4007+134489981+134322732+134455480+134765168+135132256+135454303+135588246
3997+135480676+135232699+134924187+134610830+134527168+134882458+135431747
3987+135732203+135803597+135983215+136238043+136214254+135886385+135688230
3977+136021763+136836666+137596892+137708039+137152534+136516595+136264820
3967+136370174+136775901+137671220+139015954+140233513+140721954+140392826
3957+139559826+138674724+138290735+138936476+140700896+142838758+144112410
3947+144089550+143731428+143936554+144188614+143521024+142157347+141105254
3937+140953683+141959661+144313122+147419959+149496624+149158769+147374772
3927+146420574+147152110+148316565+148682153+148918480+150263683+152264484
3917+152892965+150862582+147178115+143962927+142520987+142918033+145023554
3907+149306938+155988768+163505418+168813842+170073121+167638279+162583432
3897+156700487+152802067+152917977+156252938+159068404+158607429+157303496
3887+158666962+161793091+163349461+163495726+164421831+164512463+161334103
3878+157750365+157972843+161947466+167075142+171837753+174819070+174109355
3868+171404807+170623550+171912844+171761430+168528632+164669505+163340118
3858+166480648+175161477+187762345+195194009+188927461+176019259+165622608
3848+160701962+161350618+166088401+172409553+178600219+184366472+188557817
3838+188540033+184374804+179744590+176813334+174651380+172208500+170204397
3828+169510646+170184204+173210763+180138915+188698142+192229373+189449274
3818+185808762+182791968+177694178+171066832+166750961+167244396+172439824
3808+179254061+183715149+186463193+190744434+195109042+194898224+190961965
3798+187472463+184639268+181059558+177833951+176937162+178584862+181879583
3788+186229000+191074850+195431219+199303275+204281485+210824306+216563745
3778+219859790+223052054+229473290+240268569+254324637+268642283+280057215
3768+288595936+296150251+302815262+308708691+316167446+326566542+337568943
3758+346509473+355179727+368071415+387965315+412943524+435235595+449348859
3748+460088413+473092654+486623986+493917147+494730514+495890261+502146087
3738+514893808+531793591+546161683+552253902+551444176+549037950+548178458
3728+549106255+550926207+552392461+551983699+548562723+542796947+537174881
3718+533882091+533924317+538011016+545688957+552761314+553525319+548401395
3708+542779954+540552490+542727208+547655450+551817480+553345123+554010956
3698+555934782+559573656+565291284+574208274+586319036+597568466+600477910
3688+593266921+583483376+577389834+576206841+579063429+584811512+593236759
3678+604203959+613057978+612383721+605263290+600314744+597016474+588712424
3668+575576171+564586645+559447751+558692242+559088240+559839335+562892525
3658+568473101+572986954+574594525+577363718+585506220+597186592+603699342
3648+599076541+588744572+579672029+573397849+569108295+566813262+567309861
3638+570543026+575146958+579591182+583687849+588830275+595792505+601671644
3628+602541178+601023760+601574502+604695702+609529524+615272825+619717453
3618+620999758+621043529+622501507+624898684+626943413+630052622+636014741
3608+642946148+646991615+647470888+647071727+647751390+649107701+650396701
3598+651921769+653778835+655022739+655636416+658094799+664303506+671821665
3588+675060127+672011830+666687736+662460124+659680631+658302177+658489914
3578+659819448+661688872+663633038+665318993+667609207+672220017+679023790
3568+684136679+682831642+675767525+668251279+664174916+663876979+665637822
3558+667818719+669359457+669182681+667016938+664530380+664122390+666427465
3548+669311272+669647242+666749089+663174363+661147069+660120842+658713477
3538+657003982+655829008+655390048+655565646+656183001+656253696+654582602
3528+651994231+651206795+653498701+656911144+658634395+658073391+656402959
3518+654587457+652985882+651722556+650873768+650584732+650646674+650099794
3508+648448930+646648141+645561371+644782984+644286570+645128885+647104904
3498+648145108+647094311+645114760+643773824+643744840+645183617+647370252
3488+648408249+647423586+646256410+646931954+648563102+648356312+645324787
3478+641595649+639866144+640578176+642052853+643067456+643871886+644295692
3468+643251809+641046342+639578727+639574166+639785812+639117109+637949271
3458+637250333+637280715+637209137+636039606+634031660+632755534+633477865
3448+635754690+637870704+638535139+637723942+636137006+634681088+634264565
3438+634998814+635786102+635618375+634777752+634200711+634487466+635577179
3428+636556618+636044682+633484044+630064392+627924765+628391900+630876399
3418+633289760+633948826+633013084+631486029+629426293+626440525+623536340
3408+622543880+623577904+624826075+624960625+624156049+622799591+620949072
3398+619186905+618551601+619364784+620708074+621093847+619904454+618144347
3388+617313434+617820295+618736616+618834530+617732606+615894262+614036939
3378+613236078+614804770+618747577+622647385+623552157+621150492+617975222
3368+616714912+618170757+621172047+623782708+624817174+624475614+623514344
3358+622227699+620602877+619048677+618199815+618085642+618310309+618943185
3348+620187825+621288426+621025726+619291146+617070781+615215849+614227324
3338+614464938+615533464+616369012+616756587+617571793+618770676+618792672
3328+617038597+615092665+614475862+614974226+615815989+617006302+618640320
3318+619924096+619834936+618398513+616604418+615339107+614643516+613810875
3308+612327003+610853540+610987060+613331896+616059783+616630350+614842803
3298+612824594+612263737+612817201+613103404+612709502+612626558+613559578
3288+614876790+615811943+616623545+617746362+619029918+620426395+621997147
3278+623113491+623053536+622197170+621415178+620624431+619287541+617986036
3268+618054157+619742759+621790578+622839315+622603099+621650952+620629140
3258+619753058+618893529+618166196+618056364+618645396+619162555+618743457
3248+617412526+616063351+615484654+615550899+615567672+615312771+615220925
3238+615554210+615968489+616006411+615700824+615494107+615567083+615479063
3228+614648555+612919750+610631669+608343993+606519553+605411743+605129181
3218+605732669+607058598+608327845+608442238+607021779+604831281+603182073
3208+603010152+604138008+605418658+605935965+605723657+605010301+603567551
3198+601383748+599261813+598216938+598606242+599818183+600440282+599324527
3188+596996317+595140428+594499570+594400957+594259639+594113392+593821120
3178+593083230+592048212+590971042+589727248+588261694+586979756+586318190
3168+586203833+586003002+585083186+583503864+581855023+580526667+579661068
3158+579426949+579632341+579615458+579114079+578570951+578226668+577703035
3148+576615971+575057614+573632778+573072142+573297249+573191721+572127645
3138+571023256+570840889+570963411+570155782+568447869+567104505+567071585
3128+567987354+568555898+567807084+566044218+564467544+564100898+565142683
3118+566795717+567683459+566956677+564991214+562789792+561057602+559857690
3108+558759186+557522969+556568615+556295580+556206088+555560154+554575418
3098+553894136+553290317+551993851+549977922+548035595+546834947+546431997
3088+546466425+546511299+546410038+546393081+546641766+546911417+546847894
3078+546419233+545786908+544960888+543803569+542409630+541445418+541716798
3068+543059941+544153295+543983214+542990643+542189782+541810666+541386934
3058+540592620+539456193+538084213+536620166+535321199+534329217+533442689
3048+532432021+531527986+531202830+531479028+531823458+531749305+531248771
3038+530613430+530050440+529560831+529109659+528664372+528019909+526938913
3028+525634281+524733446+524462103+524158354+522950165+520807301+518663848
3018+517477104+517268254+517200869+516607239+515697538+515023723+514554087
3008+513825098+512798393+511870191+511083344+510044979+508724016+507714893
2998+507485003+507728613+507718718+507070099+505926095+504687708+503852639
2988+503819425+504472421+505111624+505046630+504139799+502706870+501268608
2978+500315210+499819752+499164623+497927891+496398151+495074061+494147882
2968+493597361+493242155+492695717+491851562+491284048+491550389+492274412
2958+492499299+491821916+490655181+489445521+488165018+486709321+485364670
2948+484530410+484183553+483960247+483648922+483261346+482785604+482236812
2938+481710751+481119108+480162105+478881970+477964877+478080300+479030056
2928+479811570+479523822+478053007+475921104+473813477+472290064+471546178
2918+471240113+470814983+470177508+469730714+469587630+469175779+467931212
2908+466126635+464633457+463955596+463831566+463788604+463708676+463690542
2898+463703085+463541831+462922270+461680977+460082565+458718492+457892104
2888+457300828+456481907+455455239+454792973+454979239+455706278+456050414
2878+455498532+454487018+453689026+453118642+452340255+451368025+450803600
2868+450923584+451129602+450708628+449736104+448766154+448033634+447383985
2858+446646279+445777076+444857223+444029217+443327447+442661760+441988019
2848+441291031+440455153+439386626+438214190+437227283+436650353+436463535
2838+436382320+436065404+435373344+434413436+433433408+432711151+432380588
2828+432251298+431886381+430964174+429587559+428204360+427196525+426573212
2818+426049027+425336517+424389961+423473088+422939965+422849444+422846133
2808+422470880+421507514+420061565+418486178+417197399+416375609+415905457
2798+415709959+415865622+416145498+415861686+414668063+413194269+412326538
2788+412123720+411922925+411270002+410304945+409412679+408821845+408424596
2778+407852484+406851159+405573635+404373024+403421943+402674453+402050662
2768+401458246+400701045+399605557+398300153+397188150+396531585+396180535
2758+395787626+395186640+394489909+393859313+393236662+392403322+391346125
2748+390392102+389853682+389680842+389553649+389184023+388532167+387845735
2738+387394637+387117556+386700628+385951115+384895095+383687127+382598995
2728+381806300+381094231+380155362+379167683+378569309+378318159+377963504
2718+377368440+376774442+376251140+375616020+374820786+374034490+373388299
2708+372808425+372058728+370996197+369854070+369036693+368544031+367955992
2698+367087009+366232078+365662246+365290966+364933294+364575366+364272427
2688+363956577+363467004+362746659+361928584+361189737+360597983+360128236
2678+359715723+359260027+358675151+357949362+357117493+356251049+355512092
2668+355074898+354922141+354826728+354585436+354171267+353634061+353017994
2658+352436980+352050398+351861300+351658005+351224304+350533606+349726675
2648+348982790+348394677+347895247+347354032+346783354+346327107+345993822
2638+345574835+344914702+344103799+343337366+342723800+342258725+341893145
2628+341609958+341426856+341271414+340957992+340417402+339814613+339308231
2618+338842751+338294768+337701837+337228228+336933418+336693008+336414051
2608+336171288+335970604+335593364+334919733+334170771+333594981+333177539
2598+332827812+332564598+332362038+332071016+331634704+331210825+330963648
2588+330832703+330599907+330164993+329690832+329401392+329227412+328835276
2578+328142113+327570552+327513650+327740413+327632898+326896443+325818721
2568+324923403+324504930+324433609+324353497+324076085+323728161+323519274
2558+323464432+323372954+323085243+322661732+322281292+322020064+321835049
2548+321699359+321631680+321607845+321503236+321161454+320565581+319907766
2538+319412382+319126509+318947306+318796793+318700938+318708442+318781638
2528+318831295+318846964+318882716+318907360+318795836+318490175+318065671
2518+317642417+317315201+317151189+317160127+317217029+317089578+316669929
2508+316152917+315841003+315790942+315793848+315657348+315355145+314963818
2498+314597025+314315493+314009832+313525960+312948037+312516690+312269771
2488+312069491+311943511+312016267+312160123+312119294+311913460+311756988
2478+311673382+311508266+311233760+310974812+310771516+310504661+310086519
2468+309617839+309267671+309041865+308801934+308507491+308268517+308116072
2458+307922579+307640698+307421677+307396629+307519886+307675549+307766346
2448+307707549+307478469+307142831+306770888+306430100+306197893+306043609
2438+305812929+305452536+305101246+304883532+304778794+304726821+304704972
2428+304684061+304614414+304464894+304235869+303974310+303805736+303849838
2418+304044270+304186250+304221211+304305976+304503791+304644042+304564188
2408+304286297+303933500+303642147+303523267+303599572+303826243+304168005
2398+304558266+304831283+304815356+304485915+303995239+303580574+303413563
2388+303462888+303495147+303263436+302707987+301928459+300939474+299544983
2378+297597543+295369786+293471285+292290738+291646275+291054098+290181474
2368+289020900+287913881+287434902+287871379+288811590+289675533+290602006
2358+292309147+295105339+298694061+303062072+308554278+314649550+319779432
2348+322666072+323320429+322901479+322504340+322059899+320935905+318970405
2338+316360626+313203858+309545304+305728863+302452331+300228435+298849650
2328+297684350+296377952+294971580+293622883+292546246+292004792+292069934
2318+292462438+292774223+292840063+292835649+293011892+293417417+293934227
2308+294460214+294918264+295196780+295268800+295295117+295432021+295607804
2298+295648356+295521770+295318051+295125477+295048621+295181295+295462900
2288+295716533+295883359+296068852+296330797+296566572+296644642+296546434
2278+296340747+296088089+295816930+295554911+295348194+295249011+295250795
2268+295248514+295154260+295033466+295007333+295072732+295153027+295242445
2258+295369289+295518000+295694592+295955047+296265159+296433493+296314926
2248+296031739+295865354+295961135+296259458+296650472+297043455+297343543
2238+297505790+297591143+297714217+297975813+298431325+299050592+299700241
2228+300212564+300522069+300762735+301175819+301872403+302763473+303754057
2218+304878493+306187631+307621497+309058380+310444191+311861266+313455228
2208+315252154+317094765+318836812+320527438+322303545+324211040+326234987
2198+328363101+330517515+332568902+334484083+336341958+338193801+339979950
2188+341564642+342877918+344064810+345366757+346785451+348029429+348870015
2178+349409428+349912757+350442717+350761803+350629166+350082287+349329794
2168+348503516+347634424+346748558+345847833+344802112+343373192+341484310
2158+339368407+337248385+335037731+332559154+329816738+326964711+324221854
2148+321652976+319029441+316518091+315334547+316706123+320360446+324955219
2138+329650372+334381939+339127961+343814323+348536767+353337228+358055369
2128+362547704+366870766+371302116+376194789+381642471+387376320+393119547
2118+398862039+404700276+410611194+416494048+422386134+428651045+435940160
2108+444934503+456280229+470799828+489266023+511605874+536645583+562665909
2098+587545064+608753012+624814526+636643130+646150256+654156369+660191906
2088+663384243+663189811+659328845+651111308+637928746+620455674+599994480
2078+577354081+553407947+529346500+505944891+483738487+463490189+445716348
2068+430428918+417439353+406298504+396434885+387796079+380625661+374677261
2058+369484996+364991925+361249913+358104547+355505030+353562446+352311810
2048+351731459+351770117+352376768+353754376+356322113+360424077+366587469
2038+375902517+389555267+408042869+430969729+457287881+485654588+514722439
2028+542999508+568696885+590394332+607793325+621531630+632587218+641724313
2018+649029870+654138492+656872743+657250056+655119403+650284294+642874276
2008+633255258+621602253+607962965+592729495+576491536+559450656+541530164
1998+523055915+504971521+488222692+472884540+458116182+443313801+428979989
1988+416014884+404719623+394861595+386200426+378657071+372164514+366511293
1978+361415691+356754893+352526178+348648512+345163645+342467685+340786292
1968+339506083+337616429+334906013+332149399+330017091+328422688+327058432
1958+325962062+325193201+324427136+323334149+322107753+321277907+321121656
1948+321511034+322327527+323594126+324818904+324797754+323000681+320527732
1938+318738162+317863258+317450376+317245131+317210592+317231448+317155970
1928+317109073+317660992+319197646+321057397+322210927+322815849+323574080
1918+323847115+322438536+319990195+318423305+318571023+319687219+320544909
1908+320468181+319648745+318754015+318231927+318042240+318005274+318218575
1898+318962460+320116616+321033378+321542372+322461158+324110918+325181615
1888+324439678+322645474+321261576+320668866+320543659+320673206+320909863
1878+321122833+321351913+321786092+322979531+325920351+330839581+335609254
1868+336729202+333472165+328849878+325719887+324580849+324488746+324530384
1858+324416469+324307152+324413489+324774618+325420369+326543848+328460905
1848+331646585+336263207+340646409+341388639+337704890+333120158+330654014
1838+330285823+330528035+330784407+332212223+336071755+341223376+344387097
1828+344348475+343158457+341937137+339783900+336795153+334616205+334073997
1818+334463669+334939743+335677302+337391394+339928271+341833484+341866920
1808+340591015+339720929+340600504+343543899+347577779+350634353+351172147
1798+350066103+350008244+353047567+358508821+362264406+360450229+355143644
1788+351346274+350968851+352614014+354563918+356453021+358065999+358784615
1778+359188779+361392886+366984019+374806514+380336037+379801774+375024192
1768+369784772+366083551+365250358+367798490+371647318+373582325+373542674
1758+373596523+374038573+374706062+377392127+383649645+391453161+396048891
1748+395522315+392572079+390392764+390385518+392422522+395076918+396589113
1738+397736611+401770638+409441517+415100623+412988914+406544394+400757579
1728+396895620+395380262+396328510+398827464+402726537+409943706+421872689
1718+435161625+441575946+437949762+430249899+424250629+422149660+424513034
1708+430958915+439356759+446646021+452841598+461269052+472597454+481414948
1698+483679892+481258145+475366978+468215061+464588693+466514431+472366167
1688+480798550+493090795+508521308+517892781+514342735+505991347+501500704
1678+503259083+510112916+518419577+525045286+531202536+538556498+543733131
1668+542814529+539718010+540633338+545929771+550777349+551749101+551578431
1658+555069846+565139373+582314765+600411923+604720677+597719825+595022431
1648+598695035+600236030+593238819+583289386+577473771+577456263+583052729
1638+593545584+604634128+607383790+599958949+591828990+589223036+591543044
1628+595646332+599775184+604280135+608248727+609254098+608503775+610532688
1618+616616998+621640212+620238879+615666580+613526915+614741652+617091600
1608+618580953+619206547+619989789+621251496+622325908+622611412+622524091
1598+623107385+624714478+626456268+627273497+627229800+627189192+627629771
1588+628316791+628836966+629127694+629562534+630746925+633498316+638799604
1578+646586421+653299929+653797815+650320120+649882043+654376253+659432939
1568+660479764+659177523+659529162+663640468+673511445+691459376+713036987
1558+720516377+710855648+700920082+697607982+699848761+705255099+711674276
1548+718702420+728313345+742125694+758876655+775396697+786327372+783783507
1538+771206382+761808280+760213545+762244886+761832262+758983103+758495370
1528+762371858+768912269+776603231+785632628+794190769+797948451+796874260
1518+794788482+792096458+787671177+783622842+783606511+789718775+802077192
1508+816843601+822154600+811093348+796847703+790102047+791041026+796365119
1498+801546424+802286925+798893977+796636352+799362363+805843407+810558238
1488+808918483+802722207+797042797+794862635+795940946+798503570+801850540
1478+806885009+814086325+822084860+827445294+825965910+818313716+811326547
1468+809990908+813571225+817267774+817329422+816401404+819926180+829737716
1458+841184152+844231346+836715100+827333182+821079011+818164601+817763821
1448+818067201+816874939+814211090+812273324+812820057+816241989+822022183
1438+828243691+831088804+828696040+824615263+822529632+822307540+821943175
1428+820914300+820603489+821589623+823021412+824966902+828558548+832370667
1418+831928838+826366469+819819805+815169490+812444215+810783052+809845618
1408+809978991+811130056+812035858+811893804+812189240+814722217+819015597
1398+823050911+825280582+824648146+820892083+816352925+814442598+815933901
1388+818164012+817878655+815481257+814600027+817365615+822622176+828205438
1378+833543729+839315390+845035923+848615210+849358139+849314736+850090622
1368+851194460+852359208+854662149+858089084+860206201+859041893+855839919
1358+853152382+852009482+851721697+851297597+850448293+849336143+848196406
1348+847422654+847326872+847861614+849093748+851334747+854115196+855856250
1338+855557946+854054505+852691279+851887218+851513730+851575009+852054357
1328+852842675+854164999+856402689+859324308+862227463+864869389+867488952
1318+869992210+871831841+872606035+872495247+872307951+873040066+875122534
1308+878099327+881048901+883196620+884227923+884389324+884388956+884891917
1298+885794850+886093669+885019258+883301082+882362912+882139717+880867490
1288+877483738+873022484+869063677+866159713+864204292+862959946+861751941
1278+859873468+857634308+855950045+855101036+854857758+855209764+856007646
1268+856560190+856463232+856271523+856855847+858526867+860731820+862266378
1258+862143820+860558943+858682162+857475702+857066021+857167246+857638574
1248+858469413+859568984+860842241+862237909+863549861+864561963+865642259
1238+867593709+870485314+873278563+875234426+877102011+880013184+883626606
1228+886349159+887203612+886595454+885478227+884695205+884896258+886317821
1218+888667990+891321687+893608959+895399301+897485668+900713169+904818296
1208+908804690+912001883+914218164+915600812+916699279+918029401+919707337
1198+921796499+924182862+926065528+926943228+928066560+931249186+936076718
1188+939731189+940355090+939514173+940008822+942539151+945655643+948101373
1178+950326188+953332333+956725061+958908753+959424294+960179582+963024989
1168+966930977+969372660+970044232+971040591+973370015+975445421+975789777
1158+975596964+977045893+980224253+983057374+983853344+983011764+982138037
1148+982442374+984307017+987687165+992175784+996835662+1000507347+1002319612
1138+1001948331+999847840+997306329+995771697+996055436+998111347+1001071955
1128+1003656796+1005111095+1005522322+1005126176+1004375302+1004526698
1120+1006429962+1009195845+1011967319+1015948858+1022357147+1029234042
1111+1033002023+1033255674+1032878434+1033259352+1032736013+1030508770
1103+1028422992+1027909290+1028494203+1029295910+1029615916+1028739173
1094+1026902117+1025529548+1025868755+1028490083+1033487697+1039889365
1085+1045863916+1050033560+1051216406+1048327670+1042931189+1039068015
1077+1038749186+1040659292+1043676987+1048087187+1053019181+1056423458
1068+1058303034+1060486506+1063314477+1065094962+1064691828+1063255479
1060+1062245363+1061013744+1058130010+1055019697+1055250249+1059543039
1051+1064299067+1066340559+1067058550+1069094377+1071320811+1070944454
1043+1067980756+1064452302+1061844877+1061378183+1064371675+1069950228
1034+1073741823+1071647364+1064986896+1059098930+1057306675+1058746555
1025+1061294540+1064217631+1066982852+1067616464+1064479594+1058734932
1017+1053686853+1052081820+1054110806+1057374501+1058726104+1056637236
1008+1051797419+1046491496+1043771738+1045484617+1050205260+1054101758
1000+1054857266+1053243406+1050506065+1047038523+1043479172+1040846514
991+1039521100+1039270612+1039516833+1039316149+1038214004+1036689303
983+1035377940+1034509362+1033872807+1032823334+1030861733+1028315514
974+1025721920+1023084112+1020549149+1018641029+1017126481+1014861720
965+1010965295+1005472003+999350028+994377427+991965831+991571009+991166183
955+989157942+985308452+980608334+976611788+974101836+972565513+971242306
945+969976994+969124012+969322563+970708815+971795144+970378142+966267644
935+961850014+959582752+960040913+962099251+963997072+964559694+964028852
925+963503453+963472924+963255614+961911956+959395678+956735286+955320712
915+955833089+957474022+958516286+958055624+956993792+956871381+957964330
905+958938106+958404688+956547476+954948916+954618243+954866524+954535556
895+953323064+951446651+949082210+946717696+945213814+944948393+945393238
885+945888843+946492294+947507633+948359879+947975062+946401073+944879610
875+943952327+942791919+940929557+939367853+939295613+940633312+942297270
865+943258539+942911241+941250078+939426631+938871365+939645118+940922568
855+942535914+944562988+945968293+945145252+941616724+936625952+932426368
845+930882908+932058030+934188535+935362332+935051227+934254081+934307121
835+935275085+935837413+935218661+934359941+934641031+936586889+939865959
825+943214106+944854745+944146097+942408794+941783495+943377052+945959465
815+946762423+944827011+942801041+944013680+948506273+952622729+952799358
805+949689928+947037996+946679368+946812226+945338138+942965752+941740386
795+942385254+943988668+945311728+946146025+947285615+948822821+949650570
785+949576564+950045980+951829628+954243873+956852548+959268558+959787703
776+957561343+954908823+954554021+956280510+957775490+957241926+954306770
766+950150663+947167176+946764409+947488432+946600434+943445320+940286381
756+940029493+943679771+949618791+954942295+957677576+957797707+956338626
746+954528053+953654473+954429918+955825954+955970655+955443638+957614972
736+963448648+968271251+966882056+960212907+953464308+949906796+949460553
726+950813039+952032152+951574801+950597127+951324534+952931406+952452059
716+950069006+949360726+951842576+954916621+955564873+953466221+949976462
706+946333762+943622831+942821933+943666897+944351268+942995987+938922787
696+932866726+926982070+923878451+923954591+924203607+921579557+917045989
686+914032193+913839895+914552001+914193152+913060919+912080376+911162216
676+910201315+909477292+907526431+902173942+894592886+890046591+892042179
666+896647987+900045276+901925661+902250890+901062674+898857648+896083379
656+893158302+890360565+887198021+883234506+880102271+880278238+882816144
646+883652206+881148728+877880840+876585955+877076705+877238473+876170462
636+875248477+875270399+874614644+872058420+869741428+870991070+875975442
626+880168626+877465862+866634058+853605320+845438983+844208541+846712828
616+848012642+846110996+844221194+846691495+852972590+857238089+854810456
606+848280638+844672146+847330330+851751932+850579680
##END=
