##TITLE=<SNM>
##JCAMP-DX=4.24
##DATA TYPE=INFRARED SPECTRUM
##DATE=2/5/2025
##SAMPLING PROCEDURE=Instrument type and / or accessory
##ORIGIN=Admin
##XUNITS=1/CM
##YUNITS=ABSORBANCE
##RESOLUTION=4
##FIRSTX=4497.3318
##LASTX=599.83466
##DELTAX=-1.4281778
##MAXY=1.8344295
##MINY=0.3498728
##XFACTOR=1
##YFACTOR=1.7084456e-09
##NPOINTS=2730
##FIRSTY=0.37418079
##XYDATA=(X++(Y..Y))
4497+219018265+218764122+218622790+218400360+218153944+217713568+216797159
4487+215495008+214344969+214057490+214959456+216395246+217122107+216662159
4477+215608604+214441767+213121980+212057052+212191476+213659189+215287353
4467+215910997+215612686+215217280+215041182+214818560+214517265+214435871
4457+214679617+215158109+215847292+216493439+216498777+215681468+214725391
4447+214440249+214875009+215306507+214971143+213962594+213296822+213756091
4437+214919648+215683753+215426906+214402570+213381688+213082713+213620236
4427+214439918+214915915+214851198+214404698+213835968+213366477+213122974
4417+213105408+213175621+213204246+213330210+213753474+214139879+213804080
4407+212696849+211601394+211241749+211730620+212739640+213690937+214016340
4397+213694321+213331798+213435259+213866896+214201579+214271966+214159259
4387+213948081+213643821+213182354+212485654+211541456+210421962+209307981
4377+208565001+208606204+209470473+210622151+211288708+210980610+209882590
4367+208885066+208898289+209885032+210818764+210808977+210076377+209529992
4357+209519962+209548989+209262818+208985858+209082760+209462187+209788532
4347+209687460+208970403+208046178+207608104+207709123+207795873+207633730
4337+207469284+207430035+207430401+207521459+207816213+208157175+208208252
4327+207850857+207268851+206692759+206314536+206380736+207018755+207947410
4317+208563519+208405911+207668199+207217810+207784098+209132214+210384109
4307+210954950+210773043+209977835+208899632+208004661+207522053+207336395
4297+207196284+206907950+206545845+206418328+206628268+206947496+207308519
4287+207951753+208836641+209339695+208888799+207700419+206604893+206202370
4277+206312565+206222396+205538360+204790130+204884433+205941424+207189411
4267+208097569+208913413+209874165+210574825+210482057+209753626+209127714
4257+208964716+208896317+208603971+208292716+208173084+208233197+208626370
4247+209466007+210268140+210377829+209840812+209313406+209280402+209633436
4237+209866943+209639576+209083057+208424035+207640568+206876411+206779614
4227+207863730+209663196+210946751+210920969+209992471+209145228+208859999
4217+208962640+209238344+209715092+210461438+211386622+212112716+212043794
4207+211000810+209756644+209348731+209878369+210488494+210460374+209963548
4197+209694874+209927526+210114597+209602124+208540580+207688679+207469441
4187+207739493+208354067+209316982+210288253+210518603+209638285+208301159
4177+207651383+208181824+209384229+210482807+211188666+211573745+211559284
4167+210995560+210101845+209307214+208712038+208203681+207986328+208426879
4157+209391765+210203091+210299086+209673680+208769970+208175631+208287989
4147+209025962+209847405+210232781+210179751+210027656+209872699+209516142
4137+208950900+208505168+208497196+208967123+209662097+210177727+210230984
4127+209877479+209441655+209230913+209309010+209520642+209698694+209756905
4117+209627732+209382555+209374025+209950308+211018220+212033083+212359951
4107+211670891+210260203+209023223+208814208+209615155+210439284+210320071
4097+209410064+208767196+209047907+209867902+210478708+210565702+210240701
4087+209690496+209114334+208808521+209045813+209760778+210463968+210678094
4077+210435028+210151299+210055723+209913833+209327641+208272568+207293064
4067+207038013+207599574+208441253+208983259+209089790+208977834+208861778
4057+208768260+208658467+208657542+208990027+209609101+210090297+210086181
4047+209725401+209351574+209006564+208415348+207480727+206550206+206064527
4037+206131268+206654522+207630049+208897905+209855325+209970875+209476107
4027+209134831+209412681+210108369+210713977+210973946+211083722+211367939
4017+211772119+211845699+211304181+210386446+209588360+209268191+209517485
4007+210105840+210587647+210776688+210957200+211354158+211722316+211790593
3997+211709600+211682195+211567552+211220850+210855152+210727967+210777648
3987+210840813+210996048+211455927+212192174+212791955+212816935+212431577
3977+212414726+213192646+214161196+214405221+213791189+212865133+212046132
3967+211505347+211490275+212172375+213284245+214288695+214912618+215285783
3957+215540798+215580972+215438715+215642655+216798135+218655480+219986239
3947+220003073+219576669+220022227+221086056+221247292+219940972+218211440
3937+217282471+217785403+219822300+222620388+224418929+223968155+222154805
3927+220979891+221249560+221984480+222122847+222132354+223059892+224685318
3917+225465105+224210977+221388886+218568260+217060460+217308079+219364392
3907+223542222+229899311+236975499+242022989+243332449+241120012+236321240
3897+230650874+226756876+226500797+229132573+231402157+231141263+230465146
3887+232026395+234615415+235396859+235037441+235645368+235700073+233068192
3878+230274447+230853173+234504820+238767830+242366411+244382969+243526794
3868+241358665+240997293+242188481+241757577+238701612+235660719+235365146
3858+239037185+246958086+257120173+261966201+255736401+244852931+236311210
3848+231988593+231629262+234377303+239318192+245719624+252543047+257518527
3838+257921521+254033978+249289510+245916271+243623312+241761048+240730241
3828+240883226+241969209+244670744+250273672+257057723+260067409+258581851
3818+256494837+254075582+248942337+242530438+238627440+239005960+243032846
3808+248056612+251383624+254045805+258443780+262698383+262777038+259962535
3798+257824427+255861493+252628976+249754500+249493065+251772121+255349212
3788+259719207+264737460+269690839+274327345+279837854+287107410+294879863
3778+301478274+307604403+315465977+326605057+341026421+356332341+368339754
3768+375007558+377740178+378570693+379378809+381659557+384824234+386641457
3758+386853159+388462902+394476167+405494917+418644919+428124819+432206463
3748+436179919+443970530+453206003+458460171+460681714+465520607+475592804
3738+490263375+506949997+521306923+529375350+531750471+533159885+537770505
3728+546726313+558082258+568464996+576423210+582022109+583827156+581267581
3718+577668267+576979887+580243786+585458913+588140353+584743042+577892842
3708+572876298+571787646+573608044+575857881+575777255+572786880+569558672
3698+568709806+570437332+573812698+578584676+584795897+590789626+592804142
3688+589153647+583320055+579751652+580135353+583522477+588184033+593726168
3678+599894477+602938545+599219180+593648437+592258629+593657648+592923669
3668+588524682+582606800+576877385+571925559+568100797+566009597+566370306
3658+568704399+571159693+573626465+578853908+588548057+599723315+604276788
3648+597287210+584539539+573446826+566686498+563812545+563372256+564161393
3638+565632141+567537980+569650567+572476375+577687560+585789095+592340966
3628+591166349+584615211+579406922+578559033+581850319+586311442+587766072
3618+586582175+587365136+591137391+594598862+596235958+598216842+601237604
3608+602667673+601552226+600598731+601906411+604597620+606760271+608078698
3598+609464319+611025009+612078703+612761536+614397584+617767718+621218931
3588+621640381+618468413+614866343+613414364+613739383+614125805+613486513
3578+611991134+610514175+609811666+610343223+612526389+616528348+621210349
3568+623460151+620678024+614694274+609891490+608439861+609344861+610524712
3558+611172098+612089588+613812858+615246903+615314517+615266371+616961241
3548+619270005+618614246+613567872+606603902+600746866+597307794+596357020
3538+597269696+599034133+600993596+603044396+605004417+606497075+607087663
3528+606159985+603130849+598268546+593354678+590524754+590036110+590016712
3518+588944387+587499526+586886540+586985413+587254820+587810520+588434461
3508+588114117+586813484+585919019+585947837+585610886+583886745+581258405
3498+578502200+576141313+574985187+575339233+576078270+575980409+575404160
3488+575457295+576293949+577084691+576986237+575734412+573773798+571913802
3478+570671118+569808541+568514990+566416010+564497436+564048041+564659213
3468+564578133+563045353+560934511+559327559+558769870+559505837+561290754
3458+562954574+563222062+562098277+560720855+560057979+560158003+560390708
3448+560063177+558918599+557300273+555651141+553920929+551980132+550257665
3438+549201284+548661703+548495914+548960311+549787337+549855648+548548595
3428+546633232+545194476+544258180+542949348+540991281+539379829+538965043
3418+539214249+539149148+538469386+537096185+535056968+533488707+533927252
3408+535815996+536499108+534743881+532397159+531526453+531814839+531592601
3398+530242252+528621589+527521947+526650474+525494976+524396241+524026495
3388+524307415+524557285+524411452+524029914+523685219+523502963+523437163
3378+523380958+523290179+523081408+522512765+521380607+519854665+518586827
3368+518245132+518647463+518758442+518058305+517292997+517381718+518414584
3358+519823440+520674923+520133353+518500862+517197403+517047000+517340236
3348+517042848+516203961+515693372+516054779+516860069+517069677+516101180
3338+514527581+513509368+513442802+513573563+513275094+512999512+513238671
3328+513400308+512737257+511561872+510551230+509812960+509378532+509544495
3318+510148236+510356972+509522341+507738087+505658400+504242356+504192571
3308+505342452+506894385+508141012+508745974+508710597+508420885+508333595
3298+508364959+507957395+506867835+505572575+504884195+505296469+506562668
3288+507935729+508876630+509243480+508994796+508415268+508273098+508837346
3278+509326444+509054909+508302544+507576136+506984292+506630456+506642318
3268+506732190+506567273+506399635+506500881+506381773+505468538+504220482
3258+503622393+503664677+503281779+501958957+500481231+499815354+500051198
3248+500529586+500495326+499755032+498903934+498607628+498723527+498524873
3238+497607801+496168243+494688180+493666129+493342157+493512376+493652522
3228+493354612+492773339+492479196+492646102+492658208+491787119+490009877
3218+488012177+486598122+485988799+485600912+484799459+483754034+483119138
3208+483031917+482933079+482349922+481350200+480157859+478775309+477281953
3198+476152342+475799761+476051584+476507295+477046981+477501295+477268381
3188+475884156+473768464+471917364+470867333+470207666+469223260+467890774
3178+466809832+466115591+465131882+463444199+461674668+460671910+460400305
3168+460132643+459451136+458528901+457510374+456135254+454211761+452207921
3158+450998555+450985019+451685958+452276755+452209456+451190231+449179308
3148+446800454+445185548+444917083+445389539+445562620+445141240+444572806
3138+444036888+443153762+441811158+440546425+439736669+439010122+437886651
3128+436593972+435814813+435793741+436031713+435865401+435184557+434484106
3118+434295361+434640929+434913057+434305653+432658266+430826041+429796105
3108+429528477+429204156+428488564+427744921+427054553+426035258+424690038
3098+423550623+422996424+423025625+423400220+423591826+423068468+421959092
3088+420962893+420463992+420185200+419764099+419267744+418973078+418849609
3078+418598832+418224377+418056878+418040237+417640976+416756768+416048677
3068+416068389+416576222+416879924+416438623+415127593+413308939+411662563
3058+410641036+410077347+409527299+408908521+408506539+408434006+408469662
3048+408432995+408324178+408035234+407327875+406240479+405191983+404531025
3038+404144568+403599475+402653306+401581295+400855445+400497422+400061320
3028+399350507+398709087+398390557+398062817+397231256+395894025+394516114
3018+393482306+392801567+392317458+391940316+391490363+390661314+389461473
3008+388346828+387702792+387472355+387261316+386581693+385242474+383664723
2998+382491048+381923103+381778735+381931964+382308792+382694342+382806752
2988+382452253+381641031+380631820+379735157+379049080+378456085+377819479
2978+377176384+376733548+376509391+376077440+375085812+373865456+372972981
2968+372399732+371767209+371014041+370414941+370097458+369831365+369264187
2958+368322031+367318296+366572909+366096650+365812136+365752512+365768596
2948+365419225+364509166+363449226+362770057+362508360+362332140+362066466
2938+361783557+361473750+360983256+360342708+359837911+359633814+359567806
2928+359364442+358834351+357895962+356657430+355428143+354417431+353515814
2918+352588590+351843377+351632443+351936459+352283039+352250558+351877149
2908+351445756+351068579+350705044+350422694+350335787+350316982+350010768
2898+349173939+347907147+346570265+345548424+345073246+345121811+345385566
2888+345431723+345051302+344413370+343792709+343288085+342893709+342618266
2878+342408972+342180244+341961565+341785100+341503343+340987974+340349240
2868+339710472+339020417+338299731+337769988+337558914+337521165+337418454
2858+337083876+336469739+335714583+335051079+334568749+334243311+334155602
2848+334373898+334671844+334698184+334367060+333830374+333205107+332542999
2838+331898439+331302617+330817148+330564871+330507480+330337120+329804272
2828+328994970+328185773+327619571+327392100+327346257+327185004+326819096
2818+326396251+325966114+325435568+324843096+324313284+323771888+323066099
2808+322289906+321664150+321219221+320879479+320661498+320514479+320227593
2798+319770661+319437130+319373005+319243465+318652912+317692544+316789985
2788+316153694+315654897+315198768+314883972+314726172+314512586+314086008
2778+313592758+313272484+313117825+312892865+312425991+311764022+311076514
2768+310490148+309987583+309454805+308873462+308356000+307905488+307375606
2758+306772179+306263125+305799600+305118198+304169517+303192193+302397962
2748+301844530+301503742+301284888+301075524+300791778+300384353+299893580
2738+299449767+299081941+298642698+298026851+297300094+296573930+295909693
2728+295338468+294886980+294629888+294663730+294884224+294886282+294322209
2718+293347362+292504079+292128943+292035024+291825171+291335009+290682477
2708+290077201+289670020+289435851+289197547+288882785+288630072+288514923
2698+288344651+287860036+287053019+286235763+285780297+285719173+285689866
2688+285402004+284980746+284670868+284444950+284131618+283738568+283422341
2678+283220634+282973225+282524981+281924729+281358527+280932089+280610716
2668+280341693+280134770+280012906+279934721+279797611+279548700+279271147
2658+279084076+278965038+278756459+278358052+277851039+277410139+277127597
2648+276952336+276784733+276577375+276316009+275964458+275511679+275067499
2638+274795790+274688892+274537303+274248899+274045309+274151177+274456031
2628+274663075+274574965+274115277+273344980+272570985+272158309+272140638
2618+272213485+272127869+271923564+271783906+271780679+271786418+271636625
2608+271349391+271075989+270866520+270668093+270525104+270536094+270613947
2598+270546072+270317658+270130657+270064178+269949884+269661952+269346265
2588+269235391+269335206+269414402+269290200+269040208+268869186+268817517
2578+268737710+268565694+268431601+268417802+268394078+268234011+268042562
2568+268019518+268207234+268480043+268694867+268806126+268902539+269108240
2558+269380002+269508234+269420071+269316506+269355197+269372763+269104019
2548+268528415+267834994+267198528+266731637+266487210+266351843+266085402
2538+265610922+265140716+264911064+264929415+265055083+265172551+265191845
2528+265025375+264690379+264365953+264239012+264281209+264240477+263916401
2518+263421581+263079135+263060767+263228073+263332738+263262979+263088660
2508+262957149+262960603+263051818+263090718+262973180+262695295+262335318
2498+262033326+261936459+262070831+262288655+262407677+262373608+262236253
2488+262038821+261816216+261622395+261450099+261209964+260906087+260716487
2478+260750660+260837445+260708271+260320959+259878297+259574630+259426373
2468+259351154+259325703+259366661+259385152+259212333+258803914+258304960
2458+257915712+257754773+257771537+257763809+257611365+257454420+257461973
2448+257540158+257498902+257368665+257303284+257278705+257120261+256785299
2438+256453494+256329309+256451331+256697433+256874229+256795887+256412274
2428+255896940+255506924+255353555+255371139+255452638+255549662+255669887
2418+255804032+255885950+255881624+255849649+255825035+255761870+255671073
2408+255645657+255696036+255745594+255797595+255925356+256126626+256328123
2398+256500070+256731536+257282142+258547364+260897103+264638570+270215593
2388+278301237+289585643+304562777+323492712+346349946+372732636+401897836
2378+432834800+464254199+494781889+523538932+550444701+575622874+598669412
2368+618626666+634061847+643278201+645580825+642117679+634646365+624185477
2358+610856638+593984271+572416402+546250822+519342576+498179480+487540767
2348+488859438+500709190+518208534+534021415+543847337+548588089+550603163
2338+551605467+552582477+553783330+554995347+555625743+554875855+552612411
2328+549427256+545367452+539550642+531474540+522029005+512612706+503520728
2318+493925488+483458216+472920749+463101108+453632163+443466256+432074865
2308+419870962+407707738+396181016+385356419+375055424+365226468+355945117
2298+347237573+339037687+331230678+323752944+316719825+310318288+304512364
2288+299063241+293901178+289253647+285341612+282145327+279525866+277389852
2278+275631485+274056264+272518844+271064127+269801208+268704898+267647069
2268+266563510+265515067+264613712+263908394+263323981+262727253+262056300
2258+261363646+260745758+260241815+259779651+259241639+258616599+258038030
2248+257626018+257349406+257088879+256774187+256401371+255978212+255532044
2238+255140702+254892542+254816294+254855735+254897950+254860428+254775440
2228+254723456+254677055+254530525+254298500+254131944+254116523+254190940
2218+254263106+254271218+254157831+253935488+253766263+253846279+254189597
2208+254586695+254784930+254705925+254505562+254411591+254507620+254709484
2198+254899415+254999405+254987683+254944892+255022937+255296269+255677998
2188+255987789+256084708+255990440+255884048+255909796+256034556+256148937
2178+256206922+256200729+256104088+255909988+255671806+255464448+255309544
2168+255166956+255018402+254914661+254893851+254909533+254889995+254822609
2158+254732929+254608901+254400985+254121722+253893343+253830370+253915201
2148+254036106+254111325+254175851+254403671+255018157+256126173+257654766
2138+259439403+261356320+263421197+265767186+268482066+271512249+274768420
2128+278258935+282104508+286457791+291359588+296643951+302050510+307410320
2118+312633506+317544757+321821915+325146240+327379785+328500743+328413872
2108+326996363+324307667+320622213+316303539+311671987+306899870+302044614
2098+297188870+292458515+287958229+283790970+280057894+276797606+273988092
2088+271556330+269394010+267505056+266046938+265041023+264209846+263285133
2078+262308838+261527987+261128918+261080615+261143624+261081278+260901255
2068+260819372+260969113+261209074+261273390+261084244+260796189+260565735
2058+260450185+260475322+260606659+260729431+260796067+260881997+261028545
2048+261172424+261270285+261389690+261625221+261938378+262144323+262117023
2038+261950641+261860943+261979354+262244365+262467876+262557434+262628362
2028+262809973+263069506+263324435+263568739+263860318+264322674+265043343
2018+265819815+266231566+266132553+265830561+265677925+265727484+265826008
2008+265858663+265847255+265873997+265965631+266099096+266265966+266421254
1998+266492862+266641852+267276207+268453650+269502861+269689583+269074556
1988+268279296+267749745+267589015+267720858+267974774+268214910+268431042
1978+268634214+268800526+268937061+269054792+269196019+269586506+270435441
1968+271432163+271862928+271483850+270844383+270544467+270659720+271007050
1958+271487251+271978914+272276039+272332785+272365528+272641563+273277053
1948+274263936+275649138+277464547+279210843+279805792+278781351+277078404
1938+275905828+275539711+275615175+275865463+276237040+276661577+276983107
1928+277208311+277800940+279200115+280937357+282122178+282862193+283797180
1918+284412643+283615709+281854237+280780621+281193558+282457228+283425969
1908+283526988+283095176+282792730+282880317+283180478+283536687+284070198
1898+284983519+286112328+286907535+287294202+288039222+289446282+290415111
1888+289905097+288529454+287462433+286968712+286778955+286826385+287126564
1878+287542135+287909281+288286231+289255566+291768687+296000821+300130751
1868+301258862+298765644+295112776+292708698+292014213+292200185+292414032
1858+292388860+292303175+292361735+292619663+293215136+294454226+296545148
1848+299589948+303497849+306988625+307547814+304667163+301156465+299406192
1838+299345033+299719593+300070394+301406578+304800331+309313019+312153688
1828+312154107+310986224+309808641+308123854+305999370+304603387+304481173
1818+305009311+305481593+306061157+307440323+309648748+311534701+311933614
1808+311145872+310560831+311350352+313863875+317409531+320343770+321305604
1798+320816715+320976503+323532276+328095761+331397827+330193660+326021411
1788+323000439+322848397+324501122+326469202+328295531+329769419+330519725
1778+331154098+333399121+338477870+345396172+350444534+350497808+346936627
1768+342801499+339795285+339172984+341516880+345122160+347161621+347428516
1758+347679676+348283347+349159391+351790138+357418691+364277264+368410961
1748+368352383+366411830+365172810+365657058+367649211+369987630+371358632
1738+372529202+376231716+383072356+388204240+386591950+381082959+375985405
1728+372393103+370646215+370917889+372573441+375536114+381308442+390858781
1718+401221563+405639424+401814488+394851320+389484569+387394798+388884631
1708+393467479+399267298+403962033+408031047+414284379+422723040+428475516
1698+428771752+425708740+420120936+413468239+409551825+410038621+413659461
1688+419493366+428655818+440294044+446661041+442478849+434662036+430198820
1678+430824610+435344590+440642019+444345963+447712782+452065472+454632513
1668+452560466+449165842+449177843+452690844+455949509+456436235+456350096
1658+459481419+468174589+482965769+499224278+505018480+501186985+500362157
1648+505187374+509340155+507081142+502016243+499924101+502508900+509792132
1638+521431439+534511141+541924786+540877232+538454349+540812130+548501287
1628+558921739+569745254+580865354+592176503+601960139+610204368+620179820
1618+634029471+648098499+655791912+658029294+660696290+666114502+672706285
1608+678083956+681524355+683924874+686136300+688154584+689885180+691927886
1598+695053871+699221270+703525780+707147667+710092652+712805770+715557615
1588+718562119+722024985+725719300+729134579+732290987+736115644+741992148
1578+750464964+759073147+763355747+764370924+767866586+775966656+785310073
1568+791719041+796230299+802207071+811043353+823936438+843681851+869432366
1558+887134445+888044679+883010377+878959574+876518794+875517711+875474589
1548+876365425+879641500+886381138+895604261+904623706+907034831+894993717
1538+875668079+862844770+858691396+857570856+853827837+848322195+845494853
1528+846542337+849401777+852456102+855780671+858364842+858246292+856439779
1518+854883904+852428749+848030669+844027454+843486547+847530721+855611742
1508+864421090+865244801+853803415+840326580+832873547+831811061+834846058
1498+838390981+838656620+835592038+833539005+835729986+840766870+843431075
1488+840169932+833623574+828346660+826046758+825753487+826053037+827001928
1478+829728303+834676571+840993294+846219342+846305167+840288971+833388288
1468+830625280+832250513+834535762+833997506+832373948+833996599+840049498
1458+846349126+845738861+838432080+831524908+828067693+827213001+827234074
1448+826469882+824211148+821239439+818870807+818084007+819641209+823738552
1438+828688634+830597439+827604029+823355828+821586576+822019190+822179607
1428+821034017+819865610+819532288+819605623+820505530+823481984+827002695
1418+826325724+820665039+814804235+811925048+811325808+811001906+810328075
1408+810256903+811244728+812018130+811465501+810865702+812141495+815144255
1398+818230189+820306527+820719255+818817079+815625783+813610080+813747679
1388+814402880+813302924+810721684+809372137+811104477+815371517+820520392
1378+825735485+831145114+836094429+838790591+838910746+838660179+839836191
1368+842231129+845285454+848977326+852541369+854385770+854061867+852644149
1358+851025335+849422989+848039670+847242474+847176536+847427521+847339743
1348+846816140+846446953+846967415+849003283+852752582+857200552+860269600
1338+860845535+860159632+860090763+861005812+862051900+862775622+863601287
1328+865046148+867347515+870463034+873733736+876379520+878676980+881577238
1318+885283764+889182454+892686907+895495130+897778984+900169665+902937278
1308+905985463+909831193+915003234+920407420+923957996+924987478+924809966
1298+925064092+926294112+927734926+928155817+927138058+925396647+923700590
1288+922024839+919942151+917405079+914920339+913034281+911919812+911400396
1278+911120662+910866815+910862210+911350366+911831475+911439471+910274762
1268+909555018+910264156+912279928+914913013+917672253+920256354+922467012
1258+924525348+926890910+929491618+931572841+932543501+932674053+932777671
1248+933381446+934258816+934820377+934820726+934359364+933259407+931034794
1238+927847545+925045322+924058613+924867532+926129858+926752055+926524514
1228+925359177+923269721+921066948+919875166+920006066+920893065+921787180
1218+922215817+922054354+921419807+920859711+921454974+923844958+927181180
1208+929992683+931794102+932902850+933577518+934210740+935263806+936525923
1198+937452205+938293779+939790414+941967719+944147187+945934790+947603913
1188+949467712+951330325+952903644+954431958+956364906+958616034+960658740
1178+962266250+963768956+965590680+967745865+969905028+971712239+972795169
1168+973023408+973227923+974546838+976502183+977501661+977615048+978485509
1158+980435343+982242135+983617778+985235545+986513919+985928076+983591402
1148+981803380+982983858+987745962+994331116+999616822+1001749819+1001781567
1138+1001759518+1002324010+1003295368+1004967491+1007339960+1009267396
1130+1009474841+1008028794+1006499922+1006623356+1008392050+1009863915
1121+1010169675+1011393066+1015223235+1020000481+1023246900+1025059553
1113+1026552630+1027177687+1026393679+1026181838+1029017344+1033978450
1104+1036902573+1035103875+1030595967+1027492658+1027692428+1030038941
1095+1032615786+1034624720+1036283586+1038389509+1041748966+1046185982
1087+1050029967+1051364442+1050565641+1049781074+1049895159+1049324178
1078+1046445062+1042967263+1042835246+1047218604+1052855425+1055711864
1070+1054358829+1049759444+1044502904+1041671724+1042665410+1046645251
1061+1052063881+1057518237+1061535827+1063118496+1062539352+1061161267
1053+1060375653+1060421078+1060543256+1059895940+1058164298+1056380183
1044+1056535087+1058670456+1059528009+1056671500+1052002548+1048890238
1035+1048940617+1051927817+1056121382+1059605949+1062574868+1066434134
1027+1070885454+1073741823+1073544146+1071417778+1069953729+1070431558
1018+1071381076+1070816724+1069279828+1068833607+1069431522+1068691682
1010+1065453286+1061311844+1058623497+1057763990+1056404047+1052485959
1001+1047580046+1045276795+1046835112+1050368941+1053801594+1056515201
993+1058002695+1057404432+1055066223+1052474655+1050699123+1050468094
984+1052197992+1054434816+1053999969+1049995846+1045787768+1044421824
975+1044707698+1043660493+1040657872+1037616525+1036403043+1037025379
967+1037818458+1037400846+1035960451+1033766958+1029852429+1023968738
958+1018194736+1014592665+1012873583+1011600302+1010006049+1007645232
950+1004166527+1000666051+999176952+999740885+1000030457+998370545+995012553
940+990854574+987110299+985097876+984892733+985109598+984519638+982989371
930+980764618+978106763+975960927+975635839+977255071+979398534+980614320
920+980949805+981504039+982424461+982773971+982443928+982450627+983136669
910+983281874+981512552+978206892+975132611+973494957+973263579+973942922
900+974842341+975065974+974626313+974771936+976123925+977564321+977675405
890+976253430+974014373+971764152+969670230+967309762+964874076+963361950
880+963271310+963974936+964506423+964451509+964244064+964693355+966063206
870+967679368+968340012+966937017+963498223+959634352+957033992+955775434
860+954746371+953448878+952523572+952688314+954048397+956374186+959282260
850+961888620+962688328+960686371+957207875+955305001+956985916+961709364
840+966551571+967961265+964967367+960054894+956257101+954551067+954465870
830+955718148+957966485+960092783+961302428+962104648+962900727+963299360
820+963310594+963195463+962736055+962085808+962683164+965668899+970010600
810+973706171+975465724+974884765+972349019+969068339+966599927+965714882
800+965838247+965962309+966085953+967314438+970034115+972413980+971610016
790+967383656+963514760+963672944+967043775+969811039+970246235+970123987
780+970756929+970708993+968246930+963933559+960360585+959231742+960345932
770+963084240+966933318+970408605+971403129+969731285+967545816+966696497
760+967103782+967617198+967602335+967280387+966976580+966590507+965995732
750+965806917+967135042+969984015+972397164+972505318+970777653+968997376
740+968049323+967391401+966983697+967886186+969939149+970940790+969575404
730+967904677+969031985+973440113+978642646+980971366+978048430+971754104
720+967535350+968956417+973535149+975107631+970437143+961889039+954138548
710+950125843+949671459+951067965+953136000+956200373+961091563+966806884
700+970111218+968956975+965250659+962147630+960659717+958942379+954641357
690+948973764+946076157+948081951+952391555+953988599+950827725+944952198
680+938614890+933456456+931999175+935544307+940648735+941408879+935789572
670+926399055+918494220+917743704+922823570+926879118+925495381+919423991
660+913126037+909402696+906563561+903092601+901894469+906054612+913011255
650+916849309+915799243+912751826+910236803+908945660+908100457+906483528
640+904781749+904727394+905694774+905514960+904060610+902207417+898735689
630+892479950+885945314+881940564+878797344+873246208+865941868+861660943
620+864427440+873193178+882123309+886561092+887036479+887333517+890993990
610+897376862+902709319+904083217+901381682+895892019+887714706+877149643
600+868051420
##END=
