##TITLE=<SNM>
##JCAMP-DX=4.24
##DATA TYPE=INFRARED SPECTRUM
##DATE=2/5/2025
##SAMPLING PROCEDURE=Instrument type and / or accessory
##ORIGIN=Admin
##XUNITS=1/CM
##YUNITS=ABSORBANCE
##RESOLUTION=4
##FIRSTX=4497.3318
##LASTX=599.83466
##DELTAX=-1.4281778
##MAXY=1.8424621
##MINY=0.32556021
##XFACTOR=1
##YFACTOR=1.7159265e-09
##NPOINTS=2730
##FIRSTY=0.35291374
##XYDATA=(X++(Y..Y))
4497+205669494+205478237+204811980+203746067+202586871+201707803+200914222
4487+199769805+198627751+198479792+199736181+201743929+203383422+203881087
4477+203379983+202796642+202737504+202805100+202400633+201710982+201413866
4467+201816180+202576849+203071440+202943333+202370829+201881623+201978346
4457+202804058+203897552+204395199+203735855+202122205+200293869+199057819
4447+198914063+199694167+200506767+200468853+199634543+198912726+199000886
4437+199662037+200086946+199757821+198925266+198361794+198525088+198960731
4427+199038610+199071557+199781234+200890306+201259690+200456973+199318791
4417+198829741+199090801+199641785+200340589+201245726+201763642+200960699
4407+199023448+197328099+196745383+196901817+197234954+197726001+198405735
4397+198967331+199068691+198626674+197881011+197399290+197780537+199066121
4387+200550187+201314417+200845392+199202530+196996699+195241551+194701926
4377+195246362+196108444+196637544+196559440+195879845+194884655+194022678
4367+193654597+193942333+194744582+195573559+195977106+195931776+195616580
4357+195073672+194424975+194071882+194232276+194528506+194461969+194166503
4347+194293342+195069729+195817668+195663318+194541097+193234811+192548894
4337+192590768+192746924+192320295+191276804+190237083+189728528+189758436
4327+190184440+190956364+191723615+191936114+191664095+191500575+191533887
4317+191392476+191176973+191242086+191412883+191450746+191656957+192049041
4307+191849065+190824610+190156373+190956520+192710694+193964460+194059568
4297+193437201+192622308+191803890+191240453+191311054+192074433+193209939
4287+194397220+195390205+195787013+195228977+193939346+192670227+191996798
4277+191932484+192174091+192441194+192628439+192826626+193131922+193401492
4267+193442307+193456774+193885887+194706094+195294785+195134217+194336154
4257+193397966+192800748+192833712+193372487+193900772+194118480+194228038
4247+194344543+194204279+193795521+193576058+193737911+193891184+193705346
4237+193373425+193292611+193539811+193735879+193422334+192657531+192102256
4227+192342769+193282868+194322051+194956802+195093662+194940094+194712312
4217+194430515+194080410+193877273+194040532+194347409+194339958+193986639
4207+193803424+194356458+195746024+197356061+198215138+197975684+197250377
4197+196669120+196160496+195512997+194910725+194429890+193724329+192704772
4187+191914351+191856238+192461567+193349353+194103214+194326011+193955168
4177+193435776+193195715+193228020+193454603+194004459+194828904+195496862
4167+195665106+195442847+195112455+194755315+194341729+194002427+193971529
4157+194284554+194704427+194995203+195164698+195331987+195469525+195489706
4147+195479928+195565813+195651664+195557372+195296765+195037008+194915032
4137+194920208+194854921+194587852+194391663+194669534+195373966+196096772
4127+196551642+196558902+195847436+194320888+192466743+191265428+191461896
4117+192810926+194312429+195294298+195803547+195925714+195487310+194557476
4107+193628128+193185815+193388084+194028687+194614026+194654268+194092880
4097+193390949+193049893+193070127+193065993+192906919+192902021+193269217
4087+193776399+194022105+193839706+193361580+192861276+192609977+192783501
4077+193359392+194055903+194507212+194572586+194330353+193814174+193066653
4067+192462887+192575432+193510546+194605985+195009410+194482828+193502626
4057+192678911+192233767+191998135+191813790+191846095+192370141+193313575
4047+194307862+195129197+195694563+195755507+195123223+194080931+193150037
4037+192646572+192683652+193283927+194281063+195305396+195910413+195719677
4027+194788453+193843162+193723704+194583267+195898881+196979105+197241119
4017+196512199+195319152+194459589+194199172+194193945+194134511+194156169
4007+194544779+195242194+195855756+196118500+196095157+195908155+195569113
3997+195175032+194964444+195044719+195269740+195436907+195445522+195327471
3987+195273578+195510270+195990323+196331033+196241691+195942752+196012607
3977+196814056+198111086+199226619+199613910+199310073+198737864+198155496
3967+197649720+197588481+198430015+199904182+201000888+201068902+200454628
3957+199931346+199993506+200693404+201822190+203175405+204443673+204904743
3947+204084310+202804631+202391463+202880565+203065465+202302938+201219188
3937+200736859+201397071+203231070+205493503+206754859+206152586+204624231
3927+204046570+205122747+206644172+207235833+207323472+208162923+209579097
3917+209854364+207882498+204609191+201899547+200842735+201521618+203922214
3907+208396853+214741442+221115886+224998048+225538247+223340683+218895779
3897+213492574+209852922+210089475+213525677+216553400+216383557+215153655
3887+216253662+218956324+220054506+219629232+219971174+220112707+217868145
3878+215068951+214929746+217712058+221898769+226424001+229582088+229238530
3868+226774888+225584411+225909837+225188367+222418717+219539422+218928170
3858+222156945+230070773+240921767+246602357+240359511+228884969+220053638
3848+216070707+216492247+219884664+224681584+230036107+235502809+239577583
3838+239952820+236682483+232529310+229237280+226529025+224114569+222739817
3828+223022535+224883697+228707554+234999396+241453594+243339905+240702373
3818+237851041+235340765+231007329+225818099+223033234+224379033+229272259
3808+234826792+237967077+239810159+243290319+246902217+246516159+243197591
3798+240965187+239959906+238345110+236606654+236570806+238555055+241657443
3788+245422961+249844506+254574733+259660884+266207550+274629741+283204233
3778+290329673+297128506+305758002+317147493+330722511+344245459+354758314
3768+361483125+365524638+367374580+367840253+368730609+370616226+372146491
3758+372715156+374216070+379335237+389255181+401647781+410867792+415236972
3748+419893940+428281465+437484351+441964825+443522914+448813678+460943395
3738+478675390+497440125+512040554+520813337+525999059+530831688+537378997
3728+545903729+555439213+565093912+574186441+580519220+581391097+577731506
3718+573449375+571493349+573353469+579008511+584297052+582596788+574061739
3708+565397124+560966322+560690031+562171631+563024924+562596141+561791027
3698+561563089+562295917+564029910+566678887+570354178+574942786+578832468
3688+579889211+578525713+576731453+575648693+575726711+577493147+581622995
3678+587454983+590933111+588575987+584766545+584623710+585352127+581022407
3668+572221106+564296579+559569964+556981011+555368560+555474123+558492901
3658+562991091+565599010+566447926+569794058+577826892+587081430+589637731
3648+582177314+571084505+562965560+559528038+559054376+558674085+557008140
3638+555171745+554590019+555279566+557439980+562754920+571409045+577671274
3628+574597022+565651045+558760196+557507611+562059920+570161740+577228492
3618+580054902+580419562+581305541+583146799+585328993+587824228+589803214
3608+589410001+587090114+586355306+589495939+594790906+598186084+597791551
3598+596057246+596601283+599830979+602958690+604706542+607123204+611216718
3588+613705353+610971759+604788658+599479380+596991439+596764404+597306357
3578+597412789+596924260+596412597+596511039+598143915+602526919+609627540
3568+616035661+616639931+611221859+604577810+599819377+596642967+594526772
3558+594269655+596076490+598396516+599369544+598431252+596574120+595390938
3548+595512653+596178058+596410096+595853484+594711221+593653784+593154626
3538+592652550+591254073+589040826+586802013+585289393+585134123+586343565
3528+587703207+587772193+586346344+584023817+581024422+577498427+574444948
3518+573074607+573264961+573689506+573717087+573810145+573633164+571962009
3508+569536142+569165716+571839912+575165340+576457837+575551432+573604437
3498+571097878+567784156+563637391+559625751+557338446+557494377+559216733
3488+561009708+561925803+561828820+561107247+559894087+557651940+554280381
3478+551042418+549296546+548761054+548044829+546607240+545159924+544033397
3468+542586742+540751944+539816327+540927640+543605413+546199473+547267365
3458+546339077+543964689+541268714+539142863+537784402+537038965+536823705
3448+537121324+537868429+538800087+539329153+538761425+536916138+534307941
3438+531380762+528059606+524614268+522155471+521319442+521277967+520992436
3428+520713992+521178240+521972030+521900196+520771619+519849861+520156338
3418+520852589+520146577+517561236+514211249+511313700+509658489+509758182
3408+511290775+512935669+513506870+512967314+512165048+511762317+511384354
3398+510111170+508026620+506330594+505557715+504987904+504160906+503662616
3388+504017793+504877061+505530065+505617913+505217162+504489545+503530098
3378+502533588+501888260+501871761+502264418+502474919+502067116+501106940
3368+500028418+499201594+498729079+498598888+498808833+499311187+500115432
3358+501358569+502884076+503987990+503965307+502770106+500990748+499382847
3348+498461749+498180109+497851748+496722511+494836930+493161537+492649770
3338+493225139+493922363+494038347+493699287+493284399+493024017+493161711
3328+493718601+494222691+494305224+494157283+493913123+493265537+492090032
3318+490689436+489231005+487747113+486757168+486970552+488165683+489134543
3308+488957215+487793833+486459062+485842461+486533259+488317619+490182636
3298+491139686+490751753+489041381+486620273+484602173+483782852+484173807
3288+485415797+487093031+488596550+489311211+489160838+488710936+488513878
3278+488438639+487969250+487135965+486501614+486164083+485628938+484755394
3268+484063589+484039170+484672409+485540952+485944481+485383458+484296426
3258+483716089+483994186+484431480+484217679+483189211+481607536+479901993
3248+478669867+478233547+478261162+478303853+478319623+478322193+478081298
3238+477323530+475940858+474305030+473346347+473545316+474000637+473326548
3228+471326580+469088983+467820211+468088965+469670883+471604157+472663678
3218+472259975+470881367+469378474+467963289+466354173+464739672+463821527
3208+463799053+463981904+463567641+462361498+460728865+459248550+458367017
3198+458019551+457630159+456758143+455586737+454557957+453867646+453511114
3188+453368175+453031652+452000475+450288991+448621796+447723763+447395437
3178+446642948+444973912+443123692+442103839+441984659+441930749+441163219
3168+439760957+438512436+437917059+437619995+437045078+436101749+434946564
3158+433585707+432098444+430860206+430160238+429706341+428827482+427300308
3148+425704114+424737963+424482548+424492622+424319983+423820165+423053573
3138+421995059+420676233+419620741+419409823+419742560+419791156+419390023
3128+418933000+418439469+417606149+416446588+415328779+414570246+414145319
3118+413675583+412792764+411507874+410114192+408954422+408387181+408562841
3108+408980821+408645548+407091454+405088047+403907609+403978714+404654575
3098+405116149+404985263+404298252+403439818+402833673+402394365+401697871
3088+400746240+399992952+399654483+399544057+399466595+399272698+398681211
3078+397590671+396490612+396033520+396146725+396107473+395611545+395121349
3068+394909840+394440555+393189673+391571421+390452848+390056856+389851114
3058+389363662+388635245+387853057+386998513+386041741+385149961+384482367
3048+383975984+383502530+383070378+382732361+382444572+382134656+381804594
3038+381477657+381128941+380724335+380287424+379883929+379510898+379042794
3028+378332266+377335443+376159104+375079401+374377106+373978092+373531143
3018+373006384+372761355+372816968+372617374+371757134+370490759+369364023
3008+368707823+368498781+368390334+367927232+366972232+365856785+364982651
2998+364424267+364030360+363684214+363294197+362746095+362038243+361316322
2988+360666964+360008229+359250495+358473135+357874979+357553878+357402116
2978+357203772+356741504+355909747+354902712+354194894+354101697+354385040
2968+354416823+353716404+352363640+350945816+350010545+349569674+349245343
2958+348765776+348112424+347351217+346577435+345900497+345309948+344653783
2948+343864613+343142275+342761914+342721169+342763026+342719328+342572220
2938+342240768+341644244+340932779+340360606+339979759+339627465+339123027
2928+338404892+337591893+336929128+336549774+336277756+335781203+334978242
2918+334187301+333789746+333834521+334036615+334061730+333775400+333292533
2908+332802823+332379250+331996424+331619189+331179881+330591208+329860186
2898+329105857+328463898+328016462+327741456+327509801+327216037+326894694
2888+326649943+326497208+326292890+325865393+325273871+324791282+324509086
2878+324166726+323539045+322764394+322093292+321511636+320844181+320136328
2868+319673573+319595174+319721405+319827281+319838084+319701814+319348200
2858+318818196+318214621+317585585+316981384+316451832+315959065+315499194
2848+315205361+315141342+315199699+315287234+315323985+315124287+314627907
2838+314086719+313677979+313198585+312491879+311836860+311544034+311468066
2828+311211401+310585907+309728793+308958693+308544639+308446162+308323231
2818+307904903+307250232+306592017+306060033+305636113+305312789+305166238
2808+305177423+305092632+304679480+304063192+303565909+303271173+302972130
2798+302507708+301960892+301497373+301122883+300705980+300212553+299767166
2788+299426474+299045454+298466576+297735520+297050940+296551261+296198064
2778+295857129+295439948+294934711+294350345+293715577+293084769+292472058
2768+291835414+291172145+290570463+290114395+289746696+289261589+288500346
2758+287577477+286834211+286517035+286549183+286609294+286367652+285700284
2748+284801800+284063136+283710356+283565089+283254340+282634092+281897321
2738+281277802+280790402+280321760+279842714+279417804+279069887+278738834
2728+278365265+277955013+277557320+277196029+276820566+276333705+275698902
2718+275040565+274598739+274499672+274562770+274420178+273860197+273010013
2708+272210335+271756056+271676284+271707634+271562940+271224732+270872004
2698+270580533+270250262+269797251+269304397+268951704+268799074+268672460
2688+268341373+267801886+267302502+267080260+267094363+267023797+266584402
2678+265882611+265341457+265230249+265383018+265417824+265128854+264628932
2668+264179533+263930162+263820692+263687965+263400958+262923440+262330182
2658+261747848+261237175+260795869+260495072+260467648+260695239+260933581
2648+260918783+260571891+259994107+259363039+258853182+258559349+258433083
2638+258311194+258045827+257644208+257293634+257204796+257376532+257565305
2628+257551393+257351192+257087909+256793277+256470822+256203302+256041171
2618+255911101+255755084+255629478+255579892+255542412+255436449+255268969
2608+255109617+255004384+254917405+254754510+254468197+254123580+253840133
2598+253692071+253671507+253714840+253760414+253775125+253720103+253572700
2588+253433998+253453642+253557555+253471930+253133184+252810172+252703567
2578+252713554+252693007+252643474+252606584+252598490+252647520+252740127
2568+252798362+252781984+252703914+252563893+252417480+252431097+252700684
2558+253105117+253460641+253690785+253761439+253626124+253331648+253019475
2548+252756574+252492146+252198486+251923932+251679338+251378384+250959275
2538+250514409+250190096+249969104+249714957+249456052+249388976+249518941
2528+249553886+249281555+248850861+248573493+248576516+248713046+248743822
2518+248573563+248314866+248123765+248030220+247971794+247921340+247895861
2508+247886378+247889001+247979158+248225316+248524811+248656148+248510951
2498+248190337+247901454+247816923+247948365+248092745+248009136+247698959
2488+247389495+247208503+247044114+246774440+246452158+246173991+245922762
2478+245628200+245281064+244943690+244707345+244606089+244533439+244334175
2468+244018198+243769973+243717921+243792847+243820149+243692546+243457956
2458+243251658+243132808+243030493+242874719+242697426+242544708+242361579
2448+242064030+241697841+241426083+241340632+241359616+241339886+241219317
2438+241011525+240755346+240540173+240475408+240529110+240502693+240295457
2428+240083289+240079120+240220861+240261450+240093084+239846927+239709841
2418+239722658+239764359+239736935+239728147+239888054+240161046+240298549
2408+240175704+239953133+239852259+239888610+239940940+240016231+240282744
2398+240809413+241430929+242006246+242743017+244180137+246958646+251702559
2388+258988410+269276261+282888985+300050300+320800761+344834758+371501441
2378+399980204+429446619+459121208+488147099+515387866+539572966+559920244
2368+576327472+588689644+596679023+600648042+601752721+600198001+593936883
2358+580585461+560610485+536376026+509550182+483027063+462336071+452119793
2348+453860004+466332775+485301307+503755119+516143933+521835448+523308398
2338+523127875+522369759+521195955+520187982+519859900+519420244+517410586
2328+513445526+508328964+502598788+495832607+487551652+478123294+468215717
2318+457975818+447396791+436950456+427205062+418018432+408540228+398067702
2308+386702457+375141892+364057662+353782472+344375616+335712981+327534151
2298+319635225+312060491+304985783+298462165+292416862+286831345+281747817
2288+277144029+272937796+269093045+265649323+262677300+260223783+258248009
2278+256611625+255174661+253872438+252675674+251565820+250585306+249803621
2268+249201401+248686751+248213662+247765496+247269708+246667071+245999025
2258+245310746+244588183+243896065+243392061+243065611+242664340+242047304
2248+241418355+241032749+240854674+240675922+240414619+240130391+239862211
2238+239604034+239397407+239337626+239454878+239618189+239629600+239454548
2228+239276421+239248371+239293511+239247451+239092458+238931647+238816879
2218+238729552+238679793+238718159+238867646+239099006+239357998+239587778
2208+239751125+239860318+239975746+240154081+240401489+240697754+241041989
2198+241414707+241731153+241939483+242127510+242413024+242777770+243113669
2188+243360104+243517719+243601347+243628927+243630004+243660138+243773864
2178+243941917+244066377+244109884+244113600+244092203+244015505+243861051
2168+243623144+243331933+243085654+242988584+243040844+243110959+243035148
2158+242764397+242400275+242061459+241789302+241620745+241634431+241841979
2148+242110368+242325836+242669915+243601503+245431402+248011168+250968237
2138+254112343+257482633+261157420+265176252+269584162+274453751+279821264
2128+285621937+291780080+298313181+305225636+312411048+319761595+327166504
2118+334313705+340700533+345887714+349673119+352093358+353276367+353259589
2108+352024824+349656515+346365475+342436680+338119917+333456800+328337945
2098+322721252+316588727+309886044+302757495+295598206+288753382+282403861
2088+276691313+271730803+267556962+264118901+261265884+258816987+256690059
2078+254880480+253376198+252166442+251220647+250455757+249828058+249386944
2068+249161090+249048510+248842942+248413360+247888063+247519617+247367229
2058+247308004+247262708+247185594+247017124+246820031+246744688+246802576
2048+246873229+246903606+246978862+247214946+247575455+247850965+247935651
2038+247982007+248152023+248449572+248863575+249394465+249918511+250265560
2028+250422967+250534991+250732952+251030171+251409299+251957574+252732624
2018+253481344+253766284+253456351+252861339+252364021+252127833+252110396
2008+252169239+252159217+252042799+251916377+251881276+251916255+251926607
1998+251925443+252146556+252874660+254008221+254889078+254893281+254137909
1988+253250453+252671801+252482055+252563702+252703602+252773804+252855433
1978+253030330+253216255+253344015+253487683+253794733+254433478+255411839
1968+256293980+256462086+255889947+255245314+255072502+255303705+255636460
1958+255978941+256365311+256734521+256994938+257184840+257463650+257979447
1948+258822006+260116778+261899975+263619153+264181652+263195875+261661615
1938+260741542+260594383+260741108+260869006+260982941+261161016+261403821
1928+261758772+262550530+264029282+265695852+266793201+267520037+268479380
1918+269119862+268370812+266671937+265621708+266015407+267298699+268393668
1908+268653338+268232909+267708429+267452927+267482105+267735627+268292100
1898+269256288+270403153+271192132+271575967+272310167+273689347+274650861
1888+274159588+272777854+271722032+271403536+271547552+271813840+271973244
1878+271981025+271985974+272227894+273223414+275799706+280095523+284259412
1868+285310267+282657243+278914946+276531145+275868675+276076796+276399460
1858+276572290+276643725+276763304+277032873+277568956+278604874+280408687
1848+283275737+287241509+290951189+291666076+288742996+285095511+283267991
1838+283236607+283734793+284293784+285855972+289307614+293550129+295936327
1828+295696648+294678358+293839932+292385704+290253479+288688981+288396590
1818+288901149+289570445+290495416+292156446+294399149+296129842+296425307
1808+295663683+295090676+295818224+298271429+301733474+304453244+305169676
1798+304644848+304975571+307678910+312241779+315530213+314474339+310515706
1788+307575362+307348882+308879599+310766361+312603208+314217986+315149123
1778+315775867+317731893+322419638+329118431+334228185+334445216+330968686
1768+326911124+324063838+323577428+325909160+329438837+331543847+332041059
1758+332523961+333218788+334008271+336453972+341952875+348883844+353318189
1748+353645021+351996827+350890029+351413954+353451784+355832807+357173066
1738+358288582+362029385+368987483+374145729+372413125+366847251+361901973
1728+358614754+357149480+357495730+358923280+361427269+366727377+376030060
1718+386510123+391250632+387568151+380453914+374764970+372307389+373511621
1708+377981813+383769825+388324982+391983912+397646283+405617808+411422979
1698+412214894+409626566+404345111+397948557+394264860+394876251+398458761
1688+404101159+412953106+424257076+430540911+426692530+419366542+415281364
1678+416056779+420478132+425511398+428949614+432220542+436782021+439795137
1668+438036308+434666243+434666521+438332850+441808825+442345116+442153963
1658+445252600+454160923+469411751+486039380+491526716+486961312+485673053
1648+490598080+495443631+493954702+489265359+487401314+490351315+497995382
1638+509682214+522492065+529745107+528876114+526597146+528735502+535843000
1628+545610765+556065610+567084744+578171822+587371824+594858780+603951795
1618+616414702+628661132+635424743+638307217+641999250+647444625+652795170
1608+656607390+659126246+661263629+663497024+665865194+668461998+671575397
1598+675439027+680073938+685233990+690435725+695256753+699594809+703633370
1588+707702360+711961635+716103641+719653812+722641605+725984888+731162864
1578+738787792+746499838+750460382+752245332+757110891+766569053+777276673
1568+785377694+791862721+799890171+810525679+823946469+841345865+861379789
1558+874375617+875975285+874093073+872658471+871363161+870050830+868875081
1548+868403087+869879858+873643032+878489903+882983368+884083323+876758168
1538+864132974+854965971+850993756+848106141+842644997+836510388+833757341
1528+835104061+838366339+841768951+845262086+848206737+849105500+848548680
1518+847708760+845397348+840915693+836584931+835319147+838560792+846410462
1508+856007985+858540180+849043461+837278334+831233414+831093844+834247329
1498+836956955+835712082+831104543+827947654+829485214+834199532+836807173
1488+833529403+826804974+821427474+819375194+819461479+819909089+820863985
1478+823608556+828090906+832756454+835486783+833763733+827597792+821593999
1468+819845660+822263017+825251714+825503342+824505582+826338815+832582913
1458+839834774+840624049+833370867+824771521+818870548+815881226+814985451
1448+814790720+814024302+812820556+811970077+811578045+811998838+814663099
1438+819749997+823291137+820895803+815165940+811480645+811088474+811497874
1428+810467044+808572814+807395259+807547056+809184031+812295415+815196785
1418+814779465+810756188+806080288+802659127+800257124+798049781+796137349
1408+795535650+796423783+797170749+796515348+795929002+797635032+801593353
1398+805733761+808035654+807304250+803522320+798988769+796815954+797720275
1388+799347176+798808905+796481098+795601371+798096050+803019966+808349600
1378+813202306+817913706+822220361+824697325+824907548+824557408+825253381
1368+827065287+829867173+834012513+838706406+841450768+840801342+838373634
1358+836560547+836062917+836180603+836194497+835859224+835021945+833752131
1348+832795915+832978279+834355706+836673856+839889032+843279417+845155099
1338+844844419+843774268+843423016+843821509+844514287+845488496+846792004
1328+848221396+849783063+851946220+855257060+859845077+865154842+870194846
1318+874313856+877666726+880824657+884124659+887512334+890888964+894362091
1308+897895797+900955286+903025698+904368527+905910395+908364363+911588293
1298+914723645+916758974+916963222+915323052+912918687+911121439+910024681
1288+908486912+906044129+903665607+902275050+901726636+901453055+901169608
1278+900643355+899413696+897309104+895278082+895154074+897834384+901882393
1268+904779734+905600687+905666408+906540786+908226808+909647516+910441723
1258+911514791+913625428+916300804+918544550+920005482+921134406+922430133
1248+923739963+924448650+924139012+922823972+920817821+918676478+916999348
1238+915845414+914574975+912546663+909829603+907270245+905720457+905262218
1228+905270903+904933128+903696036+901665501+899688668+898746068+899419393
1218+901815352+905148145+907639559+908109261+907438229+907378343+908696232
1208+911172849+914166339+916525686+917254728+917068751+918066511+921238962
1198+925328030+928611428+930903387+933059597+935536075+938133643+940152506
1188+940654027+939687876+938855251+939469108+940871961+941823870+942781406
1178+945160136+948961867+952622846+954985667+956312309+957220590+957900932
1168+958535700+959333380+960286539+961453257+962690071+963211530+962939060
1158+963701170+967125041+972007135+975558695+976911320+977746655+979404749
1148+980980380+981001013+979935031+979604760+980801141+982884962+985009354
1138+986591654+987066567+986352322+985462591+986035668+989150109+994235200
1128+999181208+1002151981+1003165512+1003583318+1004707032+1006910970
1120+1009466159+1011483634+1013214952+1015418820+1017806929+1019481072
1111+1020306610+1020855372+1021298466+1021035166+1020040532+1019839132
1103+1021781645+1024952151+1026893345+1026113588+1023211801+1019987177
1094+1018087875+1018931060+1023590634+1031328871+1039163188+1044023814
1085+1045271466+1044318446+1042506748+1039882573+1035762243+1030893141
1077+1028109387+1029005371+1031496715+1033105207+1034526401+1037487656
1068+1041123764+1043390922+1044084394+1043451363+1041203588+1038814645
1060+1038886410+1041513920+1044346304+1046554827+1049414097+1052541599
1051+1053792447+1053701925+1055973112+1062351082+1069802885+1073741823
1043+1072743923+1068905581+1064913080+1061877629+1059246297+1056454346
1034+1054279517+1054380460+1057313232+1060742174+1060933848+1057270576
1025+1053440709+1052616768+1054016565+1055258729+1055460615+1054488559
1017+1051370366+1046483479+1043376333+1045255696+1051166465+1056777879
1008+1058285288+1055756150+1052901535+1052538959+1053145591+1051511812
1000+1047626506+1044588068+1044458641+1046447701+1048037852+1047179591
991+1044320322+1041727895+1040485314+1039395572+1037131263+1034128533
983+1031923970+1031423700+1031894792+1032009143+1031746885+1032000181
974+1032456058+1031423283+1027914379+1022326794+1016028787+1011650923
965+1011649464+1015292033+1018540695+1018065644+1014177004+1008998750
957+1003751163+998705601+994034078+990041855+987357238+986609370+987156116
947+986721428+983554119+978809233+975369661+974500008+975007711+975233496
937+974506330+972847402+970746491+969157313+968648429+968753471+968847467
927+969082561+969619859+969871002+969532950+969184824+968996624+967993028
917+965609851+963190063+962381892+962658461+961794018+958782673+955377560
907+953985128+954960310+956961180+958754190+959447662+958358406+956456673
897+956238738+958301370+959835456+958163398+954369101+951707688+951648220
887+952871904+953302076+952211084+950343114+948675919+947501004+946611829
877+946208612+946881173+948368435+949228918+948602000+947447510+947085421
867+947625568+948504044+949043219+948191836+945426354+941885214+939446321
857+939038171+940170986+941404258+941464837+940395520+939103059+938214091
847+938303016+940274291+943882125+946721247+946797528+945309780+944776233
837+945435316+945317838+943476268+941294700+940630823+942231325+945031335
827+946455516+944978188+942290098+941411552+943493497+947386236+951038462
817+952910809+952861136+951782093+950762865+950483101+950846927+951539704
807+952493975+953470269+953820062+953302354+952533713+951916383+951439386
797+951738603+953518552+955589034+955305240+952057134+948615547+947832317
787+949550644+951648289+952822857+953068789+952545176+951416252+950227582
777+949559259+949836453+951455087+954286290+957387809+959875125+961746221
767+963022287+962742245+960101743+956064641+952728236+951248199+950914176
757+950553059+950317548+951315239+953391765+954404740+953255113+952168428
747+953564751+956696560+959056672+959378884+958332910+957541343+958413289
737+960941107+963935222+966649712+968932501+969714133+967512280+962912174
727+958084477+954402378+952514261+953139025+956116328+959234799+960049292
717+958070305+954848807+953017310+954078637+956667938+957647497+955906591
707+953783311+953828259+956122998+958533129+958674019+956647166+955314966
697+956108617+955926599+951903669+946969541+945829779+948231227+950362775
687+951717067+954927866+959204370+959969885+955330944+948088392+941057938
677+935055744+930698930+928450113+927247965+924310956+916858458+906506953
667+901490917+906290686+916445793+925419247+928324229+924132760+915766285
657+906728222+899030210+894067945+893321188+896893173+902117765+905181978
647+904074868+899359369+893309030+887906728+884240261+884070818+889109293
637+897083111+900763195+895997051+888503426+886023266+887890819+887341155
627+882023331+877003405+876513487+878988158+880238033+877720081+873136857
617+869624340+866562211+861224935+854621319+850712879+850186696+850132091
607+848809339+846582267+843984491+841604858+840029088+839640808
##END=
