##TITLE=<SNM>
##JCAMP-DX=4.24
##DATA TYPE=INFRARED SPECTRUM
##DATE=2/5/2025
##SAMPLING PROCEDURE=Instrument type and / or accessory
##ORIGIN=Admin
##XUNITS=1/CM
##YUNITS=ABSORBANCE
##RESOLUTION=4
##FIRSTX=4497.3318
##LASTX=599.83466
##DELTAX=-1.4281778
##MAXY=1.8360816
##MINY=0.34037736
##XFACTOR=1
##YFACTOR=1.7099843e-09
##NPOINTS=2730
##FIRSTY=0.35813022
##XYDATA=(X++(Y..Y))
4497+209434802+209647638+210262617+210438313+209957132+209498137+209790900
4487+210570943+210940321+210704672+210569723+210908079+211179892+210919982
4477+210550116+210700315+211254608+211655880+211748128+211652603+211281151
4467+210649180+210253659+210526954+211129228+211264263+210639280+209752278
4457+209239098+209208808+209265520+209020058+208529709+208203624+208236685
4447+208355112+208280553+208093563+208012887+208259761+209107479+210426026
4437+211292340+210888228+209662609+208799310+208789846+209167834+209359058
4427+209210010+208829391+208422420+208221296+208235744+208164689+207699768
4417+206871430+206139855+206086768+206936839+208332367+209450941+209494338
4407+208475281+207391355+207159400+207685128+208402343+209027465+209263150
4397+208781550+207939967+207438063+207221654+206785926+206282175+206242892
4387+206567705+206646429+206153641+205207347+204126907+203339091+203095528
4377+203099450+202796492+202143187+201648081+201589626+201816248+202337549
4367+203328790+204486665+205111369+204882307+204101131+203277708+202801075
4357+202854981+203394652+204180796+204867423+205199348+205149607+204717713
4347+203816891+202626913+201740591+201671313+202431558+203594068+204533268
4337+204793422+204479136+204089802+203867172+203536659+202739605+201637798
4327+200994010+201372224+202296401+202683974+202201590+201673247+201950429
4317+202806008+203224987+202644342+201618940+201072019+201170786+201326352
4307+201097360+200646905+200392468+200595683+201224100+201957836+202368868
4297+202166820+201322657+200174473+199429234+199682556+200785025+201974289
4287+202648141+202658162+201982724+200737533+199516376+199052919+199372679
4277+199788085+199852936+199801941+199947119+200247620+200657083+201317777
4267+202176232+202849143+203066005+202936477+202723101+202631741+202716181
4257+202774323+202571055+202232159+202081038+202129070+202116278+201924914
4247+201581975+201040910+200324567+199762483+199871341+200973078+202789590
4237+204333905+204576979+203524738+202276619+201817712+202188100+202925479
4227+203731753+204456026+204877759+204776639+204167411+203474143+203313035
4217+203846258+204579192+205022170+205173658+205199783+205102254+204805256
4207+204312607+203795820+203512259+203483067+203500896+203593720+203972753
4197+204439399+204470108+203917871+203050877+202059723+201089918+200548173
4187+200796110+201608257+202321863+202529000+202385407+202264419+202382427
4177+202784100+203470013+204370888+205215051+205618641+205438030+204915090
4167+204430127+204271720+204497453+204755498+204580621+204103222+203882927
4157+203905776+203568466+202764354+202146743+202265029+203068148+204150436
4147+205029107+205345468+205158461+204918680+204876120+204661664+203884635
4137+203012900+202904809+203503545+203941103+203961808+204156344+204738802
4127+205127421+204785388+203743656+202420752+201476829+201541001+202568894
4117+203722551+204303614+204482987+204763480+205137320+205172717+204608890
4107+203572841+202458363+201718823+201537288+201679365+201835367+201973748
4097+202200963+202526334+202940625+203452306+203888225+203953686+203611828
4087+203112992+202659225+202368624+202387900+202652132+202830948+202886370
4077+203211323+203830903+204093968+203610503+202894631+202639096+202829780
4067+202945348+202713497+202340791+202129506+202129314+202185486+202195124
4057+202229388+202362576+202485987+202482484+202476924+202650337+202917009
4047+203055269+203012953+202879433+202749940+202731780+202823192+202762820
4037+202351091+201910222+202052751+202937836+204004821+204511971+204205614
4027+203472383+202988152+203200988+203954610+204579454+204546183+204050449
4017+203774086+204013867+204287545+203998495+203222704+202510456+202163369
4007+202110561+202291468+202788039+203690901+204948379+206173370+206747131
3997+206398423+205501748+204634440+204077341+203791079+203630685+203615470
3987+204004769+204861358+205728440+206135759+206172481+206246255+206603782
3977+207182946+207622630+207543261+207061644+206770345+207077521+207756986
3967+208129501+207746773+207057932+207061993+208007188+208936768+208930459
3957+208183058+207451483+207126722+207296753+208121640+209493693+210608449
3947+210679313+210062766+209830619+210308349+210768407+210576032+209940470
3937+209553507+210119024+211918666+214283807+215755741+215472512+214232811
3927+213539526+213967829+214774748+215031747+214844618+214955411+215510785
3917+215773326+215045481+213560980+212168746+211469884+211609747+212676610
3907+214918149+218343129+222165722+225069419+226278393+225727864+223471825
3897+220168652+217526277+217008130+218189411+218794159+217554685+216481914
3887+217769560+220448221+221926691+222047679+222337496+222379691+221117734
3878+219814750+220184320+221905359+223914141+226077687+227953038+228219135
3868+227109955+226323602+226291621+225985613+224851720+223589380+223284626
3858+224997666+229599361+236285600+240144147+236891237+230356382+225390032
3848+223411139+224039225+226180585+228712969+231282789+234081253+236466158
3838+236871020+235059005+232559334+230344600+228426638+227057339+226743244
3828+227333527+228353316+230253415+233875389+238148314+240224213+239921255
3818+239569253+239121395+236848119+233409423+231164729+231363344+233706595
3808+236580663+238431160+240082538+243193458+246700213+247818473+246979068
3798+246582676+246568803+245672285+244369388+244206764+245824226+248918868
3788+253040027+257700369+262314473+266837479+272063582+278540627+285674149
3778+292750976+300256838+309164643+319904209+332164962+344515821+354801551
3768+362128911+367006289+369859112+371485219+373265357+375438228+376788861
3758+377017975+377983300+381749337+388782506+397471584+404778693+409645265
3748+414785150+422897626+433134661+441247938+446572181+453441174+464505397
3738+478487869+491617220+501498157+509166383+516292794+523464379+531602022
3728+542025576+553749359+562694670+566514875+567537749+568594643+570175714
3718+571838978+573636057+575799969+577830485+578585902+577823479+576228918
3708+573687610+570279866+567638764+567329026+568985318+570851588+571649322
3698+571540359+571633950+572709004+574812022+578094491+582422211+585858468
3688+586401468+585289046+584660090+584472978+583833564+583282582+584608711
3678+588134759+590656233+588569354+584123608+581560480+580401421+577685690
3668+573485650+570494863+569965283+570944900+571795860+572157256+572834559
3658+573648780+573270932+572009602+572215188+575356346+580252199+583152985
3648+581510774+577133557+572701162+569261593+566930054+565497822+564499208
3638+563734101+563764008+565273379+568335900+572683942+577330673+578984804
3628+575201582+569846073+567623183+569261489+573372260+578594616+583503610
3618+586304496+586679555+586603358+588315526+591980932+595438033+596096758
3608+593367467+589672015+588065951+589365554+592375999+595760808+598940936
3598+601486740+602815971+602887288+602660788+603651977+606725235+611032425
3588+614433755+615796657+615918168+615408561+613978246+612036232+611296640
3578+613076012+616474693+618859528+618752448+617774225+618587435+621293929
3568+622561812+619316710+613171589+608447233+607436733+609112719+610410300
3558+609111534+606201755+604301430+604295923+604975422+605585347+606909000
3548+609305687+611202945+610698008+608132894+605702257+604897552+605417895
3538+606161112+606367813+605766533+604678442+604020135+604218750+604289021
3528+602959302+600641044+599012044+598675536+598554723+597677655+596301088
3518+595054887+594085239+593342928+592956923+593017993+593430698+593882233
3508+593644509+591883333+588669114+585491495+583931582+583797069+583592250
3498+582783781+582369891+583209488+584812623+585687600+584696794+582285189
3488+580232086+580084990+581683943+583251908+582866461+579868006+575310370
3478+571272519+569319665+569429882+570303534+570593543+570042840+569617098
3468+570346582+571814473+572191764+570163758+566466981+563024659+560858028
3458+559479580+558055225+556507546+555458007+555463235+556371639+557278022
3448+557384893+556900662+556365679+555310702+552824607+549303962+546235271
3438+544448509+543901117+544535059+545927415+546767082+545991412+543895087
3428+541493556+539728161+539261080+539856853+540358129+540228601+540187226
3418+540607181+540540047+539088364+536808204+534985679+534322946+534778246
3408+535910152+536813398+536292323+534031020+531317485+529721460+529380351
3398+529464670+529706088+530282795+530678455+529889122+527887607+525831542
3388+524458845+523306826+522024931+521378511+522072197+523413697+524008703
3378+523323174+521846813+520127987+518730123+518624612+520231826+522351644
3368+523234428+522533911+521211756+520076155+519387941+519232863+519467520
3358+519602137+519035853+517514665+515695313+514955929+515993652+517959334
3348+519459189+519940213+519731978+519357163+519194277+519419766+519830275
3338+519743202+518536215+516528426+514914868+514432345+514542214+514232197
3328+513084535+511401926+509957250+509691083+510911595+512677721+513583546
3318+513197646+512236643+511375714+510530679+509364405+508031096+507035271
3308+506364451+505335477+503578448+501720126+500810048+501459397+503576357
3298+506323808+508318281+508571865+507417964+506175039+505955127+506880193
3288+508218660+509154462+509449107+509442902+509595924+510038536+510403766
3278+510179532+509366391+508627217+508626067+509216786+509423661+508447077
3268+506671505+505289780+505045224+505899217+507407123+508694317+508744057
3258+507432395+505608859+503921405+502442046+501243005+500347533+499489183
3248+498643975+498205023+498172606+497922125+497188806+496637267+496973600
3238+497873952+498335108+497985634+497382541+496834800+495822209+494018124
3228+492137353+491169693+491198310+491338400+490654822+489126943+487716565
3218+487260115+487430425+487189878+486112732+484689249+483480902+482560681
3208+481655031+480499178+479188422+478215463+477983978+478370715+478888618
3198+479119579+478927658+478433353+477793172+476981461+475951023+474863246
3188+473944454+473286148+472842769+472381508+471449471+469733469+467535781
3178+465637198+464544088+463955112+463168811+461981727+460791157+459836149
3168+458909898+457879809+456958159+456382289+456165410+456105038+455836606
3158+455050758+453861652+452813751+452317599+452091692+451356421+449737705
3148+447784153+446326440+445591170+445224406+444871411+444410534+443742119
3138+442626491+440885706+438778924+437025486+436254139+436453589+437089622
3128+437589504+437599682+437100707+436407300+435812119+435345212+435053739
3118+435037565+434959521+434188662+432694977+431176473+430228158+429800848
3108+429309227+428166202+426549019+425433077+425403414+425843760+425826262
3098+425255970+424622481+424208940+423983556+423844059+423689887+423456067
3088+423151837+422757850+422160752+421336632+420531055+420059547+419936398
3078+419896487+419743256+419467992+419010949+418175012+416974229+415878156
3068+415385768+415338711+415107959+414513615+413908814+413359575+412544692
3058+411467929+410511388+409806757+409173373+408528870+407924697+407376294
3048+406908062+406578107+406340941+405986203+405261286+404097729+402786764
3038+401827294+401460496+401410581+401149294+400422390+399473064+398654625
3028+397896454+396822306+395395755+394090052+393330870+393058604+392876721
3018+392421804+391617169+390723230+390079250+389721689+389392675+388968154
3008+388694737+388827193+389116191+388933715+387998750+386725988+385722808
2998+385237914+385163704+385167050+384769892+383731890+382377667+381226101
2988+380399262+379695050+379034722+378484785+378009338+377511478+376997862
2978+376478774+375852048+375094505+374413751+373969361+373568019+372931115
2968+372184272+371729042+371650998+371607810+371312991+370778217+370040577
2958+369053606+367982629+367205566+366816633+366445826+365766118+364895568
2948+364098462+363390310+362691222+362087954+361661446+361281681+360827287
2938+360389973+360045762+359680567+359248551+358919503+358776241+358656159
2928+358426801+358095069+357575562+356759878+355864580+355275499+355012260
2918+354691717+353986424+352912240+351824254+351217884+351248140+351435042
2908+351223531+350756205+350568745+350632289+350359082+349584632+348887565
2898+348735973+348829041+348582603+347911155+347153089+346460867+345709144
2888+344903429+344244286+343783200+343369205+342947507+342626789+342425038
2878+342164727+341701758+341146628+340751735+340592335+340458973+340104409
2868+339489674+338725647+337928471+337284874+337049486+337183127+337209409
2858+336766309+336058889+335464650+335011616+334544046+334080415+333749101
2848+333560944+333374181+333050361+332656060+332404429+332330532+332237813
2838+331995210+331603837+331031313+330311380+329695704+329396911+329262956
2828+328885143+328026410+326918555+326094749+325868597+326037200+326150694
2818+325952358+325485521+324911045+324352917+323860390+323388010+322823086
2808+322134698+321448367+320872497+320388231+319990828+319709220+319438138
2798+319045023+318632806+318383231+318192634+317751799+316953124+316016800
2788+315230848+314702105+314380237+314194206+314082176+313971854+313778886
2778+313355480+312541120+311434241+310457378+309950072+309802802+309605582
2768+309090990+308381689+307776713+307334938+306848232+306222621+305603633
2758+305109398+304734304+304485252+304322540+304020262+303372831+302520755
2748+301822224+301392892+301007899+300498327+299999316+299715930+299615019
2738+299411595+298820040+297895636+297068483+296671638+296567486+296403136
2728+296017027+295450464+294806588+294205517+293700093+293225134+292729818
2718+292281332+291952388+291669438+291257761+290635584+289891809+289155319
2708+288504211+288021687+287777045+287731417+287790953+287879750+287852126
2698+287498626+286792496+286017227+285528813+285403834+285366398+285117729
2688+284684842+284297339+284006737+283671903+283242745+282798390+282370958
2678+281951369+281594505+281348851+281133506+280818940+280418174+280092506
2668+279946107+279915259+279890650+279821337+279649580+279297404+278784678
2658+278242462+277789759+277462575+277214917+276963634+276720159+276608652
2648+276618883+276505772+276116299+275597386+275120596+274692920+274355959
2638+274210972+274143036+273886386+273452784+273175149+273252740+273493601
2628+273552945+273281341+272807375+272342489+271946341+271513071+270973661
2618+270425415+270043820+269939127+270092149+270354377+270538961+270561461
2608+270454904+270262093+270009852+269761462+269581862+269461780+269347293
2598+269218654+269096795+268993566+268877179+268692194+268429896+268176452
2588+268070452+268187467+268434375+268581070+268472317+268189454+267912568
2578+267694957+267509780+267407859+267441687+267527679+267557133+267546798
2568+267537056+267462793+267280997+267111802+267109990+267271551+267465268
2558+267603040+267695585+267750798+267702626+267521056+267327409+267238611
2548+267140977+266826621+266335645+265931950+265744386+265637584+265438709
2538+265126026+264776028+264441699+264135202+263875449+263686386+263537216
2528+263332118+263007235+262633622+262386487+262372806+262492679+262515580
2518+262302308+261923972+261572597+261402653+261448734+261623157+261766942
2508+261756642+261604945+261422469+261269308+261111895+260934421+260793199
2498+260736783+260750360+260790689+260822809+260830495+260812945+260767561
2488+260703564+260678328+260736556+260786785+260637789+260213041+259671784
2478+259279506+259166622+259217443+259203186+259023343+258768330+258546431
2468+258351965+258150092+257980008+257886103+257820172+257675220+257381917
2458+256974771+256599398+256396723+256339349+256265905+256091116+255869165
2448+255668145+255518313+255465191+255537798+255660111+255685713+255531524
2438+255238064+254920327+254702018+254656025+254742208+254833795+254839947
2428+254749598+254576342+254386860+254334261+254487562+254687797+254728056
2418+254587252+254376421+254183645+254067589+254089601+254256792+254477959
2408+254644348+254749406+254853628+254934635+254904484+254804271+254832784
2398+255129363+255636060+256257540+257166414+258898276+262105071+267331853
2388+275126139+286134730+300843653+319299756+341196055+366084430+393367540
2378+422174311+451409055+480079049+507721358+534267942+558947873+579654334
2368+594546535+603986185+609605316+611937169+610313816+605120566+597977633
2358+588587549+574032449+552549587+526093909+499727604+479493001+469540572
2348+471102158+482862890+500501391+517456350+529277280+535776337+538519535
2338+538888913+537678544+535566220+533877825+533863045+534998088+535115800
2328+532717650+528142724+522217794+515167754+507184876+498827008+490307823
2318+481208759+471337442+461310733+451862717+442857313+433383364+422810135
2308+411394730+399794478+388420134+377452291+367108873+357576190+348814854
2298+340634268+332894934+325562798+318664316+312229500+306206378+300484454
2288+295083073+290201617+285999276+282447661+279434688+276873373+274687291
2278+272790713+271100697+269555301+268147887+266916674+265866088+264934069
2268+264045254+263156998+262275015+261468166+260837815+260435986+260204711
2258+259990934+259630444+259048562+258310904+257574204+256950668+256426072
2248+255945536+255524065+255196323+254929546+254671188+254406293+254121338
2238+253804490+253493602+253249238+253097976+253035879+253038371+253051303
2228+253012403+252895563+252752563+252701114+252800735+252958898+253048149
2218+253062370+253054074+253002626+252862640+252680426+252568431+252587864
2208+252697907+252808386+252866544+252900338+252983698+253157808+253390338
2198+253611400+253786294+253961659+254240496+254674621+255162808+255503517
2188+255577936+255459632+255343680+255371967+255499682+255551706+255443702
2178+255288049+255250787+255381413+255577239+255641096+255442552+255091003
2168+254839511+254778093+254761153+254647938+254455267+254252731+254057289
2158+253870927+253724284+253634301+253565006+253465803+253345826+253290316
2148+253377354+253607130+253985710+254636383+255709137+257217532+259079026
2138+261257335+263772186+266622883+269750953+273079066+276630229+280564938
2128+284992593+289839576+295010640+300537297+306469686+312740606+319148861
2118+325383181+331109323+336070845+340077918+342951202+344483369+344437253
2108+342708598+339520487+335313162+330477299+325254490+319756625+314047737
2098+308277118+302635434+297188077+291946707+287047857+282663407+278822724
2088+275459318+272549260+270137637+268254566+266797812+265548055+264372351
2078+263334994+262540032+261961164+261496052+261112156+260855174+260730160
2068+260657971+260565688+260445833+260323485+260228082+260162778+260076821
2058+259931869+259766978+259637189+259574342+259619255+259770063+259953009
2048+260145681+260401791+260713899+261010252+261260664+261448124+261517489
2038+261453945+261339945+261295695+261377939+261527144+261651339+261768859
2028+261988875+262369163+262864183+263367533+263793710+264172308+264577815
2018+264925390+265017290+264844557+264635642+264573963+264643067+264745964
2008+264846055+264963436+265096885+265215956+265333981+265499586+265678960
1998+265767130+265794109+265976724+266426708+266925492+267161979+267102443
1988+266929274+266759644+266627188+266577011+266616818+266703193+266847779
1978+267108229+267451900+267739295+267870967+267925692+268126676+268592887
1968+269134074+269432274+269432065+269361201+269391527+269506554+269674529
1958+269944827+270343414+270793329+271169731+271411550+271586183+271837535
1948+272295450+273071049+274186538+275326844+275890113+275642072+275061253
1938+274714863+274686803+274774834+274877714+275036347+275280171+275557074
1928+275852991+276336908+277144071+278035866+278701178+279315355+280153976
1918+280839140+280767282+280143659+279772015+280088637+280895521+281707406
1908+282172815+282306386+282375036+282588273+282958017+283388028+283833133
1898+284364978+284996288+285531724+285895194+286402343+287222263+287873947
1888+287844928+287361656+286949630+286754955+286667203+286631562+286650106
1878+286736568+286919601+287262157+288003649+289524993+291799071+293851964
1868+294343934+293144161+291489490+290453318+290188510+290342525+290578855
1858+290742264+290857117+291054616+291442398+292082683+293017143+294261776
1848+295922530+298092403+300162167+300747832+299493439+297863428+297143251
1838+297277136+297578265+297837112+298649868+300591743+303109383+304731236
1828+304937519+304629350+304302393+303571061+302473385+301728668+301723998
1818+302187559+302761511+303494481+304671457+306229697+307523687+307936811
1808+307654052+307496917+308180216+309859200+312046780+313863379+314718487
1798+314936029+315531140+317330066+320072811+322041212+321636907+319774472
1788+318670033+319219690+320754507+322370295+323833097+325105895+325969090
1778+326656048+328111739+331120163+335205977+338332601+338802123+337380835
1768+335705685+334630003+334767618+336437295+338741611+340174297+340650267
1758+341162662+341986016+343149189+345444686+349385112+353757275+356382901
1748+356733805+356212416+356147234+357033434+358765191+360679808+362052749
1738+363451101+366492255+371325017+374878044+374325911+371625238+369432883
1728+368308994+368199822+368968869+370179307+371907927+375213889+380768466
1718+386932514+389937976+388364852+384874044+382173197+381386443+382826414
1708+386247159+390486936+394092318+397258086+401502603+406699200+410224795
1698+410956265+410147378+407934108+404853042+403130278+403959522+406779684
1688+411050065+417156042+424291481+428269343+426816998+423851169+422965945
1678+424869477+428631471+432351009+434858540+437232047+440533757+443312509
1668+443648877+442988480+444113484+447457091+450961005+452786946+453861025
1658+456577488+462705564+472696301+483611127+488289263+487226757+487945540
1648+492209159+496426975+497118605+496051114+496540051+499649246+505357193
1638+513479882+522657025+529372613+531866585+533379825+537256289+544129465
1628+552910530+562508011+572835709+583740462+594037904+603250148+612983641
1618+624778568+637101645+646249055+651959093+656812350+661860666+666602033
1608+670630786+674103015+677249681+680057609+682414071+684517402+686910812
1598+689968523+693633859+697637864+701738771+705889314+710235056+714744903
1588+718954773+722305770+724716538+726760543+729240259+732645075+737161684
1578+742803961+748641226+752681413+754823784+757425010+762260978+769349953
1568+777519210+786187688+795821212+806610100+818593393+832872706+849659480
1558+862866806+867118643+866667526+865637228+865103290+865147280+865204584
1548+864746635+864223713+864432645+865560403+866827867+865441890+858430925
1538+849326528+843756893+842012587+841214087+839125814+836509250+835077750
1528+834749468+834460086+834379009+835691509+837943539+838740297+837296318
1518+835178207+833159299+831074999+829269345+828515601+829613313+833231243
1508+838568174+841394575+838268126+832887764+829260771+827850742+827880022
1498+828240441+827832616+827026796+827522460+829850618+832318831+832400814
1488+829671036+826241332+823833840+822647522+822264724+822384771+823037570
1478+824454570+826656825+828868910+829317099+826805734+823175743+821504706
1468+822536887+824888817+826528064+826339349+825475039+826200410+829572251
1458+833830642+834674595+831031149+826737484+824088574+822746516+821650338
1448+820108550+818494330+817801306+818118922+818495724+818466305+818564113
1438+818907871+818461634+816861566+815553737+815529826+816105870+816156552
1428+815712894+815642413+816119882+816678010+817331018+818330712+818924812
1418+817879734+815507796+813082876+811019002+809141125+807559600+806744229
1408+806928901+807480336+807255230+806160865+805586355+806485661+808119820
1398+809215509+809537308+809402830+808736437+807687804+806975748+806865601
1388+806547079+805178600+803606556+803891058+807076624+812394592+818353020
1378+823977938+828814255+832294780+833979271+834419862+834839956+835898280
1368+837487891+839545350+842277081+845353267+847652214+848527400+848631761
1358+848759965+848928184+848989253+849176295+849533856+849362779+847909667
1348+845665305+844384804+845452330+848572853+852236586+855085017+856676092
1338+857441409+858079289+858685659+858779145+858396556+858471638+859855454
1328+862613257+866299438+870139685+873120084+874907961+876492623+879077536
1318+882748031+886846080+891040403+895217507+898925020+901990749+905296223
1308+909810601+915029367+919245650+921316495+921488060+920745610+920176886
1298+920587360+921939247+923402049+924275004+924393169+923681741+922206808
1288+920565260+919304628+918085196+916188287+913604489+910962271+908792642
1278+907388191+906978553+907617618+909082930+910999917+912854510+913967488
1268+913937581+913215069+912822232+913332257+914461131+915776210+917417339
1258+919800920+922693270+924958965+925652198+925318130+925572515+927141421
1248+928915843+929413948+928564905+927612546+927854662+929483104+931090422
1238+930589948+927363947+922987462+919563126+918182447+918671767+919893360
1228+920581504+920373548+919737062+919079732+918584137+918457607+918615439
1218+918673022+918636771+918944836+919622592+919951571+919335790+918396329
1208+918715129+921123458+924764533+928267227+931033815+932849019+933491779
1198+933478743+934078838+936018412+938746378+941087572+942542148+943943184
1188+946505371+950265936+954026222+956790996+958376146+958793591+958400476
1178+958324697+959368032+960897829+961811915+962148632+962849603+964523010
1168+967136436+970298439+973483657+975979965+977074748+976979240+977092037
1158+978485265+980482631+981726533+982338549+983547245+985621645+987927982
1148+990555561+993968324+997221513+998191788+995879873+991650414+988261702
1138+987898633+990624647+994629070+998208588+1000864819+1002237969+1001822267
1128+1000522525+1000565468+1003062194+1006715260+1009923414+1012694184
1120+1014839483+1015042768+1013188315+1011285062+1011840052+1015971354
1111+1022174686+1027285047+1029697977+1030793597+1031929861+1032260234
1103+1030868261+1028674859+1027250957+1027173018+1027918884+1029055357
1094+1031148231+1034955922+1039858188+1043935671+1045862418+1045902085
1085+1045348279+1045612633+1047197434+1049313523+1050920354+1051721573
1077+1051937267+1052142295+1053143523+1054785141+1055439404+1054305720
1068+1053555740+1056345054+1062639014+1068393459+1070148222+1068483530
1060+1066031212+1064972121+1065922528+1067436082+1067812396+1067662930
1051+1068952493+1071726470+1073741823+1073023772+1069861908+1066963353
1043+1067132827+1069585563+1070599409+1068508696+1065516515+1064820494
1034+1067213556+1070338332+1070861324+1067740242+1063197769+1060121026
1025+1059410295+1059557251+1058033659+1054499594+1052556116+1055747538
1017+1062419416+1067255244+1067806052+1066118493+1064739696+1065132951
1008+1067986471+1071887857+1073584967+1071722985+1068140957+1064894460
1000+1062296441+1059503362+1055734432+1051017047+1046806829+1045313771
991+1046927015+1049343082+1050406494+1050445813+1050179786+1048936930
983+1046695217+1044650515+1042903630+1040629570+1038500863+1038508740
974+1041574329+1046004424+1047811891+1043950729+1036310529+1029743361
965+1026185732+1023909860+1021470509+1019074380+1016685920+1013600462
957+1009900339+1006738684+1004663935+1002912170+1000810930+998933680+998341672
947+998971605+999122465+997070582+993121651+989420343+987875767+988569906
937+989828726+989730569+987802010+984997568+982332066+980024961+977775789
927+975603511+974100484+973667771+973562713+972572151+971124965+971287746
917+973993264+977705517+980356868+981335299+980997397+979513123+977021069
907+974139105+971675354+969927214+968481352+966896482+965352533+964275945
897+963667623+963139542+962736736+963064112+964305852+965885494+967245538
887+968200755+968062443+965709258+961603541+958287400+957653912+959110719
877+961031679+962307718+962198965+960529671+958514667+958092690+959826051
867+961871729+961451286+957695183+952619957+948991082+948260970+950408640
857+954573683+959539388+964095874+967477824+968981897+968038949+965243013
847+961833038+958552940+956141195+955617715+956874792+958224100+958104263
837+956252807+953394964+950950942+950434643+952206067+955222927+957986028
827+959365034+959317071+958962577+959814409+962531081+966036006+968288803
817+968077850+966415457+965691481+966649068+967246793+965453757+962012411
807+959325646+958948495+960850772+963697879+965352184+964587077+962765807
797+962268818+963554059+965125475+965977098+966705118+967674835+967426306
787+964586310+960887860+959970986+962933956+967082199+969675896+971061107
777+973086498+976405845+980121515+983108258+985123471+985921762+984099168
767+979184005+974069461+972240174+973338722+973819677+971459521+967360078
757+963803774+962140615+962464783+963918313+965160193+965384183+965260162
747+966046602+967813983+969624657+971401728+974109198+977961785+981684007
737+983474045+982218153+978385574+974140848+971925905+972322994+973724309
727+974624382+975438080+976813810+977402751+975717214+973041673+971538018
717+970989860+970306805+970490919+973185283+977986812+982367550+983158940
707+978973888+972512476+968698929+969743937+973331960+975349056+973325547
697+967712271+960914909+955224600+951435801+948982925+947652997+948015996
687+949072926+948040048+944621916+941634895+940156337+938584433+936003981
677+932934209+929322065+925103621+921357487+918558622+915914313+914536073
667+918432022+926565029+932609692+932920336+928985278+925289477+924433951
657+924372255+921170027+914532030+908394159+906303097+909366804+916377769
647+922761032+922877384+916502138+909201652+905504527+904972193+904796097
637+904598319+906202919+908984703+909108863+905217516+901408221+901224456
627+902646057+900647227+892913261+882079477+872380074+866597952+865763130
617+869359589+875274307+879755920+879302154+874629804+870042016+868727565
607+869963867+870728208+869972024+869837825+872499563+878222080
##END=
