##TITLE=<SNM>
##JCAMP-DX=4.24
##DATA TYPE=INFRARED SPECTRUM
##DATE=2/5/2025
##SAMPLING PROCEDURE=Instrument type and / or accessory
##ORIGIN=Admin
##XUNITS=1/CM
##YUNITS=ABSORBANCE
##RESOLUTION=4
##FIRSTX=4497.3318
##LASTX=599.83466
##DELTAX=-1.4281778
##MAXY=1.8439223
##MINY=0.33345264
##XFACTOR=1
##YFACTOR=1.7172864e-09
##NPOINTS=2730
##FIRSTY=0.3431237
##XYDATA=(X++(Y..Y))
4497+199805751+198991105+199446083+200791025+202042670+202469135+202157486
4487+201901319+202267512+202991308+203535314+203847935+204173658+204515190
4477+204694894+204769726+205099284+205921861+206927023+207354564+206633041
4467+204934609+203179342+202390103+202760375+203533839+204023803+204278026
4457+204542558+204708743+204515347+203903520+203193018+203042885+203828168
4447+205000764+205613371+205386377+204741230+204064759+203480353+203199178
4437+203581511+204572911+205374576+205234440+204432619+203850416+203773849
4427+203844603+203927053+204214371+204622475+204747495+204401797+203809634
4417+203352799+203286019+203540156+203802865+203918011+203999715+204040585
4407+203796097+203263563+202890549+203012463+203333032+203244109+202582163
4397+201786746+201285276+201088564+201136861+201588317+202472953+203443163
4387+203965198+203550291+202127393+200400744+199302684+198984771+198902095
4377+198782662+198777196+198785699+198395262+197565657+196926966+197185892
4367+198359859+199760300+200664442+200798279+200319248+199678648+199310424
4357+199173256+198893435+198410551+197996130+197749612+197656958+197897697
4347+198460376+198724855+198061140+196676613+195430903+195005254+195470367
4337+196330950+196853748+196758317+196640134+197246199+198383062+199081261
4327+198842674+198175071+197798257+197816756+197785015+197237834+196087434
4317+194788550+194174156+194795024+196282392+197595124+197994065+197619594
4307+197198787+197380781+198221893+199171781+199683091+199797456+199817621
4297+199629084+198978124+198204330+197970411+198390420+199008685+199467255
4287+199603296+199217423+198355174+197467796+196815395+196137727+195378059
4277+195185982+196060864+197474599+198496160+198951954+199321826+199774496
4267+200011868+199874526+199471490+198872887+198130973+197458546+197052854
4257+196903208+197034250+197692812+198989977+200536888+201713996+202243112
4247+202374345+202489647+202585148+202260432+201342198+200371224+200095551
4237+200503672+200836823+200675497+200425352+200506258+200754130+200959552
4227+201322466+201930682+202364853+202291322+201990728+201853768+201728453
4217+201266030+200686899+200585984+201016249+201353582+201174798+200725790
4207+200468217+200693407+201498525+202620377+203454078+203678192+203588991
4197+203534064+203419075+202983742+202223588+201474646+201238471+201746154
4187+202621002+203216307+203234008+202781200+202131715+201735047+202015059
4177+202876163+203796479+204461097+204890391+205072264+204964511+204741803
4167+204645157+204640107+204402700+203731626+203021245+203062461+204063215
4157+205090017+205027611+203984478+203168184+203439206+204486834+205414838
4147+205723988+205521654+205024140+204297151+203515652+203077438+203229826
4137+203771680+204272681+204458754+204343817+204198509+204396348+204998647
4127+205517610+205424747+204822900+204294582+204179662+204289827+204306939
4117+204223916+204309420+204703606+205193796+205492655+205563668+205473027
4107+205140206+204542402+204021200+204030623+204547608+204983774+204850927
4097+204384912+204257496+204681341+205125576+205051612+204595662+204231968
4087+204070920+203949023+203975385+204415195+205154645+205794168+206183929
4077+206482475+206728264+206667524+206080289+205157057+204467414+204497437
4067+205205302+206045077+206425432+206180770+205641017+205247213+205150115
4057+205190794+205124483+204843360+204542350+204606040+205081132+205425233
4047+205213632+204864047+205058693+205696307+206102850+206030413+205753872
4037+205473391+205278850+205466276+206337636+207756941+209142127+209931540
4027+210143888+210324060+210707156+210832854+210374093+209768792+209572254
4017+209772037+210017461+209955472+209291722+208122492+207165350+207152785
4007+208045890+209165035+209978501+210465706+210804098+211026771+211075155
3997+211034615+211128346+211419933+211677280+211662008+211416115+211166872
3987+211126558+211420766+211966056+212378689+212286902+211865626+211845044
3977+212746913+214203130+215325329+215732739+215788516+215822392+215713667
3967+215384577+215147621+215291593+215672260+215980559+216228153+216635354
3957+217143089+217449462+217533735+217875598+219098070+221189993+222986078
3947+223255139+222577870+222694230+223833315+224336677+223229628+221441648
3937+220335328+220720229+222868953+226100014+228553583+228667532+227017415
3927+225635074+225751435+226710330+227172198+227177612+227952170+229664676
3917+230486559+228774903+225534593+223106812+222356533+222611520+223859451
3907+227546860+234576033+243104670+249326624+251034011+248658691+243317277
3897+236713580+231696449+230638843+233289488+236217542+236217282+235025596
3887+236328853+239938653+242586002+243641213+244779343+244693370+241320386
3878+237533155+237702707+242094406+247910582+252851024+255164094+253617998
3868+250603520+249794271+250823572+250112566+246401139+242456747+241331094
3858+244737468+253856273+267537509+276642778+271563275+258990164+248364033
3848+242454456+241151199+243748844+249220450+256362218+263835036+269333993
3838+270034256+266272831+261790143+258846991+256881858+255110382+253959427
3828+253730471+254221755+256543900+262507466+270375338+274104831+272076026
3818+269026387+266306655+261336727+254772962+250627538+251549694+257309139
3808+264532159+268992772+271125652+274266487+277722338+277745558+275002622
3798+272922847+271481068+269163053+266899200+266602441+268482035+271710787
3788+275877939+280615752+285098458+289409563+295093916+302587091+309524442
3778+313924488+317570039+323631865+333581716+346977682+361615488+374520883
3768+384873562+393836578+401608602+408342282+415701794+424031447+430387602
3758+432812624+434439556+439950661+450897552+463830296+471905847+473926375
3748+476546737+483767310+492199770+494990829+493194901+494143835+502005060
3738+516809988+534498022+547631660+551791870+550567003+550310506+553761723
3728+559724040+565338645+568635964+570068007+570785643+570767872+569960966
3718+569206505+569322397+571036656+575145497+580554558+583120948+579734740
3708+571708163+563199900+558577683+559451161+562934379+564743115+564601538
3698+565243752+568171702+573352172+580791965+590213933+598958492+601716717
3688+596420945+588119753+582754494+582267567+584795153+587457374+590567613
3678+597430410+607498410+613243172+611916401+608990533+605974979+600057228
3668+592239736+586117899+582488210+580250719+578617609+577566805+577674784
3658+579084023+580482156+581233424+583791241+590897692+600708709+605274004
3648+599039849+587009494+576715611+571027388+568907733+568171875+567974696
3638+569089537+571756582+574647081+577211493+581593769+589165524+594872177
3628+591350015+581916073+574939744+573759998+577756071+583997757+588114686
3618+588822533+590075862+594788598+600631656+603518511+603003296+601252593
3608+598979248+596188119+594698356+596785247+602082268+607206510+609495683
3598+610067125+611254230+613134396+614433678+615787800+619619563+626127638
3588+630861408+629331660+623506026+618165133+615259119+614370023+614700518
3578+615493818+616178272+616820868+618247323+621721378+628191759+636895849
3568+643793215+643986126+638005067+631185794+627472874+627305926+628465471
3558+627883408+624599764+620782926+619080816+619899106+622038476+624587477
3548+626995284+628368496+627703131+624773307+620457012+616555833+614631379
3538+614865523+616267335+617541349+617742590+616723892+615334575+614696631
3528+614904258+614811030+613581096+611844554+610726381+610276488+609488116
3518+607690695+605513632+604411633+605058671+606377599+606700597+605923541
3508+605623242+606890870+608954159+610116759+609310408+606465759+602392008
3498+598885812+598001506+600131713+603246812+604870689+604485077+603505460
3488+603374123+604018732+604251002+603598549+602503423+600737101+597682603
3478+594270190+592469785+592625696+593052265+592669429+592371282+593015335
3468+593813564+593988495+594233885+594938540+594799705+592814025+590173046
3458+588571243+587920456+586829495+584679018+582562348+582026342+583134415
3448+584199206+583790755+582397551+581260740+580571322+579790239+578829748
3438+577976436+577090221+575520419+572796660+569323681+566327008+564824541
3428+564613617+564738186+565080101+566590516+569383310+571631839+571607231
3418+570068181+569005993+568807078+568183329+566471326+564629965+563857490
3408+564248274+565077741+565763652+566127850+566070650+565549292+564761614
3398+563843016+562481848+560374132+557787333+555376368+553838568+553588458
3388+554429031+555635503+556552887+556866236+556261195+554554260+552296846
3378+550521292+549700780+549453412+549344774+549364419+549523315+549610295
3368+549535602+549581000+550098159+551050772+551821720+551612531+550366630
3358+548888876+547714197+546568778+545220556+544081662+543738706+544414796
3348+545746808+546719899+546392076+544945039+543499460+543061437+544008809
3338+546104481+548561608+550242477+550157129+548172698+545289245+542911357
3328+541743273+541579553+541974641+542629697+543219188+543279997+542585304
3318+541745009+541753755+542567464+543182327+543381624+543952442+544922826
3308+545165335+543979307+541951143+540334034+540206271+541749764+543879381
3298+545010153+544492057+543141683+542342934+542677942+543503417+543950915
3288+544010544+544125291+544147227+543681541+543098055+543164244+543938940
3278+544708778+545037364+545432800+546541497+547785732+547605004+545437832
3268+542790085+541684442+542606581+544549569+546386558+547501364+547574287
3258+546568709+544928449+543312728+541956106+540492027+538655976+536932103
3248+536035753+535961823+535993408+535488918+534517181+533908496+534428535
3238+535712303+536655961+537017903+537574698+538551885+539119371+538633381
3228+537290261+535436612+533287489+531505479+531212018+532811044+534957390
3218+535324920+532942798+529367255+526917347+526340003+526752238+527083878
3208+526810895+525946165+524996606+524474936+524188242+523525204+522382387
3198+521173000+520250272+519743248+519472972+518869563+517518495+515772269
3188+514338977+513459356+512867539+512349062+512030229+512057891+512178886
3178+511860608+510738200+508929291+507108130+506091098+506016821+506090160
3168+505405082+503812511+501758108+499675244+497932836+496987200+496931458
3158+497008025+496335372+495121472+494308839+494096214+493735002+492766492
3148+491618019+490847036+490432060+490015487+489415097+488602152+487501507
3138+486349910+485911956+486502766+487139774+486683876+485479313+484721346
3128+484632215+484351665+483388709+482260019+481602013+481339720+481017728
3118+480471206+479777242+478925666+477951707+477093502+476500679+476001499
3108+475386220+474707423+474098426+473522158+472826875+471961555+471045664
3098+470219911+469589394+469293433+469359415+469530181+469542017+469424597
3088+469210167+468683881+467867083+467265686+467093254+466823707+465996566
3078+464890124+464002625+463447738+463075696+462636945+461896471+461049164
3068+460653763+460744075+460585596+459728293+458669228+458058739+457851736
3058+457560184+456932236+456145842+455577246+455457223+455575823+455413352
3048+454707552+453701210+452724648+451836871+450968080+450137641+449465717
3038+449073509+448947795+448937799+448901459+448691576+448049848+446828417
3028+445252021+443725119+442511393+441622367+440838472+439971937+439211055
3018+438921411+439078433+439234761+439004851+438326193+437385242+436474488
3008+435848483+435621524+435641134+435391128+434355423+432646301+430940545
2998+429772566+429274427+429421627+429988661+430415786+430242763+429576184
2988+428806555+428084720+427384439+426789325+426265641+425413475+424043318
2978+422791378+422449081+422883112+423286913+423233704+422854235+422291747
2968+421568350+420776473+420041726+419477954+419260747+419432069+419626055
2958+419325236+418414343+417217971+416048360+415027475+414262393+413804239
2948+413429976+412773706+411744769+410692542+410115129+410171010+410501228
2938+410648497+410523442+410196105+409502245+408328781+407019086+406012536
2928+405316142+404675976+404001449+403318904+402549205+401626372+400679244
2918+399865882+399184933+398646151+398384691+398374383+398286987+397877876
2908+397310876+396935919+396883682+396940951+396753213+396161500+395329673
2898+394546300+393997105+393667200+393276519+392461977+391291186+390375538
2888+390181586+390475846+390676149+390451619+389827419+389046024+388422692
2878+388069914+387788913+387358075+386722421+385883271+384977133+384406245
2868+384426307+384708384+384731777+384427244+384057076+383701313+383232781
2858+382638500+382050189+381497524+380840663+380033896+379330699+379046158
2848+379127966+379142579+378773973+378164628+377566842+376874301+375918321
2838+375020236+374614631+374506270+374199967+373732199+373475042+373403404
2828+373165997+372595109+371753738+370764542+369822134+369184016+369019531
2818+369221431+369354990+368988051+368158098+367300622+366736468+366451926
2808+366224758+365731237+364748045+363491767+362549567+362254057+362310042
2798+362216399+361852236+361422231+361026309+360579818+360034892+359464317
2788+358988115+358667060+358404906+358027693+357509181+356969253+356462195
2778+355940906+355360786+354701600+353995766+353356780+352830701+352266721
2768+351504173+350634513+349915142+349455080+349107681+348680939+348134000
2758+347505913+346818196+346184209+345827265+345797589+345832819+345671076
2748+345335270+344957016+344512017+343880875+343018053+341982036+340924429
2738+340044982+339431577+339005390+338691311+338499789+338396705+338269602
2728+338063467+337829219+337630685+337445098+337121857+336482177+335528662
2718+334497746+333675707+333204954+333009406+332832704+332434596+331836428
2708+331296431+330995438+330837271+330599864+330210850+329796845+329486064
2698+329240362+328895740+328339083+327642516+326999712+326513063+326124118
2688+325790290+325574611+325450285+325176919+324545917+323683199+322959941
2678+322623823+322622781+322734092+322704034+322355421+321800083+321440189
2668+321506066+321732540+321713901+321373063+320861666+320245414+319520560
2658+318767973+318125169+317657123+317307573+316984539+316700102+316582614
2648+316695972+316884266+316868370+316516528+315986181+315534517+315177886
2638+314665552+313896722+313207998+313018003+313282310+313548768+313503577
2628+313209109+312833111+312416295+311961647+311564268+311330713+311220132
2618+311038675+310616444+310004740+309487304+309306333+309353189+309260760
2608+308860882+308382598+308130335+308153382+308286698+308323072+308120131
2598+307705918+307270186+306945071+306665493+306307994+305849771+305333549
2588+304811393+304389440+304212496+304313359+304528865+304622057+304478607
2578+304173032+303854025+303579653+303309377+303044203+302851883+302726585
2568+302576088+302356521+302060422+301628612+301074177+300612101+300465387
2558+300602070+300789011+300836804+300704495+300429985+300059956+299659627
2548+299344611+299242256+299376196+299590036+299656677+299516384+299331873
2538+299239548+299161246+298973576+298740473+298614967+298565090+298369091
2528+297940231+297533446+297476212+297748292+298008572+298017007+297842353
2518+297678042+297631602+297677869+297705219+297621398+297450076+297306417
2508+297283162+297360875+297411792+297326097+297132596+296923616+296699294
2498+296420306+296172139+296094253+296160234+296208028+296190639+296209520
2488+296272829+296220107+295973884+295692917+295550716+295496154+295378492
2478+295214494+295149068+295181416+295123765+294871607+294553121+294331124
2468+294207180+294132834+294175595+294398182+294644335+294643467+294337754
2458+293951065+293726500+293720183+293814903+293796195+293480104+292918206
2448+292429856+292320558+292605204+293041040+293362233+293447929+293311836
2438+293012301+292651887+292420658+292465224+292693190+292874924+292934935
2428+292964507+292984499+292906023+292725018+292592743+292661327+292927230
2418+293244432+293467157+293563335+293600820+293665517+293797931+293971057
2408+294135298+294299019+294503349+294698758+294754535+294656379+294589634
2398+294714932+294916277+294917284+294668284+294460553+294567629+294895417
2388+295102246+294980523+294573495+293925381+292869892+291173994+288821513
2378+286019399+282975713+279838470+276807505+274108025+271845474+270008555
2368+268573145+267505456+266709743+266081170+265679418+265872241+267251406
2358+270295525+275025599+281026442+287802520+294802502+301071261+305425631
2348+307097684+306241423+304138601+302432950+301619310+301074697+300393089
2338+299591077+298437363+296532831+294003128+291604207+290105801+289728414
2328+290079127+290481504+290458666+290075414+289792209+289919277+290299128
2318+290557534+290530635+290378073+290375001+290674398+291230638+291863966
2308+292384839+292721859+292941842+293100391+293124028+292934831+292633248
2298+292425829+292406948+292533981+292765627+293062871+293265952+293179840
2288+292869336+292665840+292728142+292793463+292553037+292065519+291596849
2278+291265000+291032955+290849138+290639498+290323979+289935451+289611949
2268+289446511+289422544+289473670+289529707+289516987+289398023+289243899
2258+289195099+289295355+289422874+289425321+289265123+289018015+288787099
2248+288632489+288572513+288636932+288844958+289118965+289318210+289377701
2238+289351131+289349708+289469193+289703702+289919624+289985952+289912422
2228+289810344+289762498+289762810+289753266+289703563+289659344+289699155
2218+289843265+290016444+290102417+290039594+289866763+289682286+289561396
2208+289501229+289443335+289372616+289372356+289518791+289730931+289802517
2198+289619047+289307937+289110080+289106870+289179619+289240914+289329977
2188+289448229+289506904+289492153+289504474+289593363+289692161+289751027
2178+289828184+289986299+290164320+290240141+290181796+290037477+289822648
2168+289542497+289293342+289229148+289418414+289768555+290101081+290320456
2158+290479179+290640626+290758531+290768875+290710408+290664558+290652236
2148+290664280+290733940+290918972+291231610+291593343+291847271+291871984
2138+291730407+291622151+291629752+291632703+291548569+291508585+291675603
2128+292005404+292322780+292569558+292833899+293144506+293398886+293535672
2118+293610261+293657465+293665760+293710743+293914690+294276215+294690393
2108+295073021+295367697+295540998+295635717+295737518+295890652+296106228
2098+296379940+296631751+296727998+296656463+296598188+296725707+296999558
2088+297265808+297463161+297606959+297670059+297624174+297533030+297492282
2078+297519944+297576207+297666415+297848774+298105583+298310399+298435072
2068+298663003+299117131+299607009+299841743+299779614+299608848+299511803
2058+299551440+299669380+299735708+299693745+299671081+299860555+300274559
2048+300703211+300963560+301105657+301278680+301479608+301592619+301636942
2038+301789452+302122967+302457107+302559220+302445792+302394146+302648039
2028+303189702+303816540+304352927+304763738+305171148+305779034+306627626
2018+307394061+307640423+307320791+306827478+306520758+306460816+306568343
2008+306788708+307072833+307357305+307591033+307767665+307955230+308222660
1998+308559473+309064865+310074088+311654302+313100089+313526658+312921722
1988+312024400+311410682+311204547+311347304+311725628+312164518+312488454
1978+312609379+312605804+312667863+312859003+313100541+313490596+314256060
1968+315163170+315453820+314781618+313760213+313174956+313123656+313230559
1958+313272383+313253050+313165446+313003738+312874969+312939840+313293833
1948+313987693+315164107+316910228+318667838+319209223+317993936+316063546
1938+314776724+314435538+314538658+314619425+314541261+314411138+314404092
1928+314678776+315525320+317138299+318981916+320212268+320974469+321955022
1918+322681439+321994798+320195816+318877027+318948388+319980379+320911751
1908+321006748+320421352+319886041+319833458+320088427+320385117+320860208
1898+321839269+323183881+324251622+324934827+326072645+327946008+329233524
1888+328734310+327238056+326232131+326079795+326343962+326714997+327097243
1878+327465953+327900679+328589089+330034148+333114851+338077559+343029125
1868+344609721+341873155+337589903+334612111+333514208+333439307+333599001
1858+333745194+333915370+334178843+334555883+335199034+336503280+338825530
1848+342353730+347010551+351413583+352588331+349514050+345193798+342651843
1838+342196327+342524115+342937495+344356105+347940604+352763054+355868018
1828+356055271+355171381+354271456+352424506+349609012+347464089+346953282
1818+347414490+347865182+348383000+349833404+352371680+354706807+355381299
1808+354509419+353522340+353831282+356057458+359531999+362326703+362880062
1798+361913149+361849147+364539516+369453250+372959758+371451669+366565042
1788+362831297+362213032+363636710+365533085+367422310+368981491+369559077
1778+369627904+371167960+375855394+383039454+388853148+389387557+385509875
1768+380491182+376436035+374887857+376610654+379882462+381655726+381608383
1758+381550246+381770299+382119155+384376083+390189187+397706624+402231517
1748+401702627+398631886+396094235+395422415+396497202+398074709+398721504
1738+399357539+403076846+410476307+415871450+413528410+406966849+401125111
1728+397012069+394874990+394976860+396608339+399553608+405558651+416070296
1718+428015754+433345159+428796177+420247166+413402105+410257018+411213310
1708+415952842+422542551+428020197+432307301+438564433+447456747+453971417
1698+454483195+450757051+443811196+435710829+431041443+431686538+435900477
1688+442190894+451810250+464379699+471524434+466693549+457330864+451595160
1678+451680821+456237334+461561567+464880128+467817276+472088658+474415038
1668+471151907+466038216+464782042+467746748+470642662+470304391+468995807
1658+471080025+479453306+494893055+511870257+516206752+509428817+506585938
1648+510408711+513114283+507861480+499314760+494545483+495356727+501311408
1638+511618932+522767271+526738771+520840457+513321216+510701617+513160966
1628+517822577+522543470+527290985+531285496+532443445+531909002+533847825
1618+539508836+544347877+543495642+539801569+538367027+540168716+543268231
1608+545675239+547090136+548470012+550488839+552782489+554638567+556125589
1598+558008531+560589673+563206633+565058095+566132570+567010698+568151050
1588+569682360+571553502+573606968+575621664+577584368+580242111+585121484
1578+592868517+600333717+602061443+599597339+599780253+604564490+609498598
1568+610102945+608328918+608050832+610877988+618594895+633941937+653727448
1558+661367787+652128560+640983622+634695044+632642238+633297259+635565745
1548+639599511+646992031+658719797+673542600+688995295+700582421+700605259
1538+691051989+684005375+684446730+689055618+692186266+693340397+696781202
1528+704426678+714188825+723761047+733453776+742938046+749031561+750959694
1518+751543216+751329688+749601268+748531340+751415974+759602280+772758236
1508+787847393+794491595+785100066+771239664+764074763+764692993+770051866
1498+775715688+777817365+776503088+775997730+779734530+786994324+792740961
1488+792303355+787181334+782178850+780140065+781106076+783732824+787224928
1478+792009928+798505924+805996947+812071789+812804349+807337672+801038821
1468+799297836+802751205+807586047+809554234+809935265+813750715+823256504
1458+833857211+834749292+824155249+812766309+806562490+805114377+806111139
1448+807034874+806260316+804003215+801634143+800468142+801728481+806319668
1438+813009894+816856442+814055040+808545810+805867692+806484256+807555781
1428+807725090+808396285+810448606+813126654+816298952+820641973+824439512
1418+823593247+817966701+811961277+808283135+806715624+806257123+806501333
1408+807570150+809063523+809567770+808388649+807274502+808409752+811770379
1398+815774366+819254530+821134974+820043318+816859010+814833693+815627965
1388+817398868+817284538+815679889+815791929+819177963+824377453+829335163
1378+833714211+838203077+842370542+844762382+845449057+846375986+848444967
1368+850605509+852226818+854130378+856443499+857666701+857056523+855943626
1358+855663944+856025538+855946611+854805738+853079817+851664955+850957802
1348+850901088+851438794+852525174+854066653+855985068+857920837+859073024
1338+858867619+857415202+855088058+852448606+850476671+849938965+850619809
1328+851742772+852886421+854036318+855172539+856341317+857799912+859679106
1318+861800706+864083006+866669909+869392939+871679751+873355414+874977834
1308+876962334+878820634+879724446+879593595+879174106+879133358+879534798
1298+880258889+881352489+882657186+883560998+883454026+882144053+879766096
1288+876757206+873933729+872070431+871228400+870771843+870190265+869561345
1278+868844404+867281822+864408156+861234539+859375892+859373601+860491635
1268+861613348+861944469+861517136+861300832+862071502+863322193+864174636
1258+864850344+866134077+867898663+869175316+869469645+869414458+870064898
1248+871778810+874012656+876121413+877848445+879027358+879623375+880186210
1238+881462446+883562109+886196007+889359351+892833129+895535403+896684467
1228+897307487+899080334+901943240+904319114+905515173+906526791+908471168
1218+911551558+915399286+919134073+921290103+921113089+919961179+920085297
1208+921976154+924127880+925575021+927308161+930590625+935104204+939267156
1198+941752710+942625979+943231922+944775414+947177251+949523206+951338467
1188+952969009+954671189+955921602+956213224+956200659+957141888+959269387
1178+961526211+962868533+963284828+963593457+964758695+967294437+970544691
1168+973050376+974222000+974826208+975925222+978137480+981305475+984453408
1158+986874195+989309144+992874553+996788158+998718999+997464351+994308366
1148+991711467+991206109+992699274+995152410+997713490+999967676+1001228224
1138+1001226141+1001398365+1003491434+1007038725+1009712885+1009787925
1130+1007292097+1003779654+1001844093+1003782153+1009601193+1016186598
1121+1019411099+1017947991+1014183564+1011695650+1012956267+1017874687
1113+1023427650+1026772173+1028918137+1031907730+1033983861+1032307226
1104+1028429995+1026514773+1028157949+1031890792+1035820085+1038987039
1095+1041176736+1042450890+1042870309+1042372934+1040703380+1038190476
1087+1036584508+1037625559+1040496656+1041884723+1039629634+1035474665
1078+1033207776+1035329722+1041749637+1050371953+1058031590+1061597207
1070+1060248083+1056583546+1053999143+1053678990+1054774741+1056240001
1061+1057731291+1059412646+1061254425+1062861573+1063450717+1061938184
1053+1058491271+1055694520+1056557584+1060746499+1063934277+1062805830
1044+1059470679+1057823824+1058451703+1059170102+1058041725+1055727493
1035+1055554228+1060463901+1068694356+1073741823+1071728584+1066199778
1027+1062125889+1059825540+1057030455+1053514124+1051134571+1050847947
1018+1051667001+1052288493+1053037644+1054912188+1056998453+1057361575
1010+1055964136+1054401207+1053620124+1053571116+1054400721+1056257771
1001+1058070742+1058097675+1056008841+1053203413+1050751943+1048531563
993+1046521725+1045402511+1045244795+1045513301+1046416281+1048004269
984+1048640687+1046819039+1043973418+1042913486+1043930449+1044195970
975+1041271144+1036065337+1030934986+1027081288+1025185850+1025811021
967+1027568944+1027094199+1023018088+1018269810+1016699661+1018887623
958+1022041179+1022928054+1020673243+1016526465+1011199733+1004897064+999219566
948+996021028+994961096+994180360+992486441+989807768+986656989+983758333
938+981526360+979832580+978526980+977727085+977456844+977463716+977491344
928+977677799+978533575+979986131+980874880+980245682+978562522+976646814
918+974339177+971329731+968414137+966936591+967341641+968857852+970332066
908+970610430+968588999+964432364+960393600+958980056+960592202+962995497
898+963205900+960696884+958134693+958146494+960391517+962451890+962696308
888+961262426+959179562+957574080+957070457+957265450+957123562+956272159
878+955474277+955569379+956363304+957150981+957600875+957405465+955935416
868+953185660+950458534+949271777+950205925+952462680+954024151+953497344
858+951890543+950658734+948956206+945403154+941575071+940818492+943945809
848+948347764+951085511+951502292+950713018+949664471+948604886+947993112
838+948690963+950656651+952125590+950998392+947291789+943882292+944070274
828+948139998+952779847+954747271+954369780+953655268+952860440+951201646
818+949059499+947638875+947595073+948788772+950696566+953064249+956272784
808+960372219+963874874+964576475+961946602+957711109+953873446+951423712
798+950876912+952353070+954793711+956715944+958179606+959976055+960825722
788+958634358+954517152+952127811+953486931+957970730+964077642+970094035
778+973789670+973293753+969073809+963982471+960400888+958247080+956430083
768+954921161+954651475+956247724+958943890+960914298+961411812+961297551
758+960558327+957870283+954074548+952728756+955491770+959986329+963165361
748+964321852+964022178+962580868+960703201+959668189+959995492+960950118
738+961632906+962117091+963550418+967042869+971935535+975648664+975537249
728+971414698+966188273+963429424+964338512+966851208+967834712+965796274
718+961917516+959076269+958769236+959417663+958350581+955515164+953796115
708+955287406+959101120+962654658+964091526+962982793+959007684+951782321
698+943112871+936900167+935279413+936880244+939029402+940363462+941177032
688+942275213+943597334+943888192+942015246+938047773+932376661+925256257
678+918480718+914647706+914273200+915223938+913888836+906712065+894019886
668+884534228+888288590+899463447+905767783+903764401+897278054+892531858
658+893696749+899559243+904387421+904635865+903067382+903309440+903973347
648+902127126+899848297+901454889+906051491+907485373+902912582+897563914
638+897316927+901284331+903715045+900804727+894401542+888143022+882827119
628+877783818+874126640+873776499+875026495+873313417+867964957+862221374
618+857472193+853206851+850669373+851733331+855932380+861284102+866178365
608+869978890+872097226+871744656+870134315+870754697+874517667+876191317
##END=
