##TITLE=<SNM>
##JCAMP-DX=4.24
##DATA TYPE=INFRARED SPECTRUM
##DATE=2/5/2025
##SAMPLING PROCEDURE=Instrument type and / or accessory
##ORIGIN=Admin
##XUNITS=1/CM
##YUNITS=ABSORBANCE
##RESOLUTION=4
##FIRSTX=4497.3318
##LASTX=599.83466
##DELTAX=-1.4281778
##MAXY=1.7188232
##MINY=0.23718631
##XFACTOR=1
##YFACTOR=1.6007788e-09
##NPOINTS=2730
##FIRSTY=0.25313672
##XYDATA=(X++(Y..Y))
4497+158133477+158391737+158872959+159379613+160004897+160413958+160343342
4487+160397742+161282273+162768555+164119749+164933311+165087146+164518106
4477+163454736+162364669+161507637+160993908+161109783+161894711+162619281
4467+162469932+161638573+160975198+160752608+160585257+160324855+160206970
4457+160313815+160501888+160614132+160371845+159453822+158001163+156685174
4447+156101231+156297653+156775096+156822887+156247033+155736283+156026351
4437+157007944+158115343+159014061+159472477+159249347+158483763+157678244
4427+157161426+156925003+156865558+156781612+156274158+155081686+153484715
4417+152089304+151294891+151169484+151593076+152211900+152467247+152002352
4407+151016431+150175669+150198168+151251792+152591061+153153865+152636534
4397+151601650+150600248+149716481+149000465+148861170+149708876+151329380
4387+152872221+153572738+153253673+152114661+150558499+149244390+148729610
4377+149030514+149784332+150541827+150787790+150211396+149139742+148336774
4367+148285800+148875133+149700591+150426343+150854217+150919080+150773334
4357+150737309+150995672+151355509+151480935+151345903+151234450+151311581
4347+151434391+151366977+150967886+150243129+149423229+148834435+148545410
4337+148346893+148169320+148221225+148561737+148883846+148947257+148969542
4327+149348797+150045078+150434814+149978288+148987079+148390839+148637864
4317+149262468+149736057+150059525+150211620+149885154+149215040+148941765
4307+149451397+150335313+151037431+151314458+151131151+150654006+150252326
4297+150124202+150064021+149860933+149733748+150016593+150552299+150935129
4287+151262664+151945215+152787549+153056422+152526199+151717971+151079534
4277+150596897+150203372+150029132+150202618+150717659+151458268+152180390
4267+152625345+152824133+153056310+153344321+153322325+152812143+152142057
4257+151693499+151551690+151687560+152053866+152564392+153288692+154341468
4247+155360733+155629242+154979086+154061612+153530877+153423222+153478050
4237+153625090+153935097+154319509+154473838+154119400+153314785+152541949
4227+152387071+152963000+153646770+153698796+153227134+153057055+153524463
4217+154054565+154166893+154141806+154394007+154840433+155122272+155027361
4207+154697256+154649521+155281526+156245822+156804605+156753221+156432071
4197+156019510+155443571+154833135+154499158+154513130+154603974+154529020
4187+154495834+154998122+156055553+156936602+157016061+156532716+156077317
4177+155869788+155976894+156610332+157718774+158776410+159311213+159271595
4167+158827775+158216939+157660632+157083679+156238711+155421286+155449827
4157+156473271+157463269+157508901+157043205+157085820+157801734+158520942
4147+158757662+158555905+158124485+157672231+157457442+157647060+158105067
4137+158474510+158574672+158618478+158905968+159438109+159991939+160368923
4127+160415466+160073297+159499844+158939107+158560485+158499606+158761199
4117+159076206+159236985+159433213+159847207+160207398+160211848+160082345
4107+160238880+160676258+161135717+161701741+162636800+163674756+164125763
4097+163758646+162956274+161928147+160525606+158991515+158116405+158389168
4087+159528571+160949860+162219435+163009781+163114950+162713671+162371800
4077+162642869+163607548+164702846+165091596+164380635+162963740+161630828
4067+160988602+161178649+161828638+162301203+162253635+161903088+161630120
4057+161560938+161663241+161996175+162711902+163855773+165137003+165994334
4047+166172428+166118754+166415478+166967968+167191767+166816087+166088278
4037+165403698+165058326+165133857+165398931+165501439+165312547+164933422
4027+164504422+164242866+164500661+165433858+166636467+167434464+167594517
4017+167494505+167555998+167747366+167712198+167241364+166568029+166187974
4007+166379174+167022051+167899824+168894030+169815386+170387293+170543884
3997+170463662+170235487+169800287+169333921+169297133+169796880+170273504
3987+170265740+170098817+170293071+170676850+170670724+170265740+170161595
3977+170870973+172084585+173075812+173464580+173370544+173056990+172760284
3967+172764548+173290917+174193563+174944495+175139177+174913292+174575759
3957+174077911+173318303+172736491+173079479+174607762+176643499+177956937
3947+178089382+178059110+178848617+179791123+179527128+178012752+176381850
3937+175651304+176518074+179167105+182473293+184292621+183616456+181951168
3927+181562846+182886561+184152339+183819646+182828215+183168466+185046141
3917+186434980+185281837+181779571+177994526+175773471+175689023+177777149
3907+182491891+189972098+198314661+204040495+205381766+203014454+197837367
3897+191374732+186760710+186504832+189720875+192125124+190873235+188967932
3887+190354126+194097488+196464856+197220238+198401400+198484694+195316778
3878+191846478+192063240+195743972+200479305+205070800+208039380+207038900
3868+203609540+201942278+202447778+201697460+198097136+194210197+193150123
3858+196584454+205304486+217669038+225070065+219319042+207083470+197362289
3848+193050222+194046234+198749731+204654943+210024720+214693905+218219163
3838+218795428+215907908+211666140+207788455+204424553+201817895+200786306
3828+201312117+202785609+206137818+212824235+220256725+222364083+219224800
3818+216393654+214368101+209812649+203456188+199254430+199607099+204547130
3808+211343110+216027245+218775526+222678121+226757582+226907918+223780178
3798+220722886+217398341+212514405+207787710+205665812+206347208+208685552
3788+211969567+215683308+218829516+221283400+224533195+229025794+232326229
3778+232442514+231272318+232166138+236804810+244729432+253459442+260040410
3768+264144874+267409582+270589544+274417130+280665740+289764989+299126091
3758+306272339+312785614+322559780+338092119+357857605+374863249+384054319
3748+390352209+399408824+409096867+413087392+412847377+415694981+425470488
3738+442161424+462543741+480033699+488540579+488658986+486603812+487219303
3728+490842210+495269537+499192295+503346356+508048550+511920929+514363307
3718+517266131+523382688+534419262+549822508+565072979+573566977+574562635
3708+573679910+575592325+581640668+590403612+598462522+603245478+605238283
3698+605769363+605692473+606829400+611999672+622458325+634389093+638821223
3688+631968236+621845552+616467957+616595933+619048029+621635064+625743624
3678+633057354+639374755+637798681+632081356+630715361+633116706+631837915
3668+624437019+616606805+613206228+614482971+617887347+621248269+624546489
3658+628080255+630791766+633118791+638840510+650562019+664569519+671065200
3648+666388512+658325097+653006556+651141764+651789128+654077056+657251768
3638+660522694+663351792+666227807+670985890+679424631+690631852+698801982
3628+698324781+692862365+688468437+687423332+689871220+694213168+697322495
3618+698024073+698761768+701458237+705331994+709024641+712041477+713384089
3608+711850165+708305414+705352622+704994274+707310203+710992946+715020111
3598+719177150+722914107+725014446+725425295+726360484+729927277+735103656
3588+737558694+734408855+728375630+723293604+719969655+717875571+716770294
3578+716293242+715716922+714704136+714220606+716506300+723224869+732906581
3568+740113223+739226440+731411307+723296732+719074755+717858369+717046800
3558+716406957+717401424+720050082+722647208+723987958+724633311+725834133
3548+727996803+730163272+730603312+728164807+723488342+718999019+717007852
3538+717811974+719662692+720925621+721827671+723561918+726696863+730934925
3528+735445099+738736132+739322133+736803424+731556373+724749037+719505487
3518+719257577+723197166+726092244+725146779+724239218+727611721+733190682
3508+735893927+734490325+731326858+728628826+727790225+729007951+730753443
3498+731378242+730747411+729532216+728513324+728906151+731097715+733009945
3488+732072075+728441982+724130567+720889801+720309981+723244528+728158030
3478+732181322+734371918+735871661+736960182+736690454+735486728+735435418
3468+736959289+737394638+734780012+730831934+728183796+727227086+726776024
3458+726272758+726929431+730263061+734849864+736658804+734476101+731899902
3448+731799814+733031169+734158489+735788180+737159910+735328405+730331126
3438+726851387+728372204+732394305+733031243+727967015+720726266+716018003
3428+715705454+718883070+723127984+725950305+727155818+729096421+733280344
3418+737986671+740201619+738898178+735736945+733423400+733543221+735008782
3408+735200094+733382441+731431190+730987724+731904146+733323908+734723787
3398+735779468+736217944+736316319+736882957+738456946+740770194+742796659
3388+743328968+741932887+739330027+736410597+733515444+730876541+728922460
3378+727825970+727383174+727395387+728087731+730182857+733801184+737371180
3368+738835028+737971404+736299339+735099933+734929770+735927811+737358967
3358+738310241+739234929+741313822+744172931+745950594+746013372+745723462
3348+746087469+746475679+745758686+743381096+739709300+736361298+735330342
3338+737036663+740181661+743426746+745789516+745994159+743590728+740189182
3328+737675611+736203646+735030900+734317109+735052496+737450341+740211225
3318+741690786+741236671+738912476+735187435+731512883+729599909+730092823
3308+733151660+738842400+745145206+748015784+746334931+744036131+744753496
3298+747565839+749475089+749482238+748519496+747263939+746159258+746111895
3288+746934635+746667289+744752304+743864031+746100725+749805362+752365476
3278+753289196+753148821+752229792+750795285+749118008+747570828+747048945
3268+747968570+749214818+749482908+748758320+747639191+746435689+745184823
3258+743800434+742624635+742617709+743851670+744697346+744146867+743565706
3248+744628685+746861208+748373089+748124286+746614043+744802273+743325914
3238+742922513+744493820+748167180+752477106+755001326+754641936+752767612
3228+750886957+748529624+744889775+741238309+739750706+740814280+742768882
3218+743589611+742389162+739954007+738137769+738263102+739975529+741862513
3208+743028483+743555504+743724550+743743689+744039184+744957691+746053362
3198+746380805+745804112+745273964+745301294+745026725+743833946+742742892
3188+742680561+742588964+741008198+738664120+737503661+737986447+739054341
3178+739951103+740500316+740150160+738439892+736325106+735567974+736574058
3168+737666973+736871713+734028241+730621632+728102475+727174510+727916748
3158+729822499+731807857+732712364+732170896+730622153+728702551+727387270
3148+728016835+730792092+733343196+732568713+728434312+724080300+721885012
3138+721282032+720491910+718953593+717537182+717047544+717182856+717192834
3128+717303496+718577298+721129742+723549705+724561001+724256719+723260688
3118+721957546+720549624+718933709+717091481+715814329+715932735+716831732
3108+716941276+715705975+713979473+712814844+712535211+712737172+712871441
3098+712610425+711962167+710919668+709176112+706846556+704993604+704643225
3088+705667554+707148157+708402672+709143271+709080791+708240551+707428163
3078+707366651+707506803+706719585+704905060+702771954+700532282+698151490
3068+696372711+696289081+698089383+700617401+702007524+701117762+698637479
3058+696331752+695152676+694561611+693546219+691901186+690764334+691754704
3048+694834318+697478062+697335676+695298785+694134826+694757540+695456363
3038+694415800+691751204+688792752+686653763+685956728+686557027+687078463
3028+686134189+684335600+683659566+684727757+686127561+686494249+685827672
3018+684359729+681887414+678718585+675876380+673995279+672693849+671278555
3008+669708290+668666536+668749867+669726684+670771939+671410739+671776235
2998+671873567+671192096+669257228+666096144+662296261+659044473+657509507
2988+657665148+658257702+658309235+658086869+658163126+658312959+658021038
2978+657407707+656807259+655912135+654225474+652101304+650610871+650477570
2968+651490133+652790818+653539460+653355372+652229988+650296981+647981648
2958+646122144+645412970+645707125+646171889+646073589+645179210+643609764
2948+641727621+640009385+638682337+637638051+636908845+636747841+637010496
2938+637163456+637063295+636950026+636635095+635540020+633565683+631381342
2928+629924792+629587370+629585583+628662235+626818294+625417075+625234625
2918+625502045+625162464+624133704+622923872+621664591+620109816+618375234
2908+616983286+616034246+614992938+613522909+611910755+610521228+609493138
2898+608982277+609009943+609112413+608717836+607778253+606653577+605473532
2888+603904310+601735682+599560091+598367089+598334657+598640131+598598652
2878+598187729+597494566+596556734+595542756+594419383+592979291+591602200
2868+591055631+591253645+591178282+590218704+588818714+587750821+587300503
2858+587095824+586456651+585035996+583167257+581462016+580202289+579227482
2848+578207733+576925442+575487993+574329954+573847057+573961665+574104796
2838+573649899+572386560+570638126+568956418+567598763+566322802+564845959
2828+563282880+561929843+560929270+560334444+560099902+559841530+559083132
2818+557908449+556916478+556394409+555913522+554846149+552975884+550591778
2808+548254291+546412361+545055898+543907577+542916909+542216597+541636926
2798+540676604+539114903+537399273+536214835+535752677+535552279+535016545
2788+533873810+532216117+530438343+529109918+528519374+528323445+527959884
2778+527382150+526962290+526710695+526109949+524767747+522797804+520544281
2768+518429606+517028945+516652948+516786770+516453258+515181020+513301260
2758+511475750+510239891+509722141+509551010+509197578+508418775+507241486
2748+505796032+504343764+503117027+502025638+500819492+499587952+498712525
2738+498219015+497635881+496677011+495667092+495018537+494545990+493669223
2728+492223099+490700755+489647942+489076388+488534994+487635960+486470884
2718+485470497+484819224+484186977+483204389+481964694+480813358+479869195
2708+478966066+477920774+476738011+475603914+474672114+473845874+472880265
2698+471755141+470799511+470273421+469907068+469081759+467511159+465617770
2688+464190710+463731494+464099075+464711476+465004067+464639948+463517729
2678+461914697+460456769+459550140+458959820+458219927+457285372+456531889
2668+456211446+456129008+455844013+455043205+453732950+452231086+450969422
2658+450149662+449615380+449145924+448702346+448304753+447936985+447629128
2648+447354447+446870395+445943435+444656489+443269941+441898993+440513822
2638+439159742+438039460+437412240+437388074+437684426+437687814+437066701
2628+436201961+435625976+435260703+434679579+433843026+433056478+432477105
2618+432091427+431893003+431744920+431299667+430334467+429088293+428042108
2608+427300279+426406980+424995261+423427267+422489323+422543462+423139405
2598+423407458+422836537+421675892+420529731+419749625+419379064+419377501
2588+419575329+419602846+419135214+418156163+416940820+415864772+415172838
2578+414837352+414638035+414356056+413874126+413194368+412444311+411777845
2568+411206329+410609604+409917149+409165416+408417593+407778718+407418509
2558+407399073+407541012+407592917+407460584+407198601+406865163+406429702
2548+405796078+404954088+404094076+403458553+403083971+402797524+402429794
2538+401948906+401456067+401085432+400839906+400563326+400141158+399632717
2528+399143862+398706725+398349607+398136773+398059213+397984482+397751132
2518+397258255+396532661+395793402+395338914+395267386+395404485+395544078
2508+395613186+395579190+395382218+395029977+394642326+394340613+394140662
2498+393969419+393731563+393343428+392763757+392064041+391454992+391155028
2488+391178337+391293095+391257610+391077915+390907789+390728243+390356603
2478+389778198+389207985+388804397+388559839+388443815+388399320+388223758
2468+387728461+387061623+386618976+386535384+386518033+386323816+386103498
2458+386053901+386039715+385824572+385427910+385024657+384671076+384299808
2448+383926529+383751675+383961344+384423576+384731322+384606846+384144688
2438+383640008+383274288+382994878+382669707+382281348+381883643+381479311
2428+381126437+381043775+381370920+381886547+382171915+382074881+381868153
2418+381862680+381971219+381846743+381416309+381021584+380976008+381185938
2408+381286062+381063398+380671018+380395481+380310995+380295915+380272271
2398+380218020+380046516+379704180+379311986+379048624+378971213+379019432
2388+379107790+379214543+379451318+379989771+380864900+381988049+383468877
2378+385752932+389272848+394066974+399834716+406225544+412968316+419803653
2368+426334633+431891030+435654014+437267732+437486896+437670761+438040502
2358+437050355+433390735+427757634+421994510+417899876+416851046+419329244
2348+424880428+432521117+440680187+447006339+449512426+448336737+445481537
2338+442693435+440032451+436512610+431646025+426003876+420497448+415577840
2328+411208302+407197074+403338099+399547785+396016438+393012150+390550633
2318+388385468+386229575+383967041+381760843+379905508+378529497+377538382
2308+376802436+376244250+375761129+375219102+374611803+374130283+373917374
2298+373831399+373644294+373369278+373175732+373095826+373029920+372940110
2288+372858156+372775123+372663642+372568060+372541810+372509937+372352657
2278+372148015+372145148+372437664+372801262+372897700+372588018+372046587
2268+371584764+371377441+371405814+371621180+372010656+372479963+372815262
2258+372855103+372685871+372578970+372676786+372826209+372810943+372656791
2248+372601125+372814852+373237802+373677210+373999924+374178427+374224114
2238+374207284+374287748+374578440+375035497+375566800+376149338+376762968
2228+377304026+377647442+377793179+377930092+378317482+379075322+380094847
2218+381142261+382042524+382817901+383661529+384737949+386039826+387465174
2208+388964246+390577666+392380201+394369767+396353674+398045473+399404989
2198+400775303+402549019+404815202+407397211+410023119+412368426+414168876
2188+415440965+416499923+417701079+419166826+420756565+422284159+423666463
2178+424833885+425715940+426382256+426946586+427324408+427325301+426926517
2168+426273679+425512116+424731787+423985342+423250737+422357139+421074364
2158+419381745+417511666+415657895+413801071+411767457+409338930+406480342
2148+403404339+400286709+397430615+395813807+396492820+399254039+402775332
2138+406110600+409152719+411970535+414595364+417123940+419537498+421724744
2128+423727863+425712551+427814157+430081643+432436519+434733533+436863958
2118+438770676+440542493+442420280+444467895+446421343+448026535+449284102
2108+450358065+451447927+452692201+454191422+456125210+458548785+461082760
2098+463213967+464829212+466098844+467007260+467321001+466958557+466094226
2088+464732364+462474671+459031571+454633809+449729132+444759518+440212109
2078+436319511+432878124+429697752+426848100+424351322+422107182+420139026
2068+418601267+417521310+416590701+415361730+413836407+412530583+411739568
2058+411214111+410645498+409935655+409047233+408020000+407016969+406203799
2048+405673576+405374655+405136650+404926534+404809952+404615661+404160578
2038+403716255+403698196+404156221+404970993+406186224+407902114+410122573
2028+412745465+415517185+418031799+419899905+421046996+421825873+422565654
2018+423027179+422670358+421378274+419505104+417365408+415048436+412614064
2008+410224261+408020968+405946656+403869029+401892868+400249660+398861138
1998+397425290+396034944+395225534+395139038+395062707+394240972+392815886
1988+391431646+390383226+389646722+389225187+389041769+388854924+388506891
1978+388048419+387611357+387267531+386960568+386656620+386589523+387003909
1968+387564293+387516706+386657216+385621382+385011029+384764721+384551813
1958+384327511+384222993+384198864+384085187+383827150+383558985+383500303
1948+383864757+384867415+386537469+388193262+388531429+387032915+384763195
1938+383028054+382122132+381739917+381691810+381871393+382076482+382148680
1928+382228921+382816449+384188588+385717373+386558730+386962392+387543478
1918+387612958+386046417+383516984+381911048+382062407+383196355+383979700
1908+383735552+382833614+382039880+381671330+381528870+381425767+381497518
1898+381974310+382700537+383159009+383370837+384173321+385746007+386665594
1888+385701883+383701780+382236070+381696538+381582563+381502806+381398548
1878+381380601+381546035+381920654+382924541+385576551+390239500+394904608
1868+396059593+392832716+388151411+384923230+383713956+383560921+383442738
1858+383010367+382566045+382548321+383029320+383879092+385188192+387263324
1848+390512915+395008269+399106515+399518518+395551674+390762313+388199592
1838+387873267+388254253+388610702+390009426+393787043+398929724+402112702
1828+401938443+400415057+398816158+396453351+393585454+391871984+391914357
1818+392616084+392949596+393380625+395049153+397868198+400109173+400320332
1808+399071068+398088330+398721247+401460051+405550999+408902985+409793492
1798+409035616+409292424+412482364+417902445+421668705+420112292+415103656
1788+411404790+410989064+412665634+414806224+416972208+418890097+419954118
1778+420711846+423206204+429078352+437436331+444005849+444738145+440805408
1768+435762590+431886673+430916893+433668841+438232187+441349371+442675674
1758+444022716+445537836+446982099+450252727+457144028+465848216+471648464
1748+472388505+470496941+469154776+469919504+472773997+476349615+478971688
1738+481461466+487172574+497193756+505836841+506252232+501424185+497152388
1728+495252148+496007158+499324516+504311332+510721970+520238583+534309978
1718+550036310+559432729+558795568+553664616+550054108+550496010+555664049
1708+565082511+576386431+586256440+594759188+605634945+619803523+631336660
1698+635723215+635729023+633314944+629794842+629040466+633438340+641930103
1688+653094952+667973373+686055326+698338558+697650310+692067626+690330995
1678+694518419+702891924+711443785+717623343+723792773+732255568+739647416
1668+741372057+740466954+742829798+748948738+754371164+756166104+757105984
1658+761656372+772627302+790693318+809577680+814244166+807604014+805826649
1648+811033784+814412020+808680397+799132729+793600014+794148482+800110813
1638+809889038+818496303+817271726+805983333+794851251+789440442+788421326
1628+788369942+787578852+786461734+784404438+779978787+775199629+774029861
1618+776388238+776407451+769553943+759939402+752858837+749070943+746728056
1608+743944756+740444613+737293061+735151168+733378197+730980873+728015272
1598+725537074+724273102+723821072+723233805+722024270+720357940+718576255
1588+716855711+715293414+714112774+713498847+713480155+714626837+718310995
1578+724706962+729763668+728003729+722339202+720179734+723054557+726272386
1568+725458434+722437427+720937313+722994162+731078726+747895143+768376579
1558+773455031+760577383+747267216+739608841+736008908+734770107+735004910
1548+736999800+742396088+752319901+765925414+780981967+792150613+790234139
1538+777713647+768167022+766694014+769297098+769813023+768007657+768702756
1528+774113640+782295088+790827587+799520418+807558513+811746978+811707510
1518+810522625+808591554+804763521+801102747+801556937+808328975+821155239
1508+835901328+841021333+829811357+815010383+807259890+807170154+812062283
1498+817735373+819201977+815759771+812843990+815080310+821477320+826094358
1488+823982848+817187426+810963484+808045618+808101619+809780610+812861043
1478+818283544+826388512+835892987+843422232+843992296+836940848+829143811
1468+826931991+830764492+835887104+837214003+836518457+839988143+850382678
1458+862897361+866106999+857412976+847228222+841892255+841256955+842611780
1448+842675823+840293766+837367038+835952563+836548841+839354779+844672948
1438+850959519+853891683+851358527+847640262+846944716+848766465+850394295
1428+851134597+852667850+855565535+858553775+861410204+865458518+869580929
1418+869106335+862893638+855704793+851200800+849286933+848361499+847723593
1408+847759860+848310264+848159017+847077049+846999079+849433638+853215202
1398+856087344+857349230+857210493+855459491+853024262+852248661+854029750
1388+856169111+855547886+852475347+850508233+851783897+855338999+859444506
1378+864007628+869978969+876731943+881393216+882336894+881647380+881829384
1368+883043461+884925754+888042379+891724750+893063340+890576801+886464220
1358+883081738+880423994+877761187+875490759+874600401+875197795+876237465
1348+876544056+875793254+874630263+874271990+875804424+879123458+882333021
1338+883071015+881020644+878037320+875822372+874756414+874641955+875304883
1328+876349988+877303199+878186333+879336739+880827917+882454556+883844158
1318+884533150+884550055+884632195+885241356+885904730+886062159+885932061
1308+886084723+886714512+887694457+888884704+890025950+890693495+890637717
1298+889988715+889009366+887887333+886724417+885307931+883014343+879407932
1288+874813160+870062151+865897739+862680580+860321608+858287770+855861924
1278+852723107+849374956+846758989+845357695+844978273+845357249+846381801
1268+847665433+848552812+848753954+848637558+848768029+849203229+849389552
1258+849082514+849084748+850281325+852324918+854212647+855680814+857019851
1248+858168470+859027923+859959909+861181806+862368627+863305007+864300516
1238+865765258+867840799+870388254+873035274+875420013+877521841+879543913
1228+881555410+883559237+885781856+888450770+891243304+893430847+894829758
1218+896034824+897369467+898446818+899177290+900229992+901929089+903608974
1208+904725942+905931009+908314109+912051215+916440674+920801983+924611399
1198+927074852+927723109+927465221+927920677+929772065+932684644+936223437
1188+939717846+942000562+942593637+942579637+943428069+945548068+948341049
1178+951031708+953278082+955270068+957297502+959260892+960624653+960988511
1168+960975777+962105257+965085156+968669450+971034007+972009335+972900065
1158+974391616+975986307+977380005+979023101+981101174+982928434+983908825
1148+984497358+985553411+987541450+990730013+995155814+999996558+1003707376
1138+1005321802+1005336174+1005186639+1006023305+1007779669+1009271741
1130+1009420904+1008389426+1007001686+1005565764+1004283324+1004134310
1121+1006204936+1010430860+1015596813+1020058954+1022143655+1021244510
1113+1019175745+1018948911+1021476482+1024500691+1025349495+1024033171
1104+1022859903+1023634833+1026327578+1030247209+1034941546+1039370548
1095+1042281861+1044157973+1046726353+1049837766+1050940362+1048301235
1087+1043166336+1038657577+1037296348+1039425730+1043493406+1047899323
1078+1052088459+1055154371+1055070071+1051315242+1046837387+1045209930
1070+1046823611+1049105432+1050074877+1050184794+1050530258+1051533512
1061+1053722917+1057475363+1061547210+1063770498+1063906629+1063892256
1053+1064848296+1066355486+1068178202+1069528708+1068004018+1063173997
1044+1059197472+1059808271+1063475078+1066874687+1069748989+1072599386
1035+1073741823+1072314614+1070350330+1069343353+1068021891+1065249613
1027+1062536166+1061651840+1061626594+1060523328+1059388412+1061094882
1018+1065568715+1069336725+1069960929+1068180288+1065375690+1061832801
1010+1057679782+1053869175+1052151833+1053668033+1057114410+1059245877
1001+1058007821+1054179639+1049886841+1046839398+1045720493+1046093437
993+1046438603+1044883083+1040873121+1036299349+1033840439+1034064890
984+1035239275+1035778137+1035366916+1033923473+1031384657+1028303479
975+1025168608+1021819861+1018399847+1015769955+1014269989+1012849482
967+1009962968+1005260439+1000369948+997362570+995860742+992853066+986754382
957+979996940+975646503+973653399+972282266+971152861+970677819+970092936
947+968267836+965486919+962947805+961372699+960921861+961353933+961861145
937+961805665+961541001+961687557+962104661+962160364+961432871+959984810
927+958336799+956999475+955980210+954964520+953777624+952503152+951510771
917+951379332+952252339+953503725+954409498+954585395+953495533+950784097
907+947453818+945396895+945509120+946998958+948615245+949713448+950009167
897+949338047+947948966+946333573+944768818+943421813+942554913+942196417
887+941799196+940748579+939423170+939361807+941628735+944937641+946528013
877+945427129+943319120+941934507+941387677+941163449+941086895+940777474
867+939545449+937494856+935665958+934636788+933734739+932145558+930211733
857+928983730+929180628+930823649+932920191+933648205+931968395+929188745
847+927869665+929051051+931391703+932857860+932484618+930806298+929074732
837+928114224+927929018+928179086+928865100+930468430+933549161+937952992
827+942238566+944566559+944661880+944381204+945518727+947402211+947791314
817+946168176+944637007+945138113+947208813+948888027+948876931+947683780
807+947061364+948271792+950787076+952698262+952560940+950695925+948703268
797+947997818+948448955+948453944+946988532+944976961+943716117+943388898
787+943908397+945454683+947412115+948341719+947725558+946361201+945173188
777+944874863+945850042+947302496+947984712+948032223+948342314+948901357
767+948992061+948253323+946819933+945048601+943409972+942258748+941717801
757+942023498+943494570+945709369+947382551+947814474+947875763+948538542
747+949143756+948578904+947567906+948205961+951659933+956942133+961363465
737+962489668+960463575+957944642+956995602+957301374+957718329+957497676
727+955928379+952647697+948650916+945990491+945649049+946024524+944721083
717+942003466+940594278+941742748+943743224+944788106+944970854+944509664
707+942759853+940306454+938982608+938889224+938393256+937232201+936439548
697+935667075+933713143+930961195+928800014+927540733+926828432+926978488
687+927994625+928264652+926114865+922371355+919217569+916772957+913213759
677+908141563+904263933+904176208+906031021+904560397+896570484+886163586
667+882471684+886125756+890394798+891587130+889783775+886853919+884952041
657+884377062+882975694+878900869+873407771+869400341+868606793+871664885
647+878125194+885170312+887522432+881126838+868274435+856320508+850603703
637+850249228+851256131+852149393+854202966+857235441+858969837+858380336
627+856820645+855161687+853037071+851262089+851723204+854095953+854870213
617+851002488+843279027+835565321+831802821+833313138+837052478+838378781
607+836353507+832853066+828904913+825262756+824416261+828516182
##END=
