##TITLE=<SNM>
##JCAMP-DX=4.24
##DATA TYPE=INFRARED SPECTRUM
##DATE=2/5/2025
##SAMPLING PROCEDURE=Instrument type and / or accessory
##ORIGIN=Admin
##XUNITS=1/CM
##YUNITS=ABSORBANCE
##RESOLUTION=4
##FIRSTX=4497.3318
##LASTX=599.83466
##DELTAX=-1.4281778
##MAXY=1.7624482
##MINY=0.28528827
##XFACTOR=1
##YFACTOR=1.6414078e-09
##NPOINTS=2730
##FIRSTY=0.2994383
##XYDATA=(X++(Y..Y))
4497+182427730+182152350+182562361+183197478+183487565+183456372+183343166
4487+183156208+183042439+183462128+184454711+185236169+185028821+183835590
4477+182104181+180334642+179184714+179221318+180341850+181805287+182910768
4467+183548989+184104888+184811524+185379588+185425252+184873728+183764344
4457+182271530+181035340+180737681+181208953+181636704+181692353+181751489
4447+182011037+182166421+182110554+182260218+182881681+183663357+184230187
4437+184554354+184664928+184479985+184031935+183480884+182959863+182566374
4427+182253809+181797643+181206611+180819259+180672173+180350366+179741467
4417+179335722+179594018+180467839+181549352+182372771+182625619+182363474
4407+182078090+182345971+183171932+183804270+183554799+182614779+181624629
4397+180809890+180053996+179397182+179020851+179054949+179507574+180063510
4387+180125497+179412997+178315995+177473186+177221282+177483136+177958747
4377+178402403+178755584+178970939+178888254+178467439+177960599+177728522
4367+177831070+177873883+177478724+176755675+176107159+175817798+175857179
4357+175790490+175144008+174187012+173807067+174330140+175182917+175839767
4347+176320444+176714677+176916687+176852885+176591612+176258294+175939556
4337+175639428+175326517+175001551+174716893+174562725+174581336+174717837
4327+175023612+175650086+176317829+176321679+175531741+174778480+174805206
4317+175453759+176153894+176541954+176433287+175893420+175476291+175776564
4307+176640381+177324956+177462419+177381368+177487058+177764926+177921326
4297+177729920+177237423+176683557+176159613+175559956+175013771+174991729
4287+175760459+176992654+177975342+178090237+177342568+176536453+176521855
4277+177209970+177764780+177739670+177508936+177540765+177733152+177651629
4267+177209734+176910678+177312500+178289396+179059053+179111053+178817171
4257+178819622+179242543+179931421+180922388+182116981+182999953+183123345
4247+182446541+181155881+179727614+178892539+178931485+179375540+179697220
4237+179712435+179268416+178345336+177450563+177212313+177731209+178760141
4227+180118143+181483426+182205767+181858123+180792387+179778016+179200601
4217+178899802+178695776+178708540+179070655+179588008+179891858+179862281
4207+179808320+180184869+181031309+181730827+181582161+180720669+180118071
4197+180372153+180928561+181032998+180961515+181491506+182568462+183334015
4187+183248044+182539030+181765506+181338210+181272737+181311701+181366915
4177+181579492+181884268+182018591+182047677+182306263+182719579+182761702
4167+182310693+182057064+182692962+183971365+184954307+185090263+184691963
4157+184363601+184308732+184322041+184203406+183978682+183793994+183750382
4147+183807938+183725943+183288551+182733233+182595842+182964620+183347742
4137+183433858+183447221+183580400+183619019+183375213+183115864+183327461
4127+184146322+185061903+185276259+184534400+183495173+183072524+183586664
4117+184644483+185566837+185908162+185808319+185725235+185679770+185261770
4107+184518568+184054958+184145468+184570986+185181100+185774094+185810153
4097+185027006+183906982+183031563+182504769+182267662+182425152+183069529
4087+184101947+185285537+186300489+186766913+186432778+185484751+184519276
4077+184016684+183967734+184133067+184416746+184802464+185132259+185154628
4067+184782655+184273563+184034768+184136336+184222543+184089219+184033315
4057+184392107+185086232+185805541+186295659+186425061+186357682+186577776
4047+187358326+188311455+188708866+188176570+187005889+185911793+185467538
4037+185619436+185860229+185957638+186230586+186933626+187699833+187981278
4027+187840183+187848772+188296095+188922169+189378171+189557195+189529252
4017+189439886+189381984+189303239+189116608+188777371+188301451+187973362
4007+188311001+189375847+190438406+190848417+190857278+191063790+191472640
3997+191645182+191471078+191297738+191446712+191987142+192798868+193520518
3987+193668803+193160020+192500483+192204222+192270911+192456635+192779023
3977+193412087+194230749+194829479+195011771+194976420+194938292+194850632
3967+194716019+194953380+196053504+197818376+199352824+200005861+199866364
3957+199210313+198161136+197167028+197196823+198897693+201527435+203144495
3947+202693813+201577511+201808208+203150450+203459330+201723145+199230703
3937+197865838+198834018+202286543+206742254+209410143+208770814+206510286
3927+205358633+205989410+206914941+207012551+207242867+209039477+211819973
3917+212999278+210869331+206849868+203686831+202487808+202703545+204311090
3907+208571891+216090396+224791002+230860632+232314991+229846243+224542366
3897+217866108+212658225+211564020+214437931+217561350+217530030+216313540
3887+217742661+221464030+224126418+225416805+227240649+227849584+224532816
3878+220137893+219388808+222643208+227126590+231144219+233780353+233442858
3868+231180914+230450130+231619558+231116404+227106727+222604371+221308410
3858+224781053+233557953+246547829+255719072+251336459+238735242+227855067
3848+222468705+222529857+226471483+232212679+238201003+243856427+248255054
3838+249330558+246574973+242506069+239249745+236782576+234733863+233574003
3828+233422832+233857318+235975535+241888056+250062413+254067932+251790772
3818+248169827+245199559+240682533+234942009+231291269+231828903+236321727
3808+242255908+246607691+250008397+255082793+260320562+260956968+257336513
3798+253733851+250989342+247893721+245153441+244526459+246403612+250058509
3788+254908363+260451398+265814447+270911321+277178730+285242713+292959143
3778+298265707+302655201+309029371+318866051+332128657+346897713+359574371
3768+368403435+374672678+379663554+384504456+391180624+400061362+408042659
3758+412416575+415531479+422127939+434774421+451610964+465876248+473351123
3748+479152217+489318331+502602652+510912983+512866302+516424880+526199646
3738+540430288+553135814+558669644+557107707+554076433+555025186+561021027
3728+569317269+575813542+577724665+575618685+572158117+569170818+566873831
3718+565384812+566034853+570480160+578031257+583825742+582887592+576922181
3708+571088006+568230526+568752564+571207367+572575972+571012511+568376251
3698+567766662+570568692+576651830+585336586+595222398+603297638+605849034
3688+602418751+596710038+592356857+591247745+594151742+600722856+610214889
3678+621640377+630352332+629671896+622296410+616256666+612736545+607909151
3668+601131052+595215862+591590505+589659373+588083093+586705554+586834030
3658+588585557+590298012+592298719+597833421+608262586+619855733+625398858
3648+621864575+613782290+606164523+601429110+599968995+600223187+600190469
3638+599458215+598913881+599481492+602120730+607780675+615486973+620465212
3628+618331671+612473710+609122771+611381992+619526518+630284499+637188640
3618+637437821+635829368+636540669+638456767+639866806+641639685+643929010
3608+644578216+642946377+640970362+640010025+639886778+640170166+641194632
3598+643874395+648457692+653421188+656789303+659035197+662333373+666909044
3588+670143890+669867329+667228672+664450500+662165025+660532677+660143110
3578+660644595+660503409+659180522+658312420+660355978+666597986+675534646
3568+682306390+682093450+676002431+669146078+664411573+662080851+661504562
3558+661421986+661112162+661552277+663650450+666137245+667054515+666362532
3548+665111327+663515002+661832542+661338175+662702677+664790319+665771209
3538+664699173+662058410+659338411+657863953+657812316+658534875+659430719
3528+660097283+660489029+661159297+662229299+662399317+660547130+657928591
3518+656902745+658105072+660205787+661573412+661420243+659871488+657592622
3508+655618059+654705946+654609426+654915328+656000727+657886250+659164835
3498+658648462+656816973+655026518+654748723+656694017+659411691+660185016
3488+658320264+655681680+653826007+652636752+651460642+650215828+649037613
3478+647777039+646775886+647374181+650105582+653008017+653624904+652172815
3468+650694653+650015089+649643824+649733445+650869828+652151463+651290043
3458+647263717+641786245+637533470+635894513+636699648+639052375+641783485
3448+643886306+645203600+645975182+645724839+643969317+641436622+639198136
3438+637376815+635442923+633276700+631382825+630293432+630038223+629958552
3428+629096987+627269347+625569094+625196376+625899035+626307631+625965198
3418+625738604+626079657+626063534+624623501+622372159+621318934+622599262
3408+625076616+626320776+624822206+621215369+617519128+615424369+615291173
3398+616243303+616931219+616812548+616814872+617847544+618938318+618511784
3388+617325071+617600179+619318952+619907297+617811158+614360903+611756018
3378+610763653+610470751+609608968+608063808+606956113+607123516+608130842
3368+609175752+610074720+610707730+610469879+609080067+607315867+606406840
3358+606979389+608600952+609964328+609728002+607773267+605422210+604072015
3348+604046233+604852457+605886655+606587680+606507101+605685879+604611084
3338+603641051+602814601+602141392+601730763+601845440+602766486+604155753
3328+604962377+604515072+603245202+601993125+601022003+600005526+598774294
3318+597803353+597856915+599159213+601103345+602714885+603248361+602545920
3308+601155018+599963875+599443363+599394485+599584548+600139703+601091652
3298+602207591+603441075+604723545+605233454+604006543+601535907+599593481
3288+599150098+599576705+599976331+600408348+601470107+603044463+604152231
3278+604163379+603593154+603372080+603691454+603903123+603303012+601965491
3268+600993861+601493747+602995549+603638473+602394131+600192866+598459205
3258+597621025+597335786+597404127+598024210+599181110+600187455+600345998
3248+599873565+599625001+600133349+601174373+601826920+601075928+598883669
3238+596283576+594198041+592894654+592503525+593114385+594326735+595165205
3228+594599810+592467575+589919520+588385254+588114213+588335505+588452288
3218+588232122+587339581+585692890+583997902+583174030+583360680+583866994
3208+583937695+583219313+581770238+580227075+579563925+579886966+579979056
3198+578894129+577303215+576400979+576364121+576475566+576127323+575415586
3188+574945440+574997005+574989270+574107115+572220939+569904924+567861439
3178+566353755+565148849+564191308+563893904+564444810+565344867+565877799
3168+565517536+564083386+562090195+560541222+559824401+559259042+558184500
3158+556767780+555426264+554295401+553427082+552874614+552460027+551813653
3148+550796631+549802160+549365132+549346358+548917246+547659432+546189476
3138+545307649+544950327+544274141+542722263+540865065+539759548+539516795
3128+539246661+538421409+537431187+536779584+536563194+536650128+536778531
3118+536723335+536648566+536887035+537310337+537271518+536133755+533889241
3108+531439085+529921669+529622739+529935613+530277102+530475226+530478531
3098+530341703+530202369+529867490+528943357+527541562+526206110+525248206
3088+524688875+524524885+524574452+524370663+523633071+522635658+521882887
3078+521671363+521964955+522345480+522193691+521297992+520079251+518965128
3068+517932383+516893174+516022203+515389157+514720378+513859430+513125469
3058+512896660+513075393+513202235+512977529+512415765+511522826+510195145
3048+508574200+507184388+506438117+506270459+506450064+506829028+507125052
3038+506947336+506232185+505357874+504741277+504417546+503980118+502986409
3028+501521066+500122938+499106969+498359318+497821993+497603969+497518887
3018+497144426+496458108+495843727+495390684+494759017+493768758+492656814
3008+491823900+491569708+491729413+491519487+490447524+489249191+488897316
2998+488999901+488364385+486840105+485282999+483989924+482534603+481009380
2988+480187359+480290525+480526960+480163792+479430630+478999230+478996289
2978+478868249+478050586+476616145+475272923+474636281+474542339+474330161
2968+473745847+473215240+473141342+473195485+472513743+470606723+467938253
2958+465572925+464371396+464422452+465033203+465321783+464946378+464241940
2948+463684206+463320603+462785529+461888341+460956946+460366349+460048464
2938+459794817+459648838+459656609+459597491+459183703+458306523+457105830
2928+455936547+455134100+454726013+454413793+453811176+452810133+451750988
2918+450986778+450393276+449737606+449258636+449302575+449648712+449692469
2908+449102962+448015674+446838766+446018307+445706341+445638073+445466529
2898+445059931+444425686+443678907+443126839+442968187+442901697+442444842
2888+441541880+440465704+439359969+438302967+437525394+437166439+436973689
2878+436475654+435477661+434285501+433309513+432611429+432044109+431538958
2868+430986090+430228054+429383919+428756682+428415157+428278438+428380987
2858+428621016+428503616+427529335+425786160+423983213+422854383+422547429
2848+422626882+422569325+422114758+421327816+420561246+420168919+420093896
2838+419962806+419594845+419151752+418822465+418587991+418298866+417842337
2828+417165969+416208428+414978829+413747887+412910724+412500059+412109548
2818+411498580+410910597+410530254+410090683+409378401+408653446+408181594
2808+407751029+406969752+405786017+404529074+403572114+403034317+402766217
2798+402558615+402301736+402008798+401768333+401577652+401223055+400497373
2788+399453553+398272613+397058956+395892470+394899015+394193161+393786272
2778+393462577+392844600+391847079+390883111+390356207+390182122+389963045
2768+389416932+388642700+388105955+388158319+388452964+388186861+387063333
2758+385640258+384612923+384099783+383691296+382941212+381802251+380691941
2748+380037288+379760945+379429080+378839173+378161134+377588694+377143241
2738+376746992+376309238+375765921+375038787+374038941+372903030+372074764
2728+371838293+371927151+371868760+371530866+371107419+370722463+370244546
2718+369507789+368625998+367904275+367410707+366868261+366026668+364955939
2708+363985326+363444732+363359324+363393386+363235315+362909114+362531203
2698+361999978+361208715+360381394+359878384+359697109+359449090+358894117
2688+358219673+357701594+357358616+357012008+356489752+355781864+355088247
2678+354610330+354299708+353970675+353574789+353183842+352831532+352519348
2668+352250304+351979118+351632836+351188000+350662912+350089855+349543633
2658+349126286+348874055+348694741+348437608+348066705+347709130+347441321
2648+347097399+346445760+345530669+344675459+344130762+343863606+343706625
2638+343551640+343354969+343089520+342753478+342383120+342068140+341923542
2628+341920310+341807194+341373870+340714641+340058173+339471570+338919066
2618+338448121+338103183+337775167+337338646+336867629+336548582+336425698
2608+336377474+336289524+336090673+335677067+335026880+334366127+333978811
2598+333852877+333735186+333503073+333249535+333031874+332760179+332344394
2588+331844798+331461658+331343422+331387252+331345674+331146968+330915690
2578+330696940+330407270+330030122+329657041+329382150+329242381+329152833
2568+328911968+328420071+327815965+327284595+326882355+326607719+326445726
2558+326314381+326119779+325850300+325533577+325179487+324813887+324476030
2548+324155385+323812443+323477055+323252459+323175693+323148095+323097184
2538+323110402+323237825+323278858+323019873+322590434+322324731+322326111
2528+322365293+322197599+321882800+321734207+321914320+322174613+322144836
2518+321777274+321315299+320965604+320816502+320890181+321037612+320974936
2508+320646811+320370105+320402569+320556936+320469421+320090602+319684985
2498+319474441+319464528+319513986+319444955+319157791+318699338+318221748
2488+317915773+317905315+318066727+318079001+317825898+317566986+317561466
2478+317750875+317918969+317924016+317721135+317364540+317005076+316774488
2468+316706800+316765737+316841558+316789957+316594956+316379329+316175793
2458+315888484+315569764+315474587+315699728+315979848+315991868+315717522
2448+315399128+315270943+315411148+315715924+315929445+315811682+315345058
2438+314735216+314234639+314009135+314079691+314303416+314479353+314511817
2428+314408797+314188703+313930226+313816385+313951397+314226904+314484473
2418+314676897+314797638+314819317+314779045+314783149+314849166+314844336
2408+314671268+314448342+314386065+314511055+314657651+314731403+314809839
2398+314956036+315084076+315067626+314905379+314748397+314767207+314940784
2388+314988536+314613530+313812100+312798782+311608764+309961165+307600159
2378+304634793+301460989+298455170+295801879+293512700+291494725+289593243
2368+287686822+285872818+284448472+283607660+283431432+284251855+286544466
2358+290300605+294943020+300040946+305782360+312334555+318818663+323549573
2348+325297759+324220930+321965304+320399518+319809720+319167922+317789403
2338+315824428+313659476+311459917+309267621+307247195+305612451+304400210
2328+303495977+302798057+302272079+301966178+301966650+302274421+302810730
2318+303494688+304156186+304532662+304570936+304579560+304899406+305561213
2308+306354873+307053719+307509812+307708190+307798102+307959259+308199180
2298+308366184+308362444+308248711+308130621+308047282+308023642+308135305
2288+308404531+308673756+308734036+308586496+308421453+308342689+308286259
2278+308191845+308057559+307843202+307502585+307096605+306744985+306497474
2268+306325677+306200578+306141279+306192844+306336970+306446527+306409996
2258+306287839+306248838+306349135+306470022+306490575+306426954+306353275
2248+306280503+306205807+306203011+306330180+306481751+306459781+306207514
2238+305907640+305841841+306162849+306750214+307266586+307422878+307238625
2228+307001428+306945252+307053102+307214368+307406501+307584181+307580622
2218+307337215+307074199+307029062+307173661+307339176+307451493+307510429
2208+307492127+307383950+307218762+307043624+306938025+307018314+307301265
2198+307600159+307687637+307550555+307391867+307420663+307694246+308080690
2188+308342617+308363969+308280739+308261965+308237999+308028109+307668137
2178+307416814+307465691+307774316+308147797+308391640+308448070+308440118
2168+308541685+308790212+309068734+309244126+309274448+309215621+309171827
2158+309210355+309306984+309391304+309428488+309443413+309504346+309681119
2148+309943880+310113245+310026928+309762460+309567168+309558053+309635764
2138+309704904+309814206+310028236+310305850+310565488+310780317+310963807
2128+311105610+311166180+311156412+311190655+311387944+311730886+312079165
2118+312305359+312394508+312437539+312527341+312669834+312846860+313099455
2108+313430231+313711077+313828949+313841913+313889701+314047300+314321173
2098+314679874+315049034+315355553+315585778+315750748+315828204+315798827
2088+315711276+315659312+315722860+315937325+316233059+316412955+316340655
2078+316152081+316114206+316289926+316512525+316649353+316742714+316928601
2068+317280983+317678612+317879024+317839552+317829893+318058012+318359592
2058+318442858+318282427+318081833+317983933+317999039+318116222+318321718
2048+318546859+318735106+318961264+319344949+319794578+320003015+319823156
2038+319498735+319368117+319484682+319658912+319723767+319638214+319478109
2028+319432645+319666393+320090058+320409323+320529846+320771510+321450202
2018+322300910+322634990+322193096+321504091+321190600+321269726+321347037
2008+321219323+321027408+320954419+321012193+321127270+321278223+321449076
1998+321603117+321930697+322876473+324464990+325813841+325957060+325017676
1988+323905768+323209573+322938786+322911515+322956543+322973284+322989043
1978+323060108+323167123+323276534+323410021+323693881+324384157+325580711
1968+326792298+327184117+326543808+325597451+325116085+325151889+325333128
1958+325492434+325701125+325944641+326095885+326141059+326233040+326521766
1948+327118572+328283969+330228392+332333427+333136383+331974109+330004884
1938+328731528+328478208+328701570+328902854+328945340+328962371+329140705
1928+329619166+330675152+332483291+334428985+335612321+336262798+337172187
1918+337796737+336838724+334686227+333200730+333414650+334755839+335968915
1908+336282842+335873158+335388668+335205250+335287173+335591441+336320245
1898+337677956+339370693+340667725+341453904+342628561+344549235+345921035
1888+345513130+344083882+343120059+343008832+343346399+343831542+344327107
1878+344737809+345071236+345512658+346759324+349993843+355489253+360892537
1868+362361076+359135999+354520129+351492122+350387332+350156417+350036002
1858+349884903+349773567+349756718+349887736+350342667+351413323+353349176
1848+356453003+360860981+365164740+366161753+362809870+358298219+355688104
1838+355163452+355321487+355531267+356956703+360972462+366516714+370111967
1828+370191784+368771722+367223222+364807201+361587607+359137451+358282386
1818+358403962+358787683+359663338+361680423+364590738+366847998+367064715
1808+365642911+364278409+364544839+367162325+371423525+375052477+375951844
1798+374693957+374162842+376753093+382008183+385788234+383956782+378366267
1788+374126601+373431132+375078586+377297572+379473926+381155115+381631689
1778+381570102+383255212+388456123+396283526+402395569+402592060+397969871
1768+392185553+387606614+385937118+387901513+391483475+393358613+393313693
1758+393404585+393863474+394337687+396655517+402698348+410632766+415399408
1748+414656659+411159887+408380480+407777792+409119598+410964413+411649497
1738+412034307+415510926+423098226+429105760+427052435+420060379+413510508
1728+408901211+406649543+406930933+408908292+412320418+418923306+430120022
1718+442633416+448159656+443492802+434782591+427853865+424731409+425852685
1708+430875626+437743817+443440039+448090116+455132357+465163240+472499653
1698+473042897+468994311+461847961+453704706+449043626+449754456+454208297
1688+461059276+471593096+485199551+492972738+488207440+478807606+473167234
1678+473436786+478265233+484052855+488036078+491692955+496610333+499400633
1668+496377239+491474241+490652765+494277687+497762222+497722677+496620537
1658+499081949+508020679+524062909+541431876+545840217+539188161+536818875
1648+541276347+544193271+538380012+529041439+523871285+524904938+531699051
1638+543157548+554987602+558338177+551041346+542557692+539669854+542194851
1628+546773283+550998968+554976708+558227749+558907277+558319694+560776931
1618+567637133+574063104+574341408+570983315+569523055+571355234+574759589
1608+577767260+579823854+581521710+583417292+585365999+586913919+588186549
1598+589978492+592793595+596135019+599057935+601213955+602895833+604343238
1588+605609767+606897140+608480211+610384761+612656075+616123760+622307813
1578+631457994+639583128+640774271+637468760+637467162+642827560+648675498
1568+649980084+648639185+648941456+652819697+662133650+679589950+701619089
1558+710537375+701591419+690981886+685767902+684861091+686120938+688149752
1548+691409001+698241823+710252099+726378031+743855465+757353925+758030583
1538+748044765+740604133+740820777+744833886+746868074+746954863+749505569
1528+756025227+764337955+772936685+783033622+794089733+801385548+802891091
1518+801954212+800033829+796487344+793319024+794308702+801705975+815430158
1508+831381496+837675505+827189146+812840596+805505708+805731794+810614965
1498+815972240+817592314+815431537+814396105+818489538+826697466+832894228
1488+831599012+825086035+819363523+817222210+817721153+819096984+821349996
1478+825825879+832990458+841607272+848732052+849999017+844346807+837372726
1468+834709739+836830498+839588480+839123454+837894836+841494701+851875244
1458+864164258+867469697+858919772+847911376+840563488+837564532+837684002
1448+838457980+837707678+835714378+833964739+832978765+833279365+836309042
1438+841931112+845997383+844854464+841525204+840142255+840321279+839755448
1428+838581517+838945375+841341024+844300108+847320561+851327787+855046106
1418+854419123+849158731+843717573+840565739+838706144+836775666+835277096
1408+835489382+837016567+837802020+837342441+838163989+842247763+848084662
1398+852628378+854705634+854365525+851300915+846799322+843889116+843893764
1388+844971756+844492132+842600509+841745407+843367878+847132604+852193129
1378+857990446+863995475+869028329+871577002+871678461+871273860+871687757
1368+872617155+874095607+877255358+881893996+884932678+883497438+878790386
1358+874329028+871957055+871050607+870395082+869781826+869576149+869666859
1348+869510131+868817713+868059349+868443615+870834471+874163876+875685033
1338+873948902+870600106+868010327+866840826+866609003+866967486+867690916
1328+868420447+869000803+869439974+869629093+869795407+870805275+873192209
1318+876187025+878506127+879770114+880492237+881080655+881466227+881606687
1308+881837348+882460771+883385231+884449278+885722271+887152354+888150893
1298+887950444+886539534+884943863+884106264+883620395+882276083+879825092
1288+877194860+875003145+873034756+871086629+869206844+867156533+864561161
1278+861712614+859615604+858884330+858868643+858366142+857220826+856542424
1268+857074775+858202660+859030890+859597447+860312743+860915105+860896295
1258+860663964+861360086+863395873+865823042+867548133+868640650+869796061
1248+871078568+872059748+872865900+874255167+876629537+879487162+882085584
1238+884405121+887052711+890303535+893611878+896084729+897224526+897280666
1228+897073245+897328526+898173460+899554303+901791191+904833941+907470782
1218+908715087+909547893+911765317+915485306+919142764+921713588+923661206
1208+925722412+927977311+930261407+932595905+934953063+937326924+939897893
1198+942380041+943942667+944610828+945628976+947823886+950777668+953718451
1188+956095508+957669101+958934540+960750196+963303881+966369725+970012512
1178+973716233+975641265+974438719+971434825+969572688+970296191+972469458
1168+974511854+976499852+979449349+983684476+988272857+991050376+990104564
1158+986621845+984453298+985708933+988922354+991843382+993897978+995696712
1148+997540548+998445325+996814067+992899948+989652974+989447660+991445898
1138+993874447+996774486+1000411681+1003254708+1004002831+1004071100+1005883633
1128+1009565421+1012851032+1013936940+1013036011+1012002031+1013412651
1120+1018437225+1025388574+1031232009+1034264591+1034807109+1033874443
1111+1032072804+1029439521+1025799566+1021868089+1019895197+1021469662
1103+1025024789+1027438160+1028283602+1030155979+1034213971+1038236739
1094+1039973159+1039816359+1038785430+1036609983+1033461563+1031582722
1085+1033457060+1039223657+1046943754+1054285324+1058953158+1059137411
1077+1055322209+1050947276+1049453935+1050586469+1051013439+1049323571
1068+1048361491+1050829767+1055097067+1057723596+1058236773+1058361617
1060+1058765129+1059133489+1059933322+1062384022+1066810083+1071517063
1051+1073741823+1072563825+1069920593+1067906740+1066816329+1066105246
1043+1065835512+1066530690+1067943634+1068545560+1066849519+1063408924
1034+1060691612+1060408225+1061589491+1061953929+1060650215+1058554004
1025+1056500352+1055044268+1055442478+1058562864+1062641046+1064208175
1017+1062351267+1059818863+1058839643+1058689089+1058044240+1057369833
1008+1057662226+1058318332+1057736378+1055561585+1053505173+1053727336
1000+1056497955+1059528430+1060383241+1059475776+1058858671+1058509412
991+1056507469+1052498573+1048402162+1046172463+1046518164+1048661510
983+1050035817+1047923845+1042590537+1036986696+1033118622+1030747883
974+1029146256+1028149534+1027532428+1026365325+1023846646+1020578538
965+1017904948+1015976793+1013615278+1010057972+1005676794+1001195609+997248009
955+994385591+992584533+990803664+987723803+983221121+978616254+975239351
945+973369733+972512381+971816694+970340202+967923346+965451947+963485228
935+961389888+958896993+957393774+958300586+960914695+962844883+962615747
925+961121607+960085303+959991688+960021029+959250319+957340539+954816705
915+953107301+953248341+954493155+955182087+954815107+954266997+954073230
905+953584455+952045360+949755527+947789461+946829270+946632743+946672179
895+946583139+945995157+944642348+942993079+942379024+943845348+947065814
885+950540253+952485475+951774899+948945090+946146365+945059150+945182542
875+945087111+944381330+943419395+942327096+941089472+939773702+938552056
865+937852157+937888688+937911929+936910703+935089455+933681668+933397118
855+933797506+934041894+933672734+932813058+932031381+931989331+932877259
845+933949658+934023301+932869633+931545730+930963194+930863624+930548281
835+929925220+929575234+930313988+932474837+934958800+935805985+934652245
825+933583114+934529869+936784333+938387848+938881344+939117016+939180346
815+937995449+935263758+932761929+932679425+935253590+938544503+940244684
805+939701802+938069673+936714685+936227653+936884558+938812204+941112277
795+942063100+941423843+941351943+943466021+946163215+946700939+945329610
785+944501308+944516777+943583821+941823143+941556096+943472049+945631590
776+946135471+944964591+943209868+941657627+940286371+938523514+936431878
766+935525938+937110571+940173946+942506846+943770470+945196269+946318925
756+945795726+944735455+945011725+945816787+945395918+944274206+944050662
746+944773729+945221034+944593326+943446194+943467256+945399767+947599399
736+948466629+949008711+950049518+949367848+945237884+940261242+938541743
726+941122517+945277029+946735945+943436970+938569705+937460193+940975231
716+944765232+945170704+943601687+943466166+944987759+944970982+941214970
706+935774248+932918729+934711798+938902696+940717045+937306516+930523442
696+924268362+920187928+917258694+914375287+911703875+909780587+908544997
686+907197780+905584025+905314073+907518279+910028824+908907402+903419327
676+897847368+896917099+899095305+895943689+881941203+866516986+866068446
666+877533734+886113218+887191500+884761062+882390324+880706194+880965252
656+884281874+886916174+883108089+873555849+864944918+862010382+864343137
646+868748790+872363036+873818248+872955448+869860989+864794436+859113103
636+854747103+853068856+853604111+854382955+853553636+850772269+846703383
626+841645546+836278902+832049440+829042931+825542491+821046200+818149647
616+819674944+824030558+827227057+828859840+831310540+833813604+833210370
606+830712463+831186713+835680389+837860556+830715586
##END=
