##TITLE=<SNM>
##JCAMP-DX=4.24
##DATA TYPE=INFRARED SPECTRUM
##DATE=2/5/2025
##SAMPLING PROCEDURE=Instrument type and / or accessory
##ORIGIN=Admin
##XUNITS=1/CM
##YUNITS=ABSORBANCE
##RESOLUTION=4
##FIRSTX=4497.3318
##LASTX=599.83466
##DELTAX=-1.4281778
##MAXY=1.8092307
##MINY=0.30329353
##XFACTOR=1
##YFACTOR=1.6849774e-09
##NPOINTS=2730
##FIRSTY=0.31925723
##XYDATA=(X++(Y..Y))
4497+189472709+188332353+187905953+188383575+189192351+189598500+189593229
4487+189655541+189883987+189988500+189853335+189670522+189732692+190171190
4477+190697911+190799859+190366508+189768066+189193536+188480765+187740702
4467+187477784+187866422+188502962+189084195+189683928+190203822+190319071
4457+190153485+190258758+190686202+190745913+189983070+188827485+188001746
4447+187797902+188166961+188837655+189056002+188068939+186319546+185341044
4437+186002770+187559905+188687509+188861356+188532730+188328851+188414385
4427+188634802+188947173+189352172+189540610+189049068+187742064+185969271
4417+184448253+183983366+184930527+186806011+188546844+189121232+188092994
4407+186038551+184260080+183724976+184370289+185481196+186379700+186684289
4397+186411979+186004946+185961383+186357467+186828332+186948127+186633085
4387+186295421+186410351+186697572+186105373+184148723+181914244+180886713
4377+181123225+181510607+181535740+181703891+182334524+183055626+183436853
4367+183359419+182897857+182295825+181890773+181835801+182043731+182407448
4357+182824067+183049825+182877163+182519619+182468822+182805354+183024656
4347+182801021+182468751+182448358+182658339+182702840+182340378+181767777
4337+181475197+181637848+181868859+181809890+181563314+181334691+181148570
4327+181025150+181000883+180995559+180917188+180780396+180656675+180657878
4317+180898563+181375849+181912705+182189844+181949123+181341324+180927199
4307+181147420+181924272+182837261+183492285+183682085+183354467+182607294
4297+181754459+181233415+181287361+181814948+182533981+183068255+183023789
4287+182353290+181509846+180975343+180827850+180911033+181132050+181441026
4277+181760012+181997125+182034074+181784491+181390706+181220150+181487012
4267+181940827+182129814+181950396+181689016+181590093+181679218+181873351
4257+182014759+182032889+182154080+182585203+183051346+183134210+182954102
4247+182992236+183330253+183498793+183008136+181841320+180558635+179998574
4237+180631276+182043996+183219231+183395289+182595090+181473588+180826612
4227+181024778+181649061+181867196+181369818+180716086+180582124+180915260
4217+181160084+181196767+181503850+182278757+183031182+183328467+183310709
4207+183235769+183151295+183121723+183203543+183204074+182930968+182584000
4197+182537218+182798792+182982844+182873166+182736357+182846264+183033818
4187+183106954+183293376+183795618+184367618+184722544+184895047+184953060
4177+184850900+184715717+184851819+185384943+186152916+186898992+187346917
4167+187231651+186567466+185763906+185194400+184821486+184491905+184305961
4157+184367317+184451066+184311196+184110872+184176651+184471919+184629546
4147+184497423+184366999+184564970+185095600+185744185+186167066+185926256
4137+184979661+184027761+183778461+184082467+184353610+184503826+184869648
4127+185521364+186139721+186347173+185943642+185073279+184199679+183716946
4117+183700780+184087242+184738286+185308694+185397784+184826598+183680882
4107+182380864+181703520+182212059+183559920+184758237+185150625+184863847
4097+184409872+184091080+183756636+183106919+182238819+181657339+181644268
4087+181931701+182193381+182518735+183109961+183846716+184433803+184703266
4077+184590192+184074985+183280729+182460120+181848872+181558309+181550191
4067+181722675+182031774+182446147+182854719+183196804+183614060+184238184
4057+184846283+185013709+184721006+184501403+184701161+184882383+184477419
4047+183749278+183390478+183436924+183325336+182843363+182326936+182105406
4037+182283231+182838995+183586928+184224317+184608852+184785475+184728629
4027+184424942+184181797+184450729+185282181+186203236+186686677+186635278
4017+186399580+186309871+186287815+186109636+185868596+185811998+185875229
4007+185757557+185357493+184908294+184794796+185237946+185979247+186401508
3997+186122848+185296402+184365354+183845159+184107494+184911495+185499202
3987+185606615+185808213+186495019+187287736+187762033+188006009+188230139
3977+188429932+188557014+188619043+188560322+188242184+187618149+186937568
3967+186701445+187285614+188580131+189982398+190761372+190617629+189914550
3957+189243962+188907713+188953541+189494234+190641825+192027024+192811534
3947+192784384+193020241+194456202+196227333+196502650+194919091+192967587
3937+192206441+193231690+195735013+198542111+199906015+199014692+197241881
3927+196672322+197621269+198523380+198418974+198385404+199690161+201783869
3917+202615427+200722362+196993944+193803372+192602933+193171731+195116620
3907+199016868+205213641+212127801+217057596+218688504+217122225+212539291
3897+206363601+201872729+201695257+205203913+208278386+207764913+206337177
3887+207946082+211621314+213425944+213133259+213185188+212531774+209231543
3878+206082058+206815718+211125192+216526170+221599761+224746327+223827148
3868+220628281+219309886+220179754+219545036+215525276+210952071+209568712
3858+213302100+222573293+234978566+241355499+234428480+221866942+212269050
3848+207950026+208559788+212802970+218950998+225641612+231956057+236170798
3838+236071769+232180594+227549729+223601142+219891614+216836083+215812125
3828+216726211+218245885+220929916+226824152+234339125+237519332+235267431
3818+232448819+230050044+225406869+219343845+215660282+216531317+221412278
3808+227012908+230059224+232358898+237372688+243005279+243793026+240320576
3798+237151317+234864732+232043396+229502506+229014289+230822315+234169506
3788+238581122+243628430+248525309+253392739+259915450+268992793+278651228
3778+286506730+293492241+302288925+314268205+328895593+343619341+354966449
3768+361785665+365120917+365736251+365240942+366378362+369733742+372647865
3758+373357682+374429236+379857435+391288910+406156454+417728329+423038237
3748+428105619+438022303+449800445+455448282+455574037+458885128+470344655
3738+489325647+510509422+526070405+532281858+532739600+533520696+538603679
3728+548934488+562120733+573600706+580977349+584981844+585982048+583728750
3718+579804130+577481605+579064032+583561997+586171265+582467591+573848396
3708+564831242+558854638+557560297+559882115+562225724+562171353+560950238
3698+560840861+563262186+569139495+578527901+589397600+596775303+595164506
3688+585725374+575984783+570854576+570688565+574063259+579530511+587015610
3678+597087940+605948457+605680534+597658454+590935349+587908277+584008949
3668+576737792+568723035+562792488+559941190+559620771+560612521+562291979
3658+564514042+566705223+569051661+573579164+581672133+590796329+593782367
3648+586780655+575543738+566461389+561005740+558063212+556509721+556043136
3638+556786806+558607195+560993925+563972464+568664314+575045493+578772018
3628+575265096+568260235+564407920+566509392+574090461+583747145+589955379
3618+590395186+588832179+588898187+590176928+590847409+590713412+590416835
3608+589981202+589713385+590636933+593289322+597202623+601442215+605293823
3598+608439930+610587919+611277573+610791037+611291652+615247897+621528436
3588+624167631+619279136+611467533+606911059+606371037+606915092+606255364
3578+604776512+604227788+605318798+607305551+610228164+615943495+624750668
3568+631634407+630069101+621068148+611252033+604423336+600601018+599015619
3558+599456452+601667265+604485524+606063565+605637872+604920909+606175913
3548+608934531+610130177+607937546+604003162+600845099+599079717+597751135
3538+595903331+593581300+591856174+591895227+593941622+596982171+599205791
3528+599082971+596114514+590912285+585210786+581193273+579668541+579340410
3518+578819066+578606290+579889063+582281205+584155327+584548476+583657754
3508+581881972+579359830+576659686+575026532+575217270+576430992+577278840
3498+577273003+576380407+574234576+571289607+569572227+570538897+572705280
3488+572813455+569596034+564984907+561338894+559172828+557785100+556832793
3478+556604311+557102096+557421029+556462248+554329505+552217704+550706450
3468+549366547+548280243+548244833+548948743+548807813+547421818+546322849
3458+546362822+546165823+544294566+541725766+540638365+541578787+543016923
3448+543236915+541922093+539958438+538243358+536788879+535003298+533099107
3438+532474789+533700291+535073657+534776019+533509660+533135083+533845643
3428+534245407+533489249+532231485+531508756+531256609+530347458+528323915
3418+526391921+525828481+526020315+525056122+522104609+518395877+515906774
3408+515622225+516846524+517799999+516953849+514300682+511337425+509648910
3398+509638935+510412567+510837128+510653572+510345180+510257204+510284442
3388+510167248+509602287+508340739+506631000+505193005+504428570+504156613
3378+504276284+505018151+506220518+507011697+506779394+505972581+505460469
3368+505508295+505840812+506348042+507086513+507665269+507325253+505963525
3358+504635155+504502714+505553433+506757852+507178839+506545642+505152608
3348+503659359+502735386+502641256+503066311+503260445+502627530+501609851
3338+501378929+502166888+502824847+502468630+501406096+500173024+498961884
3328+497999106+497464178+497204461+497007887+496769677+496320390+495569291
3318+494751440+494259421+494369222+495101750+496011680+496349963+495889851
3308+495279541+495181767+495432746+495477990+495223720+494867998+494294300
3298+493320662+492266265+491703533+491813829+492276806+492678763+492923658
3288+493248499+493863867+494710194+495513364+495893707+495643329+495093579
3278+494858376+495094357+495383789+495282371+494609944+493444861+492226716
3268+491599780+491752101+492037535+491626558+490524406+489553598+489279130
3258+489401206+489262964+488589192+487697481+487136694+487080838+487139949
3248+486857486+486138754+485103176+483994479+483237048+483031100+482970150
3238+482447391+481393524+480398025+480022493+480110751+480061581+479602955
3228+478857693+477984269+477230517+476828631+476454691+475459616+473781608
3218+471996239+470657964+470030851+470006266+469952285+469108435+467451757
3208+465855569+465035526+464622533+463853994+462913678+462558203+462589085
3198+462022957+460686769+459302225+458214753+457223675+456364296+455976064
3188+456089049+456124247+455337632+453649683+451856391+450813985+450572380
3178+450396393+449545433+448049248+446653242+445882156+445355188+444312853
3168+442633430+440950257+439828436+439085402+438036205+436379740+434633530
3158+433558580+433400564+433871217+434535154+434953772+434778564+433937154
3148+432590885+430883410+428863405+426658534+424615181+423191690+422645018
3138+422832359+423306302+423548403+423238066+422475682+421679693+421099309
3128+420514044+419611437+418513635+417642087+417210629+417113350+417192340
3118+417348234+417345333+416699826+415056449+412843548+411259706+411110993
3108+411777053+411891524+410999883+409864019+409201956+408930636+408630416
3098+408112927+407464696+406857676+406349597+405842685+405337012+405028443
3088+404952035+404812095+404420008+404024171+403907224+403833044+403232992
3078+401972010+400644383+399902622+399670815+399358639+398694772+397900339
3068+397131659+396289294+395411308+394744576+394343327+393978407+393471389
3058+392827049+392081716+391259161+390436853+389723675+389201871+388889269
3048+388674937+388351512+387806926+387071533+386165495+385134480+384244183
3038+383795675+383652869+383317275+382554290+381585922+380673128+379919729
3028+379418866+379118610+378611805+377512872+376028891+374825002+374326757
3018+374346461+374417810+374347663+374281266+374283636+374095127+373409010
3008+372284926+371126493+370240052+369566953+368923497+368326417+367904014
2998+367589644+367118991+366377655+365588422+364978678+364369959+363418147
2988+362210721+361243592+360822993+360788751+360719807+360254035+359408204
2978+358615328+358229962+358107532+357827652+357157630+356249222+355509442
2968+355197301+355128922+354958596+354604111+354137880+353545858+352880435
2958+352333834+351920168+351342615+350344533+349079341+348035344+347530802
2948+347310492+346830465+345947455+345056982+344534293+344340797+344219286
2938+344020413+343746299+343410244+342944579+342229915+341235795+340203011
2928+339580709+339524500+339551561+339052326+338046356+337011980+336166502
2918+335467863+335046309+334969724+334864840+334404905+333840192+333508984
2908+333241520+332727498+332072864+331561849+331189784+330778701+330318235
2898+329957561+329766682+329597876+329170875+328366891+327436162+326738265
2888+326322548+325951933+325466175+324952118+324601737+324514823+324598023
2878+324603364+324342268+323883394+323487628+323344964+323393321+323384831
2868+323110646+322558668+321869296+321199734+320674959+320374172+320230023
2858+320011198+319563255+319009190+318554809+318201881+317822847+317364964
2848+316827914+316233451+315707862+315361797+315084888+314710877+314293780
2838+313935617+313502001+312837214+312120958+311672060+311487478+311278841
2828+310910809+310517625+310193209+309855138+309475821+309183878+309018079
2818+308785848+308313073+307695298+307145195+306689611+306205976+305694925
2808+305271568+304906188+304451878+303962300+303677644+303608593+303413045
2798+302812109+301935750+301160596+300732286+300570343+300371045+299935306
2788+299384142+298934536+298583978+298225214+297860011+297435804+296746645
2778+295780665+294869887+294264812+293840694+293358526+292741530+292037461
2768+291348443+290800710+290426787+290132103+289835119+289501895+289055738
2758+288442704+287758480+287138282+286576311+286010484+285509002+285197320
2748+285027737+284767330+284260436+283624462+283095105+282705176+282230968
2738+281494991+280638459+280009913+279782228+279742379+279515666+278943896
2728+278158766+277359947+276663837+276146048+275883059+275864187+275902072
2718+275741014+275290736+274665445+274023652+273515485+273274463+273224550
2708+273037757+272527202+271901274+271430921+271111280+270820859+270556154
2698+270319465+269981023+269450888+268862156+268396102+268025169+267631101
2688+267265049+267035860+266851684+266563668+266255276+266085586+265956400
2678+265637042+265132359+264657673+264318471+264039174+263741518+263432826
2668+263168545+262988933+262860490+262727500+262624615+262587631+262457525
2658+261998704+261250347+260551725+260165545+260018000+259874115+259667813
2648+259512839+259409157+259166349+258693751+258164978+257807787+257661232
2638+257564891+257326681+256939316+256624628+256582480+256742300+256849448
2628+256746014+256492169+256220284+255949353+255623257+255275635+255018447
2618+254902031+254902579+254970320+255010081+254913633+254647142+254245027
2608+253792220+253451797+253364051+253465274+253535775+253445606+253264632
2598+253134101+253089937+253029977+252856379+252619903+252468961+252467829
2588+252521403+252472835+252257990+251983398+251832952+251860685+251931681
2578+251921352+251876426+251891407+251934741+251913162+251814115+251681090
2568+251522296+251332213+251179326+251204141+251475001+251871704+252200790
2558+252398531+252527258+252638616+252724539+252713450+252494218+252055437
2548+251553107+251127998+250767624+250436274+250177388+250006885+249855749
2538+249661739+249414686+249122690+248810513+248513370+248231102+247947349
2528+247708609+247603370+247642353+247723165+247721237+247586585+247378232
2518+247218429+247168357+247149715+247042336+246843074+246668591+246605625
2508+246604104+246535814+246335791+246068751+245875980+245862149+245983959
2498+246072660+246049154+246043247+246180251+246363683+246409511+246287257
2488+246116577+246003999+245933074+245771502+245402161+244878906+244415841
2478+244208991+244276308+244455301+244551218+244482415+244269162+243940572
2468+243529736+243118476+242793972+242558981+242349425+242140576+241963298
2458+241806148+241612829+241395136+241216320+241056606+240832917+240528222
2448+240205627+239955868+239852982+239852823+239783384+239557131+239291276
2438+239128449+239084355+239120985+239202452+239249163+239179052+239003437
2428+238800177+238613348+238444985+238313146+238249684+238256105+238311801
2418+238415907+238593769+238869988+239221978+239533978+239653914+239562278
2408+239429041+239435461+239571740+239658336+239560615+239346318+239202912
2398+239246581+239490309+239974546+240859642+242435808+245121944+249435964
2388+255937750+265186711+277676458+293704804+313270123+336091969+361705366
2378+389485854+418522408+447534058+475288335+501314477+525630244+547490585
2368+565433841+578920271+588393115+593559651+593634574+589213300+581545918
2358+569950872+552532428+529165678+501970986+475100427+454298728+444126856
2348+446175196+459074168+477939804+495303065+506168094+510803876+512069917
2338+512460554+512654369+512253827+511517833+510999177+510086029+507574605
2328+503410856+498499933+492982627+485893823+476764180+466563548+456425599
2318+446432154+436312635+426372852+416996721+407864000+398281991+387949697
2308+377028140+365845557+354874087+344683891+335583749+327385718+319668635
2298+312228602+305189995+298717127+292746748+287090633+281716026+276763221
2288+272320316+268340193+264773276+261651436+259029151+256911848+255232443
2278+253871546+252722258+251729199+250831173+249915301+248901160+247838609
2268+246871709+246134017+245677195+245431415+245215598+244849546+244289608
2258+243648080+243071393+242591189+242117441+241588049+241061116+240639137
2248+240371514+240224093+240077484+239808305+239428758+239062759+238767456
2238+238483578+238167139+237880679+237734690+237760230+237865663+237943273
2228+237959970+237898136+237724555+237495985+237375819+237482242+237790033
2218+238169668+238460656+238572279+238579619+238667595+238938260+239309229
2208+239626782+239852169+240100619+240497287+241035876+241603225+242103327
2198+242500702+242787958+243011876+243287830+243662000+244021101+244266421
2188+244463260+244701346+244965555+245227342+245498838+245761385+245957217
2178+246035358+245978671+245837086+245677867+245471512+245152808+244796007
2168+244572513+244547185+244634259+244712241+244697720+244539668+244244595
2158+243933957+243772067+243771218+243783174+243726010+243697569+243849890
2148+244234319+244795247+245581101+246935064+249227309+252396373+256069006
2138+260068974+264473798+269312293+274530263+280137968+286210082+292809077
2128+299928267+307493701+315437497+323682398+332059670+340371817+348452122
2118+356052400+362829769+368478526+372757029+375493184+376639484+376244956
2108+374469350+371637084+368094999+364064999+359666860+354886928+349572740
2098+343608870+336969425+329646127+321757514+313613500+305552757+297871861
2088+290867089+284764571+279634735+275364827+271662728+268242419+265065219
2078+262267566+259922277+257983968+256348462+254908893+253619046+252500444
2068+251626331+251080862+250776839+250410769+249821312+249182985+248687853
2058+248325074+248011500+247683723+247351683+247149555+247140747+247185106
2048+247205128+247337781+247696440+248215644+248720822+249050509+249244165
2038+249551849+250119852+250845447+251576790+252249783+252903833+253662591
2028+254543549+255371021+256035118+256602501+257138685+257733006+258525564
2018+259364692+259754604+259457142+258798688+258201042+257759555+257358995
2008+256942270+256555189+256212413+255840542+255398029+254939739+254484350
1998+254006534+253706773+254006534+254953730+255847564+255878623+255020835
1988+253878073+252943788+252376086+252146048+252128220+252222403+252426282
1978+252698133+252904682+252976686+252958929+252994497+253394349+254405501
1968+255676300+256349134+256039557+255316934+254910397+254943242+255181699
1958+255543116+256027831+256486580+256764250+256922991+257197512+257803365
1948+258838254+260360917+262333132+264152796+264650174+263381568+261452616
1938+260223170+259967680+260198815+260522559+260829713+261107559+261366515
1928+261770276+262752528+264528947+266443343+267675018+268551907+269753903
1918+270561354+269727903+267822599+266721507+267318818+268914422+270191959
1908+270416921+269919561+269514314+269592173+269963336+270386995+270958199
1898+271925257+273153961+274059203+274521242+275319566+276775301+277730403
1888+277077555+275468916+274170455+273487114+273132772+272993928+273043346
1878+273172815+273325242+273640196+274715234+277521183+282214431+286731604
1868+287789379+284724209+280333127+277263447+276033311+275890063+276036530
1858+276096471+276116033+276326704+276818139+277598351+278843911+280855550
1848+283997146+288364757+292515472+293355696+290006224+285681964+283386111
1838+283246489+283788474+284294961+285800131+289494661+294316051+297243616
1828+297237001+296284641+295436598+293733581+291086038+289005029+288430164
1818+288867512+289528496+290471536+292296241+294845726+296764898+296925744
1808+295878528+295180631+296037022+298793039+302654340+305744308+306586991
1798+305923266+306182947+309216917+314407827+317999258+316433174+311565761
1788+308041576+307758477+309498213+311610297+313696346+315551650+316515489
1778+317022153+319134485+324569724+332425686+338436108+338724018+334631123
1768+329707465+326060037+325109852+327419677+331139269+333327904+333829403
1758+334411095+335248083+336181253+338975953+345172301+352900881+357727543
1748+357860726+355756247+354308914+354762269+356972977+359661342+361290357
1738+362653570+366825032+374475046+379997517+377691087+371079092+365165312
1728+361085752+359122346+359419029+361180095+364268294+370495100+381139111
1718+392856162+397760081+393167596+385019762+378677353+375978518+377316934
1708+382236948+388607550+393657988+397833447+404417637+413659205+420209649
1698+420785293+417563981+411377820+403800642+399188489+399538092+403443256
1688+409807809+419934120+433069462+440431849+435606673+426358950+420832163
1678+421101042+425762683+431245288+435051051+438842771+444043019+447091492
1668+444423857+440070926+439817293+443914045+447887552+448420995+447824233
1658+450637999+459923784+476692122+495780934+502640265+497574970+495728757
1648+500546823+504848284+501973109+496011857+493569554+496504371+504676755
1638+517577956+531855564+539377948+537060552+533134234+534528506+541795948
1628+552090463+562913291+574047836+585058394+593859412+600638868+609065486
1618+621189977+633236290+639224002+640476601+642337210+646651371+651916743
1608+656091954+658736596+660880906+663353559+666039589+668714583+671714806
1598+675513778+680282072+685867862+691802159+697519613+702707444+707332473
1588+711550558+715559369+719274999+722444735+725386874+729388186+736047440
1578+745607163+754738434+758546462+759148813+763403616+773582457+785802458
1568+794992308+801778344+809695079+820192571+834451679+855435696+881784628
1558+897584563+895018098+888246495+885108171+884880644+885224340+884466272
1548+882812601+882468339+885388263+891953423+900943693+906253070+897901091
1538+880359262+867528208+862333868+859363288+853538085+846686395+843671385
1528+845382575+848971141+852455848+856997606+862708197+865820061+864007560
1518+859559544+854457955+849433764+846076262+846117296+850274678+858239805
1508+866966962+867923337+856962586+844279255+837741050+837363537+840408686
1498+843240033+842814977+839709551+837890895+840131070+845304115+848804316
1488+846824283+840809121+834683733+830628228+828724674+828366122+829594030
1478+833148920+839447499+847628409+854277476+853841525+845655309+836875516
1468+833389322+835186117+838184925+838651227+838028784+840666351+848285165
1458+856886956+857489732+848385840+838210678+832308571+830836936+831635967
1448+831352479+828040397+823249959+819606845+818123112+818952494+822419303
1438+827515020+830198220+827399134+822371618+819534399+819059749+818469637
1428+816719749+815414018+816037452+818493762+822382726+827264288+830499113
1418+828187553+821349022+814997523+811500293+809784929+808066453+806095759
1408+805134573+805912380+807295580+807778790+807777800+808735308+810809011
1398+812915117+814069234+813471836+810789414+807682361+806746148+808433283
1388+810356151+809838415+807380124+805974992+807456603+811315498+816059879
1378+820860505+825839912+830842242+834743303+836963385+838503151+840114727
1368+841392936+842642139+845279706+849237225+851980349+851606656+849330259
1358+847348458+846427739+846108594+845807135+845434150+845263010+845403941
1348+845504049+845057557+844267935+844497018+847178803+851945895+856243783
1338+857644812+856406575+854704371+854198591+855253873+857501688+860318744
1328+863079767+865560910+868197487+871642929+875935441+880279458+883881537
1318+886975148+890613662+895253902+899999344+903682430+906313347+908814158
1308+911718518+914972727+918550540+922228461+925112233+926355280+926077239
1298+925037735+924023841+923707454+924247830+925035117+925448004+925450197
1288+924976537+923536314+920889762+917531552+914180205+911187622+908720558
1278+907206049+907168694+908503998+910261527+911463753+912054148+912835421
1268+914427753+916486670+918168923+919229440+920141669+921273430+922827275
1258+925302687+928832249+932268070+934032815+933944238+933405773+933651906
1248+934416271+934579558+933665136+932140793+930619493+929346943+928052603
1238+926198643+923957125+922446861+922163868+922004613+920845898+919126785
1228+917809664+916835459+915586257+913955862+912342376+911249386+911063035
1218+911741582+912739840+913502436+913973125+914694191+916431133+919320777
1208+922479830+924964864+926863465+928761359+930640363+932125087+933441289
1198+935376255+938159069+940728152+941713251+941232446+940831303+941556190
1188+943081877+944637632+945883722+947092457+948983064+951807690+954505322
1178+955613736+955068196+954322296+954829562+957065137+960703652+964842923
1168+967985067+968887957+968291407+968926939+972813639+978890211+983701095
1158+984630869+982431800+980086281+979392594+979696458+980142809+981300181
1148+984122967+988762853+994295866+998715229+1000434696+1000357792+1000600388
1138+1001692459+1002821390+1003586037+1004326984+1005567910+1007366473
1130+1008982506+1009766397+1010362664+1011897973+1014329026+1016776068
1121+1018680612+1020033532+1021123905+1021974866+1022083040+1021420765
1113+1021229674+1022429706+1024297815+1026042964+1028245783+1031843688
1104+1036284488+1039504738+1040184700+1039281032+1038772706+1039237168
1095+1039309190+1037477517+1033638997+1029497816+1028183878+1032185402
1087+1040821364+1050251406+1056332930+1057408516+1055106649+1053137229
1078+1054251798+1057839444+1060896124+1061297904+1059663406+1057975705
1070+1058171537+1060779107+1063994688+1065400244+1064605741+1063368636
1061+1063695069+1066091738+1068453034+1067890302+1064138448+1060183265
1053+1059229648+1061610046+1064489855+1065495118+1066045752+1068516000
1044+1071930383+1073240359+1071945382+1070345338+1069992517+1069923325
1035+1067792315+1062965795+1058199199+1056845501+1058947079+1061884761
1027+1064716887+1068387521+1071894726+1072586715+1070283504+1067778449
1018+1067074857+1067518095+1067495243+1066630699+1066056223+1067334927
1010+1070748109+1073741823+1072829877+1068403510+1064656750+1063943820
1001+1064921491+1066015472+1066815918+1066298960+1063020625+1057646018
993+1052677719+1049431433+1047358649+1046309169+1047468309+1051028293
984+1054284766+1053952320+1050078992+1045702997+1043215628+1042468951
975+1041862921+1039993114+1036588706+1032871307+1030425326+1029448150
967+1028720150+1027259339+1025286523+1023327715+1021493565+1020014925
958+1019151159+1018270131+1015999888+1011584204+1005703322+999940094+995513232
948+992439713+989749933+986855337+984893062+985275033+986784872+986193487
938+982369471+977708997+974873688+974265818+974815391+975470945+975732502
928+975506036+975009383+974566287+974035886+973025813+972081465+972515859
918+974235892+974976627+973260980+970835729+970140556+970776654+970477954
908+968900409+968014357+968981274+971003897+972759799+973278738+971873960
898+968980991+966539821+966008784+966954052+968237780+969257546+969481111
888+968163990+965491968+963037002+962036055+962005138+961494335+959622972
878+956826503+954463086+953646084+953890378+953504163+952087994+951527597
868+953272109+955964082+957003940+955647412+953595358+952934569+954065975
858+955480588+955485257+954023668+952556631+952426454+953604767+954784424
848+954584773+952667706+949613360+946242770+943544500+942571852+943736299
838+946291374+948558149+949139205+948395216+947812391+947712212+947240957
828+946796375+948186721+951762977+955406302+956841502+956089801+955409839
818+956702552+959460746+961722144+962439249+962249715+962411304+963764648
808+966277415+968868360+970169209+969721231+968160877+966208507+963734368
798+960411037+956822046+954151086+953036800+953181551+954145709+955998324
788+958798259+961871848+964142161+965255315+966004539+967358874+969204909
778+970220714+969290090+966971102+964773306+963412251+962725780+962995685
768+964941475+967713606+968747805+967010439+964305802+962544593+962046101
758+962689344+964476659+966646014+967857649+967647173+966788006+966513998
748+967382575+968378569+967971696+966486901+966090569+967904909+970781677
738+973386417+975561149+976725595+975190287+970623979+965361862+961961840
728+960823499+961156512+962862466+965755364+968182030+968774618+968442596
718+968815016+970479723+973647549+977669307+979182826+974904039+966542509
708+959339412+956865203+959211004+964109404+968313976+969845677+969585394
698+968921209+967582792+965580969+963832496+962995826+962535396+960855548
688+957171048+952517720+948864631+947232326+947040881+946895776+945134214
678+941344865+937523961+935894769+935908353+934649245+929976674+922788009
668+917676161+918839051+922395993+921922333+917036738+912428052+911821527
658+913635514+913598371+910772401+908908607+911446420+917265538+922317604
648+923963634+922117811+917279900+909828760+900826534+892522027+887837782
638+888376176+892236204+895721336+898055181+900235785+900404732+896050103
628+888259583+879548133+871326331+865612839+864405661+866170619+867361242
618+867779152+868870091+868260524+863959805+860222455+862315402+868953716
608+873290091+871208393+866516720+864426320+863393607+861150956+861487011
##END=
