##TITLE=<SNM>
##JCAMP-DX=4.24
##DATA TYPE=INFRARED SPECTRUM
##DATE=2/5/2025
##SAMPLING PROCEDURE=Instrument type and / or accessory
##ORIGIN=Admin
##XUNITS=1/CM
##YUNITS=ABSORBANCE
##RESOLUTION=4
##FIRSTX=4497.3318
##LASTX=599.83466
##DELTAX=-1.4281778
##MAXY=1.8569604
##MINY=0.34960318
##XFACTOR=1
##YFACTOR=1.7294292e-09
##NPOINTS=2730
##FIRSTY=0.40017778
##XYDATA=(X++(Y..Y))
4497+231392986+232018800+232072393+231746096+231672186+231861382+231638704
4487+230820300+230066121+229928227+230351353+231145269+232200568+233143959
4477+233410511+232921247+232402085+232737308+233990762+235169566+235170979
4467+234007133+232712234+232105945+232210994+232690832+233114268+232978028
4457+232320541+231950818+232275478+232601033+232392055+232247320+232708633
4447+233119489+232635033+231547268+230703774+230315337+230079735+229943167
4437+230156350+230783457+231488954+231832810+231716215+231432638+231230398
4427+230961365+230340410+229584026+229377822+229922609+230442909+229996450
4417+228531329+226874790+225944237+226122248+227045305+227923523+228243581
4407+228122851+228001413+228277891+229165966+230532655+231883594+232667361
4397+232631811+232011924+231373031+231031449+230737911+230223143+229691815
4387+229334655+228829640+227838429+226606773+225670120+225215545+224969999
4377+224673067+224520249+224920525+225818422+226578684+226624367+225970688
4367+225028590+224143065+223419302+222824454+222420526+222474860+223194229
4357+224368052+225583285+226671119+227471619+227501086+226598312+225449475
4347+224657368+223977030+223227694+222987870+223581218+224304189+224333966
4337+223721318+223069207+222825419+223207963+224288628+225702482+226656403
4327+226756196+226439394+226081217+225442651+224633156+224479408+225153594
4317+225541514+224772050+223550493+223249390+224163313+225241979+225444943
4307+224843272+224202896+224040739+224386129+224913167+225094986+224649872
4297+223784837+222822524+222034949+221846254+222491713+223450941+223951888
4287+224018819+224312478+224978012+225328986+224823179+223789266+222916683
4277+222597882+222920370+223656248+224219112+224223455+223991230+224016424
4267+224247080+224370137+224399536+224476358+224486749+224404706+224588731
4257+225156748+225508721+225121266+224441790+224387422+225230882+226308755
4247+226688731+226086232+225081356+224360470+224089886+224201638+224688180
4237+225264364+225402482+225039532+224656317+224502052+224300484+223871792
4227+223616958+224067018+225078667+225900001+226193694+226466553+227070654
4217+227362692+226571705+225120129+224252043+224421525+224821369+224636741
4207+224099588+223954577+224387146+224929055+225145633+225082700+225072670
4197+225326487+225775514+226194211+226393866+226306808+225986094+225625884
4187+225501879+225713184+226007049+226016199+225700931+225455317+225774135
4177+226891505+228555609+229918714+230009288+228729881+227104860+226246218
4167+226405601+227211253+228284715+229201758+229399604+228740721+227801258
4157+227161141+226795417+226376341+225755283+225021714+224451061+224409117
4147+224999208+225871085+226569361+226937447+227053869+227010530+226970929
4137+227189833+227707962+228195348+228316940+228141600+228008186+228057229
4127+228060797+227694693+226848631+225727676+224753456+224271016+224283251
4117+224505688+224756782+225131847+225601362+225807669+225620404+225468052
4107+225702724+226065967+226206877+226271998+226513132+226672877+226269758
4097+225354490+224576444+224477134+225001087+225707239+226144995+226044978
4087+225519077+225010392+224789059+224744892+224794521+225037999+225374290
4077+225444099+225070827+224399088+223666794+223130572+223081942+223680425
4067+224757110+225874962+226646304+227004068+227058143+226740514+225925109
4057+224960349+224594125+225096141+225832898+226046890+225780115+225620714
4047+225789024+225942238+225763279+225339722+224979839+224943444+225270930
4037+225640911+225622851+225309686+225349631+226072911+226976857+227393538
4027+227283526+227080166+227114441+227388455+227653576+227695365+227624126
4017+227647821+227630278+227334879+226943961+226873359+227325849+228248837
4007+229292694+229823005+229589350+229205963+229370326+229917939+230151904
3997+229775289+229074703+228453783+228160142+228315923+228868654+229551405
3987+230152335+230729140+231270325+231386162+230834189+230164604+230256678
3977+231258004+232420385+232956263+232714388+232019283+231260434+230803791
3967+230927589+231557591+232307048+232921195+233394330+233607771+233279165
3957+232456729+231756264+231849284+232826399+234217766+235495553+236346475
3947+236656469+236622900+236692933+237064172+237467239+237609717+237416335
3937+236874942+236274460+236310080+237232051+238198585+238337754+238107994
3927+238562965+239727328+240549541+240453504+240196568+240706046+241725829
3917+242067600+241045853+239272616+237887780+237381284+237371720+237589486
3907+238767050+241839563+246222674+249715522+250752348+249557897+246953313
3897+243891432+241733549+241554090+243107510+244657691+244759449+244464067
3887+245692621+248199686+250018710+250781264+251537286+251500684+249273596
3878+246418366+245774630+247994378+251626705+255096703+257201976+257170561
3868+256163565+256221569+257345453+257533390+255728652+253249486+251910300
3858+252749090+256298288+261977160+265755188+263474626+257831805+252905957
3848+250274319+250173027+252193550+255454587+259031150+262423636+265072575
3838+265686516+263687378+260687207+258555982+257459205+256626067+255959343
3828+255832770+256327290+257964236+261735733+266701715+269320205+268434043
3818+266592754+264847916+262154999+258834303+256741335+257155999+260073162
3808+263934888+266615484+268313347+270888893+273913552+274831922+273810433
3798+273303368+273637316+273474107+272729268+272633335+273854824+276175606
3788+279373158+283375001+287716909+291887579+296159368+301026091+306155334
3778+311085989+316461793+323467961+332893566+344944675+358675122+371741429
3768+382483181+391481008+399908337+408134046+415890825+422267387+426029130
3758+427141624+427342554+428734524+432808209+439669003+446897125+451711634
3748+455216131+460504049+468218885+474915626+478489226+481976490+488989103
3738+501086636+516856716+531524919+540532948+544058123+545530293+547853022
3728+552318228+558613040+565006869+569549657+570825927+568288688+563414624
3718+559004389+556979575+557847160+560739043+563203010+563030513+560388776
3708+556413557+552504856+550905063+552627034+555180402+555226965+553147765
3698+551648713+552079180+554255054+558031375+563692929+570534044+575406281
3688+575313191+571683725+568196839+567122189+568768750+572234233+576921773
3678+582772228+587447533+586603211+581256668+576786222+575832716+576906022
3668+576789462+574197975+570406282+567024343+564458843+562565236+561470940
3658+560453743+558100236+555421760+555473458+558963273+562765236+562802975
3648+559225309+554918676+550431963+545835686+542582335+541616835+542192158
3638+543377200+545027105+546539839+547076975+547521607+549372477+551103512
3628+549352625+545130017+541967998+541561588+544237548+549541183+555469770
3618+559274318+560175955+559286071+557889518+557564376+559625171+562874559
3608+564168062+562843541+561809041+563459808+567033303+570221688+572615070
3598+575756031+579788806+582594044+583070694+582983429+584046534+585563335
3588+585967471+585375777+585286789+586305365+587658596+588327767+588010207
3578+587611931+588265454+589697679+590992044+592586736+595582082+599332211
3568+601510325+601016718+599181737+597512600+596664005+597037812+598473000
3558+599817821+599813754+598472931+597047531+596449013+596515186+597152580
3548+598769743+600563780+600159231+596825714+593196213+592277516+594472518
3538+597730350+599430505+598510911+596272208+594626852+594000349+593440776
3528+592153649+590308397+588672623+587887305+587815205+587615377+586512500
3518+584433575+582057563+580465766+580361131+581197595+581460838+580334248
3508+578530285+576973642+575462597+573322773+570929356+569613038+569933561
3498+570864976+571029374+570388567+570264114+571601078+573475005+573729114
3488+571419861+568095892+565898615+565193669+564866838+564300752+564187225
3478+565259807+566807283+566988189+564895961+561802355+559773922+559595532
3468+560301235+560507267+559971820+559467288+559265806+558684107+557314023
3458+555605045+554038269+552791156+552086727+551966721+551916436+551147179
3448+549228551+546718678+544988780+544709131+544929052+544408770+543193295
3438+542134981+541722022+541830931+541901205+541275770+539757142+537781268
3428+536065983+535245201+535426762+535940255+536063812+535977650+536263019
3418+536686283+536327089+534888937+533201155+532151526+531679736+531104309
3408+530253060+529735052+529806050+529836896+529563279+529774756+530784509
3398+531503654+531158006+530450303+529917682+528915511+527144738+525359110
3388+524091662+523291938+523126920+523751080+524546186+524707378+524329953
3378+524116753+524270673+524287768+523744842+522707068+521485183+520611808
3368+520730815+521807568+522923508+523438655+523632348+523779307+523601192
3358+523110205+522990542+523539431+524141705+524378962+524624835+524812289
3348+524037104+522361868+521243963+521210257+521026938+519981306+519032935
3338+519047617+519502210+519255337+517932022+516448204+515968142+516459508
3328+517047756+517540569+518308689+518988510+518837760+518099246+517587683
3318+517240346+516382617+515192405+514697213+515351668+516550151+517495524
3308+517756768+517176137+516058405+515211189+515083634+515108139+514436969
3298+513258889+512836073+513806502+514989097+514781032+513281808+511858303
3288+511281739+511473054+512379585+514068849+516263713+518348565+519768623
3278+520308861+520072914+519255785+518076085+516744568+515154942+513109242
3268+511095870+510072055+510311104+511067264+511361146+510827147+510013913
3258+509889460+510777931+512009121+512785444+512874880+512417255+511773175
3248+511527646+511905244+512229525+511635315+510270607+509153634+508796577
3238+508608364+507911311+506934540+506369729+506386652+506429078+505805573
3228+504381758+502671746+501229493+500183310+499509969+499358220+499803713
3218+500531268+500851412+500022841+498025668+496036146+495225083+495064545
3208+494083294+492298493+491139197+491004370+490941609+490611056+490445659
3198+490102974+488871232+487288603+486523758+486629978+486795893+486644178
3188+486208197+485435148+484583451+484280642+484482848+484176283+482732340
3178+480823190+479393930+478469615+477469856+476065755+474453245+473208234
3168+472775079+472817230+472432567+471248593+469903875+469205478+469238426
3158+469418678+469009786+467635015+465721143+464322039+464072203+464388005
3148+464053592+462498466+460216440+458223678+457315045+457328658+457109461
3138+455835224+454093057+452935862+452547512+452523455+452686578+453034983
3128+453425712+453640808+453472481+452705740+451363055+449923249+448914667
3118+448299675+447588629+446661833+445959576+445636984+445331556+444909602
3108+444546927+444097643+443235503+442062351+440974018+440213653+439803210
3098+439594214+439414411+439288200+439192698+438727628+437670865+436569331
3088+436039640+435923803+435790424+435712051+435943379+436229059+435970676
3078+434990252+433719668+432592389+431623236+430751308+430218308+430227027
3068+430415481+430130904+429298611+428577088+428442847+428526424+428116499
3058+427003971+425607866+424528872+424110192+424224926+424392943+424218274
3048+423730665+423218068+422799009+422271075+421435542+420488859+419829890
3038+419504162+419196184+418802008+418606144+418711124+418621171+417764855
3028+416286551+414876384+413917053+413283450+412858118+412688448+412685346
3018+412603767+412327634+411980676+411733183+411476351+410773990+409370027
3008+407659291+406354036+405743421+405508404+405201701+404715815+404238441
2998+403895928+403655811+403502477+403383780+403009594+402072045+400721054
2988+399544043+398987882+398952038+399035202+399000600+398797636+398324777
2978+397496998+396441441+395436961+394761414+394532394+394504685+394245164
2968+393725019+393435824+393742665+394370409+394600566+393915955+392502790
2958+391023693+389882456+389015525+388352179+387950214+387681319+387260709
2948+386628140+386014561+385583232+385242822+384925435+384775168+384809047
2938+384678321+384110132+383285352+382471291+381674186+380905343+380324057
2928+379914786+379437481+378825936+378300794+377995366+377699140+377076462
2918+376051889+374907171+374050545+373725713+373847650+374036380+373851303
2908+373082632+371902760+370771001+370102347+369958697+370107861+370343084
2898+370586958+370711376+370488285+369826145+368943532+368193886+367738122
2888+367462919+367190129+366858473+366464539+365917409+365135020+364362076
2878+364094766+364400711+364631970+364215358+363355459+362534780+361870985
2868+361395990+361316479+361533505+361487012+360911275+360276397+360095663
2858+360185892+360012981+359528335+359170624+359097662+358962801+358528232
2848+357965110+357429663+356850307+356206951+355584170+354982653+354411811
2838+354008950+353805573+353579207+353101799+352348844+351434868+350553531
2828+349952463+349779725+349946501+350158908+350078984+349553359+348728751
2818+347875814+347163941+346664785+346368800+346090014+345570730+344805816
2808+344080743+343604507+343288084+342976211+342695322+342488808+342184448
2798+341614605+340934578+340379313+339843143+339097873+338296047+337847038
2788+337861444+338030391+338002750+337671956+337139473+336543367+335923343
2778+335218191+334413125+333680918+333301872+333369079+333578074+333427704
2768+332719105+331766046+331032323+330669062+330476679+330188828+329689776
2758+329043317+328410162+327899013+327469925+327035667+326633530+326366806
2748+326192689+325940371+325537718+325050142+324524793+323962188+323389691
2738+322835047+322291191+321789209+321440734+321338167+321417160+321451832
2728+321248041+320802030+320192794+319461758+318723899+318166877+317804375
2718+317481266+317138616+316784695+316307528+315630327+314922142+314425744
2708+314206271+314151403+314094880+313954160+313791451+313642459+313348267
2698+312754022+311995518+311362604+310950025+310666310+310494364+310456418
2688+310390073+310091193+309636980+309259762+308983284+308648492+308163191
2678+307550543+306910253+306380631+305989213+305632570+305306359+305130933
2668+305090023+305022644+304874893+304704808+304507152+304250940+303990798
2658+303790040+303629192+303449182+303180321+302739205+302130037+301516113
2648+301064899+300763296+300471999+300087336+299609583+299155128+298887784
2638+298821129+298757403+298535587+298219716+297940309+297693884+297410100
2628+297120871+296965193+297008377+297093299+296961195+296535863+295982667
2618+295475929+295034743+294606861+294201485+293878307+293665934+293548995
2608+293520389+293582564+293674447+293655319+293434881+293101123+292841051
2598+292726110+292639500+292410205+291945962+291275964+290582564+290141413
2588+290070519+290163884+290119183+289893610+289681651+289582323+289481996
2578+289276102+289016030+288791939+288637881+288577205+288584547+288492835
2568+288141982+287617254+287151581+286825543+286552271+286308707+286167384
2558+286120718+286082066+286038295+285998109+285846842+285492733+285096455
2548+284932695+285066350+285297506+285383858+285265867+285081359+284941863
2538+284762025+284420960+284000901+283718995+283689442+283837865+283984927
2528+283995042+283884479+283756683+283647860+283511413+283332230+283180188
2518+283128439+283136659+283078482+282936366+282867781+282986409+283182583
2508+283244310+283080533+282779016+282506381+282372175+282357234+282336831
2498+282175828+281857028+281533333+281378792+281375777+281334522+281132075
2488+280868126+280753409+280853961+281006813+281046051+280994905+280923373
2478+280788856+280559665+280324631+280181964+280156287+280218479+280274588
2468+280222046+280082532+279955219+279848360+279708553+279560716+279479258
2458+279487461+279550463+279590925+279529405+279393768+279316153+279346224
2448+279391631+279405848+279462112+279551669+279493113+279173778+278735540
2438+278395612+278217446+278172590+278276519+278498524+278647568+278527423
2428+278173227+277827578+277699851+277800179+277992114+278170935+278345724
2418+278530111+278645121+278625528+278545052+278525028+278579999+278661509
2408+278791287+279020909+279285514+279432007+279415309+279363387+279420116
2398+279609777+279872124+280143587+280365162+280472417+280430214+280240830
2388+279876966+279226217+278105641+276262164+273388117+269296924+264110952
2378+258152156+251670665+244801737+237736238+230794882+224334328+218590973
2368+213587924+209275242+205761405+203297628+202149463+202590873+204849687
2358+209015307+215147272+223530848+234576115+247648764+259938387+267730338
2348+268996493+264759703+258637526+254189793+252056225+250810438+249592947
2338+248573975+247965359+247480747+246657001+245539080+244790553+244934220
2328+245780369+246807613+247765255+248740768+249950745+251634994+253921518
2318+256603389+259170026+261211194+262772955+264261995+266022618+268037575
2308+270011899+271675176+272951998+273889409+274540710+274964508+275277588
2298+275629802+276062302+276422064+276557960+276600713+276845793+277349929
2288+277875605+278223511+278380585+278374554+278222615+277992838+277745707
2278+277470953+277174141+276917756+276710191+276467213+276143502+275806383
2268+275529836+275301162+275105849+275020393+275090340+275189323+275164146
2258+275052204+274993941+275017705+275058597+275095975+275154289+275249740
2248+275385153+275521841+275567403+275470022+275303746+275212414+275287393
2238+275500920+275730784+275857081+275853341+275784084+275726821+275713086
2228+275729130+275743054+275736523+275732421+275774865+275861716+275935592
2218+275954031+275899817+275738487+275493855+275332904+275413276+275668006
2208+275884825+275963629+275966093+275943829+275840555+275605883+275348775
2198+275271625+275417067+275594010+275632318+275588117+275594113+275637522
2188+275612587+275488496+275316947+275159924+275082378+275110622+275144553
2178+275040038+274848000+274832576+275144484+275584687+275825993+275804556
2168+275728544+275728320+275711777+275600472+275496130+275521255+275656547
2158+275811604+275937574+276030491+276120841+276258838+276433300+276539555
2148+276503143+276402557+276397112+276546052+276743053+276837298+276804797
2138+276764663+276808192+276884446+276925631+276989081+277149498+277333196
2128+277402178+277357925+277351135+277512827+277837746+278211793+278506124
2118+278645328+278645466+278634368+278782584+279136832+279547826+279807106
2108+279830404+279712930+279654168+279805210+280134850+280466161+280669746
2098+280781774+280918376+281134092+281408829+281721150+282051875+282339950
2088+282534798+282680653+282851306+283017324+283063042+282936934+282741088
2078+282656304+282775880+283024992+283259130+283409655+283521597+283697679
2068+284007070+284400625+284735693+284922407+285000505+285051771+285100780
2058+285118823+285088338+285048824+285074759+285202831+285402934+285625716
2048+285835572+285996730+286097041+286190303+286344706+286552667+286761025
2038+286955148+287123182+287205398+287201021+287247738+287453563+287708035
2028+287797712+287689854+287586477+287680635+287966694+288341259+288749341
2018+289104536+289234400+289096058+288900969+288879549+289059835+289320666
2008+289535830+289675620+289831918+290092266+290434675+290812549+291191697
1998+291484787+291717908+292192318+293096401+294062695+294520699+294377015
1988+293977738+293641361+293527110+293668209+293920251+294081409+294150166
1978+294304880+294624921+294979565+295214340+295368639+295657318+296189215
1968+296722111+296840981+296460626+295981495+295857455+296188663+296761574
1958+297285854+297540171+297468553+297223990+297056421+297147133+297535311
1948+298148718+298938241+299920319+300879925+301214614+300580391+299501777
1938+298793143+298700053+298927384+299161504+299317872+299456317+299628056
1928+299874308+300363434+301226643+302175703+302802276+303284888+303981390
1918+304462968+304026883+303013890+302458488+302784181+303564709+304143857
1908+304203757+303926487+303686680+303620094+303635844+303751853+304152818
1898+304904016+305732449+306228192+306413786+306826745+307676133+308340823
1888+308244701+307736377+307462106+307545786+307773220+307986420+308110046
1878+308168809+308317422+308720523+309599930+311344889+314058106+316785902
1868+317853763+316740615+314731034+313267757+312789246+312972564+313341063
1858+313615818+313803583+314067653+314523693+315219057+316199515+317524623
1848+319367772+321863205+324316419+325078679+323603305+321541337+320551057
1838+320786728+321447351+322018642+322960465+324992586+327715177+329583452
1828+329936614+329705492+329425602+328625671+327350297+326512489+326614919
1818+327253726+327859240+328435184+329385416+330754225+331922621+332279022
1808+332000201+331854035+332538199+334293359+336671542+338626807+339361426
1798+339228909+339459445+341083880+343958461+346239901+345902318+343636938
1788+341928546+341997614+343226978+344600577+345863993+347030768+347817396
1778+348328510+349529854+352403264+356651583+360108552+360619598+358689252
1768+356088219+353960182+353274261+354637349+357141398+358937951+359639657
1758+360170417+360693801+361143465+362551599+365859714+370050063+372651889
1748+372665020+371391473+370365279+370308723+371338707+372922680+374081219
1738+374947943+377209944+381538222+385094658+384535154+381365139+378369172
1728+376355662+375483734+375768897+376790300+378558385+382133431+388268395
1718+395267014+398920296+397376440+393462155+390282663+389129053+390241718
1708+393272667+397058019+400184091+402925017+407029721+412583674+416609832
1698+417321395+416066010+413450398+410109162+408172991+408804113+411338353
1688+415184742+421073316+428672969+433371572+431638504+427337178+424917154
1678+425670282+428856667+432379706+434653874+436626302+439477240+441623027
1668+440900745+438989975+439016444+441287200+443416650+443690750+443437708
1658+445076309+450189732+459215888+469164120+472378870+469292881+468051523
1648+470658140+473255072+471923864+468457865+466495673+467247284+470738788
1638+476776732+483576869+486759015+484601993+481428532+480978110+483372802
1628+486758291+489757119+492545021+495106351+496500491+497129235+498989135
1618+502735506+506095113+506595164+505536230+505417188+506777932+508715447
1608+510306347+511502384+512821253+514456786+516104761+517564143+519050650
1598+520841792+522941223+525093868+526976652+528457610+529706515+531004051
1588+532501965+534136327+535637998+536694658+537380441+538500827+541173961
1578+545627208+549936392+551251056+550428517+550931842+553754830+556670149
1568+557403769+556894791+557313126+559863979+565608144+575583638+587177190
1558+591500332+587129146+582094648+579723116+579573952+580804626+582726183
1548+585376673+589804520+596739552+605591041+615306910+624086229+627670719
1538+625358053+622997826+624348645+628615264+632883470+635975180+639460204
1528+644625394+651051034+657974486+665726406+674386062+682080701+687246304
1518+690829416+693798362+696070290+698133912+701358863+707087416+716101235
1508+727148622+734080483+731455290+724974574+721534975+722360616+725944555
1498+729818964+731819722+732157685+733261665+736726631+741542828+744796179
1488+744821270+743177431+742156304+742645706+744264661+746249083+748590698
1478+752076205+756880133+761828814+765120076+765403929+763198657+760994211
1468+760840566+762877995+765468861+766869791+767815371+770626468+775979078
1458+780972838+780515420+774716559+768896191+765813855+765513114+767081820
1448+768825469+769085472+767627055+765435568+763659315+763370292+765281579
1438+768805410+771575494+771624434+770108736+769021988+768571118+768038221
1428+767476236+767599827+768428916+769289918+770193175+772021264+774648249
1418+775946474+774519075+771654695+769030673+767129657+765742788+764974772
1408+765427779+767079752+768544028+768660313+768385007+769328243+771335343
1398+772909563+773342924+773063690+772530242+772226468+772875304+774637427
1388+776368876+776402652+774948921+774603100+777502496+783200651+789514005
1378+794854345+799206093+803028253+806145054+808152153+809419704+810932990
1368+813309829+816273606+819025148+820919409+821744361+821713412+821209397
1358+820446481+819603400+819155494+819517996+820299523+820599161+820264989
1348+820144637+820847101+822040828+823219873+824340466+825413083+826207362
1338+826612876+826715651+826558077+826442482+827131780+829059059+831625179
1328+833865813+835534191+837048097+838747769+840620869+842520369+844458952
1318+846650714+849200843+851855469+854120091+855697964+856793259+857909164
1308+859454847+861716780+864963583+869006663+872781055+875089653+875838921
1298+875997390+876441574+877293203+878146899+878497890+877926668+876176126
1288+873430512+870468389+868038543+866005320+863594360+860553382+857630826
1278+855794259+855279422+855574097+856057502+856394431+856621899+857198842
1268+858468185+859754761+859864566+858896998+858383333+859242199+860740665
1258+861662946+861699410+861542043+862068667+863511576+865362204+867067253
1248+868556000+870111678+872056671+874427927+876735767+878282897+878883070
1238+879080760+879660874+880974057+882583431+883808659+884840952+886736316
1228+889823271+892774640+894210242+894741002+896055218+898351271+900221752
1218+901017616+901765574+903485442+905932245+908299641+910407998+912798209
1208+915747373+918704050+921121489+923260589+925470411+927626192+929629155
1198+931360949+932637323+933890950+935828016+938235047+940398065+942246971
1188+943957258+945589172+947626256+950384484+953189239+955307178+956765251
1178+957688773+958399371+959999233+963276571+967508864+971189235+973251410
1168+973625354+973323235+973456614+974127370+974910137+976160387+978494627
1158+981081151+982178170+981349495+979923750+979253821+979726817+981249891
1148+983522233+986029694+988581270+991626591+995470602+999299861+1001208874
1138+1000188988+998461674+999520988+1003482938+1006669496+1006642200+1005192467
1128+1005125812+1006785643+1008730499+1010245301+1011718056+1012837477
1120+1012478421+1010617040+1008571753+1007406770+1007761759+1010394534
1111+1015077835+1019678626+1021723982+1020408662+1016980299+1013928636
1103+1013256226+1015338321+1019288552+1023691309+1026840782+1027310884
1094+1025486035+1023698340+1023943316+1026258601+1028957480+1030312917
1085+1030365993+1030470697+1030839127+1030127220+1028484001+1028715674
1077+1032831889+1039728389+1046776535+1051752926+1053501400+1052484823
1068+1050497713+1048601935+1046415274+1044290925+1043496784+1043669936
1060+1043285652+1042087651+1041181431+1041618584+1043840813+1047708743
1051+1052424785+1057269244+1062556577+1068517837+1073249044+1073741823
1043+1069525315+1063638775+1059739276+1059230505+1060711876+1061773258
1034+1061568743+1061094023+1061152751+1061497538+1062018097+1063077479
1025+1064517906+1065585905+1066074411+1066553612+1066967260+1066172981
1017+1064136380+1063013237+1064128797+1065365744+1063534415+1058072759
1008+1051076172+1045729491+1044168643+1045249532+1046635918+1048732075
1000+1053088028+1057924077+1059096022+1056011136+1052663489+1052103848
991+1052855734+1051582324+1048295818+1046340485+1046746068+1046034368
983+1041059838+1033796493+1028803422+1028098959+1030394530+1033284482
974+1035013932+1035121325+1034263562+1032806316+1029815588+1024985535
965+1020632891+1019233133+1019838406+1018993946+1014823070+1008600635
957+1002766412+998744769+996372273+994823281+993690213+992834035+991967518
947+990846374+988939430+985402088+980635244+976746567+975108518+974713756
937+973938640+972701212+971953392+971856407+971346464+969531404+967072124
927+965429113+964703971+963546156+961682637+960726994+961363837+961493011
917+959578967+958064648+960092288+964778759+968385376+969133403+968329336
907+967479155+966950119+966571142+966097870+965415189+964741951+964167903
897+962864026+959761218+955200061+950825911+947792377+946141507+945926928
887+947542230+950663167+953952844+955663338+954857686+952842109+951853034
877+951975385+951113968+948175075+944516762+942117796+941629428+942100564
867+942268890+942129238+942654829+943916589+944555293+943543955+941926585
857+941990758+944294670+946357740+945393549+941826705+938506561+937527689
847+939269270+942780901+945813952+946201131+943996134+941213574+939902322
837+940892223+943245626+944659653+943483365+940538820+938117108+937743784
827+938966186+940136614+940212920+939550159+939491224+941353778+945579315
817+950995271+954822670+955170904+953401888+952503456+954195615+957774039
807+960360287+958765457+952601888+945598478+942199064+942988449+944778833
797+945232805+945506112+947478470+951259066+956261650+961625839+964826666
787+963570833+959810641+957627357+957597234+956787584+953495633+949667476
777+949065511+954030390+962896078+970155494+971173588+966771384+961125064
767+956890152+954053413+952013296+951158497+952241936+954903525+957349087
757+958061753+957313243+955801198+953263339+950052793+948308524+949910178
747+954251035+958800612+961315931+961179794+959577796+958351603+957669335
737+956029218+953906661+954919103+960802679+967431387+968852307+964072504
727+957041039+951826772+949906042+950885466+953939127+958540953+964391305
717+970816256+975795128+976109310+970268953+961294631+955006230+954860375
707+959322342+963939607+964938125+961509417+955707316+951016364+950182519
697+952245452+952975143+950166734+946243316+944258895+943827325+942040112
687+937596549+932742234+930037289+929558571+929498051+928264275+925421953
677+921574840+918079132+914910427+909587043+900178326+889838780+887129147
667+895982842+907140792+912652423+912885612+909601174+903799831+897806174
657+894572537+894374915+894503538+892881550+890056805+887561682+886017240
647+885498750+886688065+889694785+891920806+889794940+883389290+876789739
637+874110367+876845986+882792840+887124667+887106125+884317361+881820515
627+880615070+878365475+873050984+866739629+863944179+867227791+874413383
617+879372403+877867457+872371818+866694618+859674596+849016525+838800225
607+837399088+846779889+859993051+868784571+869836992+864669804
##END=
