##TITLE=<SNM>
##JCAMP-DX=4.24
##DATA TYPE=INFRARED SPECTRUM
##DATE=2/5/2025
##SAMPLING PROCEDURE=Instrument type and / or accessory
##ORIGIN=Admin
##XUNITS=1/CM
##YUNITS=ABSORBANCE
##RESOLUTION=4
##FIRSTX=4497.3318
##LASTX=599.83466
##DELTAX=-1.4281778
##MAXY=1.7531153
##MINY=0.19262405
##XFACTOR=1
##YFACTOR=1.6327159e-09
##NPOINTS=2730
##FIRSTY=0.21461567
##XYDATA=(X++(Y..Y))
4497+131447044+131618488+131271037+130401199+129597263+129190663+128988144
4487+128837637+128919950+129418107+130161680+130639586+130384917+129443133
4477+128393216+127840226+127958270+128520140+129247075+130041656+130814114
4467+131194429+130827484+130010890+129535330+129797857+130411210+130625594
4457+130004638+128882594+128083158+127963882+128105947+128189155+128566795
4447+129513554+130462319+130589033+129885043+129121201+128845358+128924194
4437+129083489+129312722+129574191+129632674+129302391+128593098+127705636
4427+127037240+126959079+127443629+128012728+128062012+127319599+126147249
4417+125305210+125240256+125692479+126107001+126223228+126083618+125733658
4407+125238120+124835107+124714627+124722485+124608274+124434604+124413449
4397+124450274+124162522+123468425+122977596+123395193+124490851+125214309
4387+125055341+124612883+124508530+124432888+123625110+121920396+120014313
4377+118788125+118574882+119101780+119898852+120583111+120930533+120910902
4367+120656516+120397786+120376156+120594236+120631993+120065002+119150488
4357+118732061+119311646+120462320+121290323+121321691+120786990+120141930
4347+119623804+119355125+119524196+120158340+120944351+121582803+122076854
4337+122349977+121985277+120839304+119534381+118850186+118923437+119379858
4327+119943746+120508327+120738829+120182699+119014292+118114591+117977692
4317+118152238+118229358+118543021+119338789+120119187+120364930+120245782
4307+120251313+120562631+120996373+121343084+121622440+121980933+122361458
4297+122397855+121770328+120695404+119895913+119884122+120445910+121092239
4287+121677921+122149775+122154165+121521682+120741877+120386076+120382480
4277+120272541+119883976+119451374+119338168+119792719+120704540+121596119
4267+122105356+122301387+122316555+122093565+121728628+121601586+121956510
4257+122634873+123237512+123421696+123256286+123304419+124024545+125119027
4247+125799032+125634343+124904834+124168335+123722427+123585793+123766509
4237+124186315+124489336+124401502+124128516+123977616+123880710+123690092
4227+123615874+123979442+124692960+125284228+125491621+125583571+125889514
4217+126255062+126313381+126060729+125774381+125560572+125328236+125059987
4207+124888808+125017210+125594815+126492792+127213146+127308063+126971838
4197+126921322+127512143+128244818+128362807+127755641+127033552+126776848
4187+126966262+127222053+127379633+127559537+127830077+128200526+128783908
4177+129552771+130164682+130424417+130641420+131188515+131970045+132550141
4167+132594350+132090580+131360049+130909332+131084371+131783433+132559487
4157+132972840+132870321+132497544+132270073+132229149+131951399+131266073
4147+130634584+130473089+130631107+130800314+130850666+130624810+130014248
4137+129337164+129120963+129449759+129901006+130188859+130514962+131073419
4127+131557796+131509525+130841959+129776190+128722632+128300983+128836350
4117+129839629+130580646+130953787+131250101+131517009+131696118+131947073
4107+132355388+132666241+132698823+132739619+133104418+133562081+133656213
4097+133363724+132979064+132626020+132334863+132277474+132538477+132969545
4087+133461013+134036848+134613248+134969806+135047556+135085075+135373504
4077+135964233+136652981+137147908+137217617+136839913+136276618+135862827
4067+135676115+135496256+135073530+134362421+133519250+132804308+132518417
4057+132856421+133639183+134310190+134421489+134028451+133453438+132883281
4047+132438687+132355069+132713973+133161542+133261679+133021038+132769307
4037+132663895+132607173+132517632+132449776+132543488+132882341+133293996
4027+133478892+133467685+133651997+134253276+135067187+135733311+135988975
4017+135802326+135406003+135037416+134723433+134492138+134504495+134709278
4007+134697815+134224728+133669994+133674320+134322693+134930918+134863308
3997+134392612+134338455+134951955+135647357+135847713+135661722+135661165
3987+136213800+137034830+137391753+136901946+136034261+135644902+136171334
3977+137344486+138492276+139152404+139450561+139673561+139628019+138930618
3967+137846450+137231216+137575052+138507563+139324614+139751840+139998139
3957+140225976+140338407+140326396+140572742+141575391+143160720+144186350
3947+143840588+143035119+143197847+144059445+144095668+143008515+142076752
3937+142274654+143546994+145445512+147396197+148544608+148304559+147232557
3927+146567391+146785061+147151138+147032319+147066106+148110062+149632746
3917+149977878+148228015+145319373+143000749+142263474+143054577+145201393
3907+149088508+154833654+160941383+164879551+165599586+163804966+160084485
3897+155314207+151722731+151400534+154054643+156640468+156673926+155904187
3887+157200750+160007931+161735726+162362177+163261641+162903494+159597526
3878+156103239+156064268+159496202+164190985+168626372+171422546+171105196
3868+169165955+168611276+169391821+168818085+165915440+162910011+162373895
3858+165638812+173140904+183221464+188668098+183232453+172783178+164530495
3848+160615033+160766480+163897510+168727586+174367703+180204006+184717955
3838+185557329+182549198+178446787+175243639+172873330+170991788+169923190
3828+169802062+170565010+173258638+179070828+185740591+187981393+185496947
3818+182892340+180932967+177040285+171693022+168239805+168851671+173399242
3808+179159265+182795014+185048247+188808574+192790241+192839542+189719793
3798+187285361+185908886+184248500+182771030+182767598+184404948+187312175
3788+191523814+196790160+201894837+206177134+211001387+217766213+225284386
3778+231402391+236729174+243957285+254800994+268763338+283139100+294764522
3768+303306061+310438982+316674829+322294047+328625103+336000317+342673914
3758+347655911+353205036+362919838+379001692+400110738+419791433+432816420
3748+442913627+455367617+469074946+477909140+481621480+486819814+497633752
3738+513350396+529289947+540157404+545333104+548304510+551423291+554726504
3728+558027672+561161604+563095021+562692720+559684078+554659295+549380720
3718+546039760+545537066+547530756+551034242+553603383+552647133+549129665
3708+545966418+544553838+545099828+547091072+549009267+549773346+550146479
3698+551247586+553325569+556635645+561967593+569598461+577559092+581388399
3688+578632893+572794345+568697336+568434855+572147669+578883327+587376952
3678+596071216+600742946+597288633+590909425+589069025+590503327+588088316
3668+579664857+570228562+563838037+561026201+560540958+561182777+562547133
3658+564126949+564908114+565735058+569350801+576318457+583530743+586078746
3648+581950050+573964485+565758276+559575143+556266345+555497410+556621298
3638+559462740+563843111+568992819+574369342+580550065+587854018+593835233
3628+594749537+591519849+588652049+589371956+594667982+602400228+607997177
3618+610083958+612086190+615276488+616966736+616472877+617208993+620791151
3608+623821697+623266580+621283696+621223460+623253511+625644025+627974378
3598+631104732+634761801+637141437+637291770+636807330+638495607+643604683
3588+649813334+652966541+651799576+648309268+644894383+643375423+644624527
3578+647826434+650600632+650422553+647073890+643942514+645065817+650556897
3568+655805720+656405594+653265091+649813261+647513501+645961904+644687391
3558+644253330+645624000+648273638+649837136+648884318+647249267+647900104
3548+651070907+653524724+651987000+646992262+641905892+638986034+637831920
3538+637084779+636262946+635542820+635046989+635180092+636696642+639250779
3528+640479878+638240938+633678071+630187544+629407255+629955509+630289543
3518+630870141+632491539+634287363+634868619+634357675+633922591+633857537
3508+633181510+631099183+628238246+626192717+625814730+626078452+625456017
3498+623856305+621874443+619412157+616480690+614535042+615496622+619047604
3488+621981918+621483094+618542939+616377449+616426295+617447672+617612973
3478+616197254+613712625+611285933+609640405+608622678+608013787+608250386
3468+609632045+611325141+611854265+610533863+608456136+607642553+608390826
3458+608735739+607754263+607223131+608716719+611141951+612381089+611917859
3448+610594647+609055097+607471594+605817377+604038674+602641901+602640733
3438+603909441+604443494+602378179+598118351+593921900+591972310+592914504
3428+595390225+596802331+595464662+592314119+589838508+589369948+589909258
3418+589859280+589120098+588425125+587699669+586556287+585592188+585707877
3408+586512662+586716660+585855801+584523681+583215218+581922671+580796337
3398+580438538+581364998+583255630+584795873+584794815+583576376+582422261
3388+581825928+581438011+581082621+580702844+580041238+579030703+578133412
3378+577832964+578132316+578505266+578059121+576357811+574021180+571873397
3368+570127403+568912505+568680215+569697394+571750917+574220213+576119497
3358+576816551+576907124+577236667+577204140+575587343+572905434+571274764
3348+571898878+573886873+575526341+575868588+575007949+573772571+573163023
3338+573360231+573421635+572480718+571074599+570620751+571620735+573055913
3328+573829996+574154063+574642921+574762005+573516405+571275896+569586159
3318+569263989+569763872+570331255+570716872+570740091+570123716+569177432
3308+568904036+569745911+570690478+570383496+568854131+567325862+566637241
3298+566620266+566878330+567627077+569349743+571577585+572780034+572056367
3288+570210674+568583363+567781682+567896093+568839894+570094219+570821682
3278+570450120+569062291+567557751+567292240+568882095+571449885+573461171
3268+574111789+573670937+572846877+572310744+572510762+573150720+572901564
3258+570723882+567554320+565449906+565042932+565080351+564617449+564379573
3248+565499518+567840749+569952099+570589429+569968600+568967155+567619593
3238+565487617+563207644+562147460+562473426+562926325+562607770+561830329
3228+561309564+561457452+562137895+562619671+562210945+560911863+558965303
3218+556436392+553830198+552173134+551941683+552622601+553446186+553937235
3208+553772956+552713502+550858683+548825822+547448799+547101111+547460627
3198+547902647+547797034+546673913+544657151+542413246+540401668+538810535
3188+538060291+538331826+538806154+538375670+536993756+535554197+534643581
3178+534043561+533397835+532863125+532781387+533010757+533044963+532631674
3168+531870296+530840011+529426737+527530812+525441438+523715268+522374751
3158+520798622+518919307+517746209+517964992+518816505+519012253+518049176
3148+516292486+514579896+513825929+514246118+514918201+514695804+513529934
3138+512374542+511933982+511909487+511381275+509804087+507656304+506034870
3128+505608110+506039141+506354447+505742965+504197975+502675657+502318587
3118+503139763+503835868+503352194+502147810+501293414+500962483+500438214
3108+499137927+497326514+495937627+495672079+496378807+497326989+497726807
3098+497028622+495306430+493366222+491959483+491058833+490379923+490088930
3088+490302127+490361852+489418963+487576994+485797306+484762859+484429993
3078+484538709+484808310+484677397+483743818+482570100+482179590+482698785
3068+483217870+483003358+482225917+481358779+480450025+479364506+478356307
3058+477879131+477907022+477836273+477135641+475840283+474275508+472615012
3048+471054216+470164481+470424480+471295012+471391462+470006554+468035717
3038+466857143+466660045+466455609+465593728+464533873+463906985+463590328
3028+463069637+462095535+460751551+459426330+458706314+458747676+458872637
3018+458262176+457015883+456075003+456012065+456297838+456023017+455060781
3008+454047033+453431024+453093595+452733020+452137600+451186717+449946812
2998+448705338+447753651+447185502+446876037+446550326+445928877+444968904
2988+443959610+443179467+442491686+441594248+440602660+439935249+439677733
2978+439537694+439320700+438988126+438433849+437671412+437035689+436772660
2968+436576511+435887233+434573293+433063752+431919129+431474188+431724951
2958+432325336+432713691+432363631+431089702+429316438+427896265+427302159
2948+427097760+426522893+425414630+424210429+423346650+422999766+423073618
2938+423113994+422556139+421351208+420161572+419710864+420022337+420464576
2928+420420184+419715646+418556895+417303848+416231800+415319906+414396840
2918+413586251+413279707+413447162+413371812+412523622+411416126+410970090
2908+411189056+411153206+410307535+409047661+407937464+407042545+406186067
2898+405341052+404576133+403902297+403310126+402812799+402378190+401929307
2888+401431906+400874307+400165315+399216695+398175495+397390388+397054894
2878+397017620+397016635+396964358+396865754+396549425+395735295+394456986
2868+393176924+392283721+391675998+391048854+390361547+389758169+389216194
2858+388600075+387963366+387491776+387167270+386747117+386097668+385333405
2848+384629744+384112740+383890050+383938567+383996978+383762095+383148714
2838+382263944+381246181+380205017+379218759+378325483+377540522+376869424
2828+376284590+375741959+375252809+374923448+374864745+374969300+374849705
2818+374217048+373307344+372679433+372549726+372505261+371936272+370708779
2808+369315693+368318082+367802173+367521219+367283234+366891885+366064539
2798+364860666+363840311+363339407+362974744+362292730+361473270+360949877
2788+360703386+360305904+359433692+358150673+356849985+355939661+355469092
2778+355134255+354670113+354070969+353430974+352798318+352199977+351639202
2768+351069044+350440513+349738494+348990148+348293861+347733086+347217031
2758+346546882+345666967+344733059+343956786+343448325+343110750+342672125
2748+341974304+341190365+340594726+340218527+339878104+339410019+338764731
2738+338000980+337238287+336546599+335941688+335508758+335349553+335330351
2728+335052829+334214203+332973276+331880967+331371702+331297192+331059353
2718+330265520+329110566+328052682+327311419+326769810+326216080+325583314
2708+324970407+324443437+323912961+323327325+322839891+322570182+322347492
2698+321921207+321286433+320648117+320209785+320040906+319990235+319767473
2688+319238056+318528006+317784114+317039346+316343497+315778998+315302187
2678+314772661+314173773+313642495+313243626+312854357+312339032+311721818
2668+311101829+310514587+309991668+309649420+309559140+309583891+309484265
2658+309148479+308620085+307966181+307260147+306668633+306394835+306455399
2648+306584814+306448353+305953326+305293581+304683102+304139960+303566480
2638+302925317+302264350+301658361+301173501+300827237+300573664+300347123
2628+300072996+299677759+299176489+298682813+298260762+297866821+297472241
2618+297116741+296842194+296673389+296620600+296613591+296476692+296036169
2608+295287239+294472543+293928834+293784524+293865733+293931518+293907369
2598+293854233+293792611+293607760+293163258+292525125+291969296+291705464
2588+291681480+291666384+291439935+290965132+290453823+290158413+290075306
2578+289980498+289714330+289289066+288799880+288351088+288008877+287770307
2568+287591973+287394291+287070497+286640013+286329982+286312331+286463395
2558+286573298+286644722+286785455+286960686+287044669+286977917+286742852
2548+286355518+285953637+285690225+285514173+285266404+284963875+284766776
2538+284704460+284620513+284362340+283927055+283426680+282953355+282528092
2528+282191959+282029158+282049803+282185935+282388309+282569326+282565255
2518+282352587+282148370+282115952+282143223+282064168+281928437+281894121
2508+281972610+282044582+282057652+282010631+281778085+281209278+280408692
2498+279666115+279132537+278801679+278712001+278869051+279037967+278905302
2488+278451363+277950093+277615749+277432778+277300169+277160440+276989389
2478+276806346+276690237+276679614+276679924+276539959+276188584+275656795
2468+275039434+274503228+274241823+274282656+274383414+274264202+273917336
2458+273573244+273404986+273356341+273241492+272982680+272713171+272567656
2448+272468870+272292562+272099625+271983590+271862224+271652495+271471587
2438+271447620+271481918+271396000+271217374+271111633+271061017+270849809
2428+270427703+270046887+269941401+270081933+270319480+270572871+270803811
2418+270948103+270952429+270839551+270688743+270557904+270469814+270457657
2408+270536292+270646085+270703564+270679251+270601273+270544013+270582546
2398+270695880+270791162+270863627+271026318+271381142+271964771+272786877
2388+273857976+275242301+277119681+279724032+283192929+287519618+292674345
2378+298749346+305920068+314173116+323062836+331848659+339917823+346990216
2368+352954383+357715480+361242221+363531978+364469171+363946399+362027986
2358+358702103+353753947+347301506+340406206+334881760+332167542+332548451
2348+335651644+341123777+348334383+355529292+360392716+362037149+361437932
2338+359859759+357754943+355198981+352462532+349819465+347293913+344716923
2328+341762311+338047927+333541024+328823954+324647836+321199000+318033380
2318+314656461+310909331+306936116+303079721+299690883+296821714+294198069
2308+291564878+288917230+286376802+284027831+281931102+280152034+278686665
2298+277434220+276299144+275254731+274262833+273229007+272104152+270962997
2288+269953010+269204427+268739573+268411234+268008604+267477782+266949224
2278+266549113+266306966+266199473+266134400+265960337+265632783+265286574
2268+265050104+264903385+264802079+264803539+264942994+265078981+265008560
2258+264715997+264388972+264191984+264132314+264141094+264161756+264146588
2248+264065178+263940217+263827138+263764621+263784243+263935599+264224456
2238+264545348+264784830+264977712+265227434+265509684+265729270+265932355
2228+266281740+266841329+267518231+268199880+268854203+269504547+270185082
2218+270944708+271816938+272753912+273701346+274761584+276110625+277713403
2208+279301671+280692292+282001486+283477278+285171615+286867886+288363537
2198+289691696+290990413+292336825+293788558+295382046+297024288+298545001
2188+299864928+301012654+302018789+302878626+303613519+304301793+304993389
2178+305646745+306200000+306598066+306746866+306606572+306269946+305801368
2168+305165991+304398754+303605323+302772191+301767589+300483018+298899807
2158+297097137+295191592+293265512+291391618+289602529+287829575+286051292
2148+284347901+282708105+281277454+280844743+282304015+285566797+289723603
2138+294185000+298958546+304020511+309133475+314154206+319077136+323896022
2128+328641422+333473743+338635169+344270085+350271159+356389310+362518559
2118+368727137+375036107+381405641+387960044+395101653+403553624+414394869
2108+428730729+447167577+469772256+496237417+525502769+555495804+583919135
2098+609117231+630257344+647562419+661987575+673985416+683231038+689199695
2088+691055317+687952197+679905447+667367310+650627719+630098030+606179740
2078+579495430+551616301+524154915+497655985+472552696+449898295+430331719
2068+413587857+399181211+386641833+375510398+365742735+357564015+350873917
2058+345345893+340741956+336809847+333439062+330894380+329377246+328720203
2048+328835453+329989459+332630298+337361387+344880144+355781770+370698156
2038+390380494+415138724+444343950+476585599+509926895+542194390+571719449
2028+597764896+620159517+638998227+654532594+667118920+677490984+686461200
2018+693823235+698304693+699054608+696614080+692129263+685900023+677033923
2008+664724608+649373942+632071641+613569520+594064786+573577408+552341173
1998+530966141+510304554+491015792+473063494+455839499+439092681+423368919
1988+409234099+396677928+385483556+375557309+366747283+358807826+351625694
1978+345208921+339481352+334268525+329498958+325366319+322162806+319792041
1968+317554963+314723706+311334959+308080374+305463044+303424032+301707006
1958+300202576+298864523+297583257+296285635+295036148+293981878+293231488
1948+292841453+292946592+293648939+294467177+294303555+292672903+290500186
1938+288976371+288319802+288039634+287773629+287529200+287410135+287400388
1928+287520056+288083149+289306535+290648055+291361939+291699422+292305648
1918+292662663+291706231+289826441+288567699+288714291+289719295+290524956
1908+290552153+290052033+289626441+289531104+289578617+289589551+289724077
1898+290308308+291308201+292195271+292742010+293513062+294788543+295650296
1888+295205300+294012124+293136407+292825865+292800585+292891248+293022817
1878+293151174+293342304+293763697+294856080+297346786+301317227+305019674
1868+305748872+303075633+299456804+297091862+296243215+296121794+296097883
1858+296016565+295976262+296092881+296392453+296952553+298006166+299806426
1848+302616491+306457699+310000393+310573837+307561033+303808536+301841350
1838+301726574+302221017+302690709+303972833+307122007+311276768+313776510
1828+313597263+312433730+311333024+309680122+307511932+306044008+305892999
1818+306479055+307098715+307898535+309491895+311736749+313403341+313543088
1808+312729943+312311288+313200000+315603256+318890332+321539459+322274954
1798+321674131+321835526+324399045+328844945+331962449+330761716+326834864
1788+324076218+324004556+325524356+327296890+329071395+330657672+331469430
1778+331921197+333780068+338422921+344970862+349828592+349950633+346623472
1768+342732141+339874089+339197697+341209166+344326597+346086864+346494203
1758+347110359+348005606+348956161+351426880+356654201+362942837+366627542
1748+366471842+364637466+363444837+363833594+365619854+367638880+368627109
1738+369526883+373151279+380010036+385187854+383753808+378639511+374101031
1728+371088921+369784327+370335209+372219124+375458304+381578864+391572429
1718+402533233+407694148+404585187+398192580+393297979+391689834+393785194
1708+399167996+405902777+411440585+416081795+422768935+431895838+438837756
1698+440468536+438554941+434099403+428682979+426007531+427720888+432590884
1688+439602749+449723575+462117147+469320050+466312431+459894854+456892272
1678+458926630+464694903+471042351+475679144+480026696+485646023+489956119
1668+489906251+488461436+490455381+496322295+502249444+505084571+506581956
1658+510716675+520212110+535750602+552305214+557286189+551999984+549748157
1648+552912280+554710806+549675692+542147224+538054560+538815829+544141863
1638+553367186+563101994+566162329+560773321+554628046+553308995+556586616
1628+561586247+566446093+571503294+576301664+578832729+579820520+582999136
1618+589783091+596249477+597564695+595684029+595179510+597116870+599895412
1608+601996796+603427848+604904826+606522864+607736083+608350523+609025965
1598+610619690+613322737+616543408+619487944+621798729+623601490+625052110
1588+626122479+626871372+627615592+628658143+630193750+632859158+637887994
1578+645589027+652804525+654640580+652784666+653456895+658466382+664179348
1568+666757944+667504282+669709344+675143985+685551679+703576369+727787222
1558+744806305+747919794+748971325+754789722+764254455+774506631+783377112
1548+790246675+796836161+805408896+816025407+826361037+831664839+826443469
1538+814928826+806995539+804768062+803828021+799730392+794227484+792150267
1528+794789172+799627517+804060859+807977708+811452975+813089778+812850149
1518+812022256+810092964+806427936+803036707+802895646+807682736+817598980
1508+829793957+834735834+825830599+813106352+806144719+805831494+809378022
1498+812578176+812051462+808927605+807696024+810782863+816480277+820182979
1488+818769012+814097136+809858739+807836209+807606875+808095551+809391091
1478+812563063+817881029+824222271+829286298+829679035+824521259+818479589
1468+816370393+818614663+821789920+822627450+822659357+826095635+834596890
1458+844141426+845661554+837478052+828246595+823029678+821785393+822896868
1448+824198907+824320108+823960593+824379760+825754373+828145253+832206302
1438+837258283+839702900+836994268+832166583+829012792+827657527+826128126
1428+823567272+821037522+819610485+819602308+821476110+825453925+829210511
1418+828388532+822616207+816110248+811716478+809399561+808103509+807422445
1408+807819635+809244773+810234098+809725344+809053626+810067190+812567663
1398+815067478+816647841+816637036+814433799+811308555+809808433+810699920
1388+812074096+811580090+809582020+808853716+811366601+816907913+824112825
1378+831792100+838939112+844052497+845982811+845859638+846195644+847826751
1368+849641925+851045013+852763663+854814960+855633435+854342932+852354645
1358+851371673+851309320+850909647+849684856+848431371+847839748+847717305
1348+847685179+847638889+847542147+847626258+848487445+850257277+852157730
1338+853434871+854171863+854795466+855543483+856666348+858446037+860716008
1328+862768546+863982385+864481282+865159352+867034396+870408906+874532600
1318+878196314+880870045+883065908+885424808+887820726+889693214+890982695
1308+892190693+893591518+894838724+895500367+895779933+896387546+897629568
1298+898922407+899411813+898816977+897432433+895641720+893731922+891819057
1288+889762795+887595554+885765194+884396641+882861691+880731905+878689516
1278+877645942+877455744+877269780+876713057+876109240+875908455+876357922
1268+877457350+878998798+880780897+882699894+884424385+885330110+885282798
1258+884982934+884965630+884896195+884376124+883704405+883229019+882732458
1248+881997875+881208314+880368447+879051294+877113825+875320555+874967684
1238+876663919+879403290+881403843+882195375+882955293+884457752+886030012
1228+886976843+887678789+888605614+889448183+889863334+890200873+891111416
1218+892997120+895816074+899004912+901807292+903975994+905813509+907299175
1208+907957605+908057195+908902173+911255524+914407563+917285950+919533579
1198+921095032+922001633+922846027+924355130+926534273+929117469+932368659
1188+936443873+940536537+943623230+945722861+947639523+949555527+950681823
1178+950605525+950390721+951712619+955073183+959163949+962002982+962836935
1168+962880232+963907012+966324906+969236660+971877317+974140643+976024522
1158+977452361+978773019+980614841+982915331+984917345+986503257+988559519
1148+991364601+993666040+994306947+993972621+994313664+995923963+998107560
1138+1000098329+1001383794+1001525001+1000795091+1000399726+1001342614
1130+1003752770+1007619897+1013045849+1019147098+1023608404+1024600722
1121+1022936977+1021253519+1021112239+1021956268+1023060223+1024861524
1113+1027596440+1030009662+1030769288+1030252649+1029625395+1029402560
1104+1030001266+1032270214+1036152163+1039707744+1040598794+1038264134
1095+1034277119+1031152387+1030931304+1033818744+1037492680+1038689361
1087+1036455093+1033163819+1032109002+1034675623+1039633709+1044673350
1078+1048426140+1051400611+1054933632+1058589168+1060169458+1059549725
1070+1060054098+1063961894+1068914795+1070847008+1069103169+1066660377
1061+1066163378+1067313842+1067718041+1066362776+1065131122+1065652507
1053+1066949581+1067757906+1068628950+1069980418+1070384180+1068400055
1044+1064907337+1062480097+1062676721+1064674280+1067176213+1070234868
1035+1073246504+1073741823+1070660533+1066544505+1064317685+1064318050
1027+1065561314+1066643949+1065822335+1063318796+1061622707+1061647020
1018+1061627964+1060873668+1061592041+1065493193+1070464348+1071982651
1010+1067977456+1061484785+1057221490+1056312407+1055760795+1053033617
1001+1049408455+1047836268+1049275790+1051920244+1053188697+1051913016
993+1048920729+1045923623+1043813916+1042129655+1040309224+1038604009
984+1037370675+1036818187+1037450916+1038941401+1039097065+1036365507
975+1032595706+1030685981+1030806087+1030921447+1029542234+1026235042
967+1021020681+1015039320+1010437683+1008384707+1007755774+1006458773
958+1003450204+998911578+994001023+990536124+989347985+989045493+987274054
948+983230236+978485421+974991097+973045669+971547737+969786155+968181697
938+967103589+966367254+966185087+967374978+969903779+972039478+971962377
928+969910788+967919873+967801738+969708323+971967634+972327003+970018409
918+966743927+965121581+966089294+967988797+968410081+966870093+964871731
908+963707029+963478280+963902777+964731911+965180283+964156059+961828627
898+960014184+959959497+960718101+960807031+960193650+959316035+957862275
888+955849675+954195787+953430028+953145935+952992754+952927992+952593812
878+951662459+950254041+949114821+949501497+952101778+955758263+957664702
868+955621291+950460083+945569972+943629582+944160532+944533409+943334537
858+941710950+941211980+941907062+942871781+943446612+943656597+943964784
848+944892413+946396916+947571475+947525476+946666845+946454450+947390476
838+947898645+946358439+943954197+943751587+947090977+952034898+955331357
828+955558062+953958349+952075128+949587725+945879985+942814612+943255245
818+947108427+951270526+953731425+955558719+958067076+960298423+960680572
808+959636780+958868758+958991492+958974918+957512543+954796975+952826650
798+953438425+956096240+958646872+960112532+961043008+961339222+960208617
788+958137607+956795484+957259846+959168914+961493498+963553045+964999722
778+965254829+963934903+961663399+959292305+957111776+955381736+954340864
768+953975142+954162201+954289536+954013620+954614297+957540288+961639086
758+964004265+963974037+963711556+964766665+966494880+967559189+967393085
748+966441800+965854265+966301980+966907841+966076735+963133221+959440376
738+957257509+957233415+958496465+960334710+962452668+964315592+965396620
728+965642090+965284692+964812663+965275784+967598689+970651577+970686185
718+965593463+959153289+956582943+957905499+959400438+959499224+959847057
708+961894923+964973730+966572931+963927893+957416386+951152172+948103958
698+947178738+945539307+942003731+938033656+936134080+937389901+939654615
688+938706250+932507749+924116962+919169610+920343365+924624256+926495430
678+923745400+918896030+915512905+914607254+913778849+909819580+903023541
668+898369481+899193577+900730425+898984468+896468298+896443036+898373204
658+899487746+898431323+895617260+891852716+887953317+885175104+885378226
648+889201034+893451187+893471266+889398680+885741611+885916039+889330194
638+891505686+888095546+881566296+879787264+885282068+890920049+889304566
628+881655226+873674334+869331016+869979298+873538457+874894744+872053959
618+869330432+870399998+873272252+874923657+874870212+872683403+867420926
608+859981425+852499868+846832243+845638993+851217762+861799884+870753965
##END=
