##TITLE=<SNM>
##JCAMP-DX=4.24
##DATA TYPE=INFRARED SPECTRUM
##DATE=2/5/2025
##SAMPLING PROCEDURE=Instrument type and / or accessory
##ORIGIN=Admin
##XUNITS=1/CM
##YUNITS=ABSORBANCE
##RESOLUTION=4
##FIRSTX=4497.3318
##LASTX=599.83466
##DELTAX=-1.4281778
##MAXY=1.7118706
##MINY=0.23168264
##XFACTOR=1
##YFACTOR=1.5943037e-09
##NPOINTS=2730
##FIRSTY=0.25157464
##XYDATA=(X++(Y..Y))
4497+157795931+158015200+158882275+159987947+160351582+159651137+158663137
4487+158163735+157960542+157494207+156939605+157045818+158032286+159221665
4477+159788530+159480601+158618666+157820737+157668763+158165641+158496676
4467+157801109+156318502+155310379+155624188+156752226+157592458+157700373
4457+157416351+157201718+157245385+157377694+157198671+156620160+156207297
4447+156487617+157010283+156738309+155502384+154308789+153984297+154341661
4437+154948641+155820315+156887937+157578270+157335653+156110374+154336595
4427+152763579+152016747+152042655+152185002+151850613+151054141+150415457
4417+150547477+151328573+151963443+151867595+151223696+150592125+150246117
4407+150051822+149893969+149843835+149798252+149441645+148741443+148046577
4397+147622826+147471926+147577607+148022117+148866564+149943375+150818441
4387+151169271+151082526+150803533+150405139+149772614+148729975+147274967
4377+145894134+145319016+145715167+146463775+146886929+146867993+146762003
4367+146958738+147496760+147999948+147991723+147354600+146461439+145806800
4357+145564848+145584634+145739982+146037397+146357057+146393705+146044856
4347+145689306+145801893+146319849+146669940+146461186+145901294+145514461
4337+145629441+146097346+146460326+146472112+146332765+146400546+146953280
4327+148081589+149383174+150018614+149512613+148261248+147079457+146548539
4317+146763200+147383910+147941887+148178914+148017556+147501835+147018976
4307+147163211+148071542+149195580+149859826+149834357+149393146+148965469
4297+148710973+148493480+148367545+148741658+149703039+150598723+150807964
4287+150488799+150038578+149404998+148527847+147868003+147863732+148320888
4277+148792260+149089880+149124995+148754864+148124228+147758836+147958131
4267+148391360+148657614+148952590+149664812+150521970+150780401+150237836
4257+149539456+149460787+150176000+151162037+151741221+151807974+151830340
4247+152110071+152439526+152501708+152178394+151571881+151083508+151190151
4237+151846837+152458799+152585584+152274187+151696844+150919523+150059935
4227+149411634+149318075+149817636+150433786+150613547+150398568+150302047
4217+150522054+150804431+151078003+151566526+152227277+152680610+152766598
4207+152774757+153061648+153617924+154046536+153951407+153359867+152641084
4197+151966313+151177113+150336330+149952413+150341798+151072853+151400607
4187+151145886+150838274+151047580+151805366+152684423+153290516+153592183
4177+153795330+154029245+154294657+154630916+155095306+155567183+155772161
4167+155561697+155083231+154658937+154548293+154798761+155193884+155330567
4157+154956240+154335707+154072921+154468848+155263291+156043481+156629366
4147+157004376+157173978+157228655+157299557+157307857+156928146+156062912
4137+155263721+155249860+155945717+156488309+156379927+156107925+156356832
4127+157123862+157859244+158076551+157703625+157125189+156889208+157195269
4117+157750264+158190484+158446074+158621078+158715141+158645453+158485666
4107+158456878+158616591+158825317+159128107+159759052+160576366+160995295
4097+160742117+160213535+159838160+159543708+159105451+158607002+158314718
4087+158371638+158740919+159257163+159690766+159861340+159714020+159389884
4077+159291951+159770062+160550046+160922112+160728807+160584067+160906877
4067+161418130+161768811+161977051+162078105+161928842+161516456+161110593
4057+161023914+161342629+161906298+162525317+163159234+163809451+164357063
4047+164656618+164656300+164290179+163440694+162237688+161287971+161290999
4037+162295318+163511410+164075004+163921011+163701611+163915067+164389028
4027+164665329+164641496+164631532+164896805+165343119+165700473+165867420
4017+166011244+166302294+166632824+166742402+166573922+166349270+166289433
4007+166395796+166509656+166531676+166603494+167012161+167796033+168511153
3997+168599402+167993618+167197745+166778367+166910097+167354448+167780649
3987+168139611+168618918+169163351+169367629+169064839+168678754+168759975
3977+169419913+170268669+170738667+170585272+170070859+169485824+168842673
3967+168374077+168706607+170019771+171604508+172679487+173131371+173167093
3957+172839779+172268652+171930346+172424140+173936647+175808919+176784507
3947+176336660+175570191+175839165+176753738+176613952+174909711+173096677
3937+172777625+174435507+177592026+181020827+182911643+182269090+180381658
3927+179523032+180326457+181259070+180923175+180118759+180469421+181913867
3917+182592030+181122910+178279798+175886140+174984390+175629130+177914181
3907+182479386+189459858+197088771+202384779+203839880+201802567+196734595
3897+189960569+184682263+183761315+186875102+190031322+189878712+188695333
3887+190211821+193538223+195175206+195453620+196796432+197337257+194222555
3878+190389760+190445951+194547364+200000244+204909344+207453779+206018774
3868+203267257+203338627+205429047+204902708+200304510+195372698+194063795
3858+198223362+208413385+222276339+229664711+221985177+207740250+196755419
3848+191576055+191806671+196254951+203132855+210521039+217002819+220989139
3838+220634851+216555701+211871796+208218865+205098031+202515070+201623170
3828+202549222+204274361+207473575+214095067+222157975+225090646+221892254
3818+218246409+215407951+210301359+203495761+199099166+199753702+205223480
3808+212078484+216190085+218508204+222581017+226917382+226788625+223168313
3798+220006074+216963470+212518443+208225314+206325675+206781411+208345361
3788+210423499+212856337+215212534+217802487+222034994+227873641+232209539
3778+232476083+230688639+230898991+235431951+243879711+253147533+259703375
3768+263363708+266203007+269156426+273028177+279626395+289164481+298646432
3758+305597668+312313540+323248292+340582238+361742156+378731291+386639590
3748+391401931+399729364+410477467+416869427+418154683+420974933+430074164
3738+445593543+463132775+476032031+481379837+481828021+481405372+482718742
3728+486925490+493896372+502301756+510385320+516402111+519089829+519363868
3718+520259039+524682439+534441345+549427562+564974195+573833818+575860888
3708+577143041+581371959+588672249+596589894+600803970+599743778+597367673
3698+597852233+601811411+608229653+616892626+627880298+638363184+641274955
3688+633187241+620606327+610859160+606325359+606851792+611649463+619761777
3678+629153740+634722460+632839252+629762234+632395256+637050785+634915072
3668+626335994+619309631+617241699+618340473+620583260+624370275+630575380
3658+637166009+640325351+640766655+644658613+656020519+671965276+682073105
3648+678247545+667069429+658442683+655130657+654359159+652759338+650770701
3638+651499280+655765621+661243119+667011780+675683463+688264153+698199409
3628+697790705+691538195+687574232+687886554+690990789+694509859+696120672
3618+696119551+697603177+701750257+706114849+708490355+709889639+711791614
3608+713118967+712675644+712232096+714341639+718593250+721799324+722662268
3598+723368564+724711470+724301719+721742722+720760591+723777642+728108063
3588+729054826+726300225+723689860+722988423+722744667+722004349+721851889
3578+722828785+723455150+722293418+720523340+721499189+727391897+736222022
3568+742137610+740863794+734973629+729852195+727550563+726540393+724967265
3558+723394809+723833048+726852267+730608215+732662575+732689493+732782435
3548+734318028+736230322+737406037+738316461+738897888+737803899+735187551
3538+733073747+732538529+732800605+732799034+731845243+729488279+726333200
3528+724396455+724910662+726860866+728601932+729852344+731495459+733632443
3518+734796569+733451644+730021329+726920534+726169075+727441022+728970184
3508+730131543+731880161+734276230+735368724+733764191+730517516+727375447
3498+725047570+724005921+725149260+728058564+730635132+731758582+732174838
3488+732614048+733195476+734133266+735253426+735519240+734047727+731203250
3478+728618307+727994185+729254467+730194800+729078828+726831929+725465321
3468+725707582+727125858+729182013+731291631+732768004+733270995+732982301
3458+732364385+731719327+731070829+730773835+731816754+734797765+738510569
3448+740335156+738756345+734873434+730746767+727589669+726110828+727051385
3438+730034115+732420239+731383152+727841650+726123315+729025740+734521781
3428+737843827+736704675+732957925+729432200+727217080+725972051+725206460
3418+724797084+725150531+727028953+730435491+733759182+735029259+734047353
3408+732570531+732463607+733911717+735349881+735132594+732777575+729082716
3398+726107313+726040318+728557816+730670425+730945661+731654275+734636556
3388+737854893+738101192+735757015+734394146+735674093+736955536+734943496
3378+730234055+726435936+726304936+729977288+735032998+737739221+736570834
3368+734143286+733927120+736443347+739367307+740562687+740387122+740548704
3358+741211633+740557752+737645083+734263145+732889060+734456580+738384653
3348+742948961+745353778+743577644+739245503+736409625+736800758+738597080
3338+739884654+740998682+742752909+744372994+744229805+741683818+738059245
3328+736105527+737391905+740519842+742909780+743555212+743202587+742594766
3318+741489037+739616746+737911421+737458751+738270626+740108746+742580260
3308+743905220+742161163+738415459+736375828+738537562+743430717+746703712
3298+745520968+741630356+739123326+739864765+742422566+744360432+744204682
3288+742482309+741225466+741759562+743327681+744222104+743873890+743384283
3278+744009527+745333365+745616303+744403949+743459354+744374340+746721807
3268+748885484+749884065+750390720+751488223+752430949+751191229+747505343
3258+743913071+742908509+744254405+746176345+748025457+750289104+752447922
3248+752582212+749845183+746205955+744247526+744086019+743748273+742197128
3238+740840689+741510048+744053119+746963021+749276991+750573687+750426835
3228+749091107+747516708+746310710+745596039+745546166+746024109+746342414
3218+746234518+746425410+747741547+749797404+751099035+750618849+749091930
3208+748019849+747555216+746606658+745060447+744510798+746069496+748357594
3198+748798824+746860284+744792764+744585570+745241171+744796951+743945447
3188+744672456+746388697+746710516+745382416+744323121+744064036+743242217
3178+741341138+739045937+736293429+732739441+729764562+729183284+730705568
3168+732638499+733863713+733955683+732719552+730735701+729169601+728575089
3158+728658759+729187696+730484915+732791557+735353022+736262399+734114947
3148+730141637+727438480+727632139+729316304+730212222+729762020+728732484
3138+727540543+725890101+723510482+720889125+719085175+718630786+719079492
3128+719896003+720877236+721374544+720476682+718534703+717321827+718179088
3118+720568128+722693149+723070673+721371479+718491934+716152766+715669814
3108+716772851+718104540+718621813+718001504+716465313+714821077+713936823
3098+713743089+713198749+711630630+709713102+708685884+708969494+709898462
3088+710707046+711295726+711882836+712299167+711936223+710570213+709148050
3078+709216242+711112610+713075823+712758566+709622777+705458500+702542018
3068+701618359+701610059+701054354+699750330+698756386+698927240+700073046
3058+701535885+702668083+702376173+699669501+695534460+692573638+692123136
3048+693176225+694190657+694537898+694244643+693788608+693812460+694059058
3038+693572667+692268344+691048962+690305578+689442934+687873694+685691697
3028+683527870+682118866+681637558+681405541+680751959+679980910+679850134
3018+680307963+680458329+679680700+678258537+676937913+676219205+676095382
3008+676099046+675530256+674122373+672676881+672349828+673180396+674216287
2998+674573323+673643160+671238641+668192280+665834569+664433641+663323875
2988+662205958+661228165+660418384+659694516+659141652+658875987+658733247
2978+658340619+657565981+656612713+655471244+653869627+652090652+651005037
2968+650924133+651228829+651393627+651670283+652366710+652942903+652486121
2958+650951799+649196003+647761352+646399156+644784679+643007273+641337988
2948+639963305+638893242+638046076+637335592+636567085+635717451+635387781
2938+636022820+636732855+636186645+634437205+632537771+630985579+629607232
2928+628131831+626236659+623906539+621919137+621001460+620622553+619586437
2918+617702294+615884961+614688646+613901970+613591853+614225134+615505867
2908+616244689+615782523+614647110+613494724+612301288+610869292+609411686
2898+608194772+607012178+605577751+604245015+603678916+603839003+603926673
2888+603417289+602508323+601399978+599891901+598035424+596508841+595793647
2878+595541217+595278244+595107539+595094267+594653038+593408794+592063720
2868+591482517+591336749+590468347+588501395+586398955+585211277+584921947
2858+584880785+584661927+584027187+582665664+580561692+578316139+576685623
2848+575928407+575714559+575452072+574596231+572988259+571128156+569796317
2838+569206478+568877930+568428176+567890117+567088037+565462494+562956847
2828+560556366+559407718+559602761+560218546+560450152+560172636+559402073
2818+558097526+556702430+555938783+555777986+555313241+553837615+551565780
2808+549220705+547307327+545913464+544985133+544471449+544125628+543508797
2798+542397385+540962623+539480156+538045355+536601097+535191756+534081616
2788+533386536+532663790+531320398+529441639+527751194+526756053+526315235
2778+525985229+525462124+524718292+523979582+523589945+523633911+523635743
2768+522919389+521294407+519080034+516637868+514316720+512579729+511700560
2758+511472206+511427492+511200485+510666500+509872421+508836867+507543086
2748+506241455+505378175+504939936+504258726+502755996+500611684+498549509
2738+497176284+496561434+496300853+495906468+495125774+493986547+492725929
2728+491673513+491005088+490578065+490094702+489383470+488492487+487616010
2718+486915845+486279983+485324584+483798637+481908887+480081720+478524593
2708+477188717+476012254+474986120+474062499+473249017+472750325+472723332
2698+472889887+472701050+471933329+470843788+469714918+468538231+467224823
2688+465913584+464907040+464302808+463890515+463538002+463358998+463255700
2678+462730203+461498670+459883333+458333945+457003116+455908416+455066633
2668+454405499+453824744+453291844+452784441+452303097+451903889+451510177
2658+450862315+449893157+448911924+448184617+447585693+446856666+445960000
2648+445040678+444269143+443726411+443239308+442514805+441651600+441127859
2638+441011551+440686891+439680909+438266073+436983845+436045942+435362825
2628+434763939+434106319+433370188+432611103+431801920+430926153+430170545
2618+429761430+429667778+429629345+429388803+428857212+428185423+427626988
2608+427209012+426670392+425825169+424798699+423867376+423235291+422899752
2598+422604888+422088513+421420537+420850588+420369205+419744971+418922741
2588+418054414+417214612+416403261+415753903+415435262+415364453+415244108
2578+414899708+414416830+413924942+413392528+412683578+411740628+410684249
2568+409760104+409191874+409040797+409153853+409249075+409088203+408599269
2558+407853418+406985315+406150186+405448825+404853714+404309300+403869603
2548+403575225+403267725+402773370+402248321+402057391+402248882+402405492
2538+402136612+401515369+400886087+400429230+400073091+399692651+399267909
2528+398893114+398669995+398625767+398753066+398992711+399119262+398846643
2518+398115186+397124195+396168534+395574770+395519551+395725735+395638064
2508+395042991+394252128+393664756+393401895+393305028+393116640+392727826
2498+392278558+391902679+391489938+390917595+390368283+390135592+390209691
2488+390317662+390294632+390164230+389928324+389500367+388860767+388216718
2478+387928883+388105943+388307454+387954194+387056556+386226437+385988699
2468+386349848+386961221+387441407+387572445+387379720+387060743+386787040
2458+386566874+386276871+385774178+385018607+384192638+383659813+383637082
2448+383929516+384117791+383953480+383500474+383017933+382735930+382606724
2438+382326890+381739743+381091133+380759967+380864574+381197758+381445290
2428+381429999+381174915+380794138+380445364+380349843+380618611+381013407
2418+381114873+380818402+380481217+380462412+380652707+380629939+380215777
2408+379675699+379375676+379402108+379539800+379547801+379433400+379396874
2398+379490787+379502527+379271519+378947681+378803334+378883377+378934409
2388+378669305+378052510+377270732+376466297+375606269+374582790+373371371
2378+372172701+371433655+371529812+372334545+373339855+374313499+375549480
2368+377305015+379229123+380560102+380859526+380496434+380367975+381071842
2358+382313206+383272457+383740604+384680488+387214063+391207337+395504559
2348+399182557+402056381+404366051+406143158+406846276+405917608+403541578
2338+400408631+396910796+393064113+389081270+385474156+382599172+380419269
2328+378589897+376573632+374006148+371216405+369043941+367958102+367674941
2318+367624619+367428417+367027565+366682268+366745413+367258199+367906921
2308+368410772+368732666+368919110+369001209+369079047+369279511+369580730
2298+369829347+369957394+370076244+370325945+370685710+370978630+371075235
2288+371044055+371052505+371179617+371393353+371636212+371857612+372020353
2278+372116959+372146905+372099051+371982182+371823180+371639689+371485210
2268+371468162+371611762+371747510+371702460+371576133+371649372+371980724
2258+372285158+372309833+372167953+372164888+372401354+372685263+372822283
2248+372884830+373098042+373508765+373900720+374056320+374011682+374012242
2238+374223922+374548806+374818098+375067088+375424760+375882365+376407003
2228+377072137+377861767+378598870+379215253+379828495+380503724+381203066
2218+381980546+382989108+384254886+385598202+386853811+388109420+389632564
2208+391549456+393677655+395746932+397736167+399843728+402120386+404352854
2198+406392560+408385047+410583344+413087047+415779625+418417095+420799481
2188+422883788+424727255+426415906+428054609+429700154+431304200+432740159
2178+433826896+434436811+434699298+434945635+435362115+435800316+435920886
2168+435485638+434563400+433449559+432383647+431357662+430111213+428368240
2158+426182542+423850852+421450670+418789086+415759362+412478403+409182939
2148+405966920+402591525+399157620+396925040+397336922+400261180+404245631
2138+408198640+411857795+415233789+418496914+421845205+425136519+428092705
2128+430686060+433061118+435419016+437958722+440667637+443350121+445841860
2118+448034363+449991744+452040983+454383142+456830018+459111985+461084957
2108+462701864+464132514+465695249+467559278+469776231+472441554+475552369
2098+478858637+481953413+484493643+486368513+487542696+487830979+487071333
2088+485234073+482191973+477826522+472309806+465924313+458984686+452072275
2078+445827766+440553909+436261024+432774031+429771150+427051056+424630649
2068+422532584+420763329+419312228+417984053+416576283+415151203+413819663
2058+412584879+411505133+410588204+409705446+408883515+408250420+407686826
2048+407033132+406408898+405978099+405721818+405519372+405212919+404754567
2038+404367846+404380782+405032868+406489277+408777077+411792146+415472050
2028+419650833+423856908+427677122+431058238+433997264+436361106+438012296
2018+438705358+438151597+436492219+434287903+431939912+429449518+426598312
2008+423184035+419310658+415478780+412161332+409365271+406780552+404229854
1998+401883770+400193624+399538285+399624085+399391844+398030320+395880326
1988+393786597+392110284+390864358+390117722+389805960+389637050+389418940
1978+389156266+388855495+388466120+387930080+387327193+387047920+387447613
1968+388146993+388213129+387346522+386263898+385633719+385353922+385090949
1958+384876989+384867979+384978268+385004401+384852314+384592930+384442900
1948+384688115+385606353+387249916+388901181+389123404+387311341+384691106
1938+382819824+382005557+381705497+381570347+381620257+381869734+382193048
1928+382614575+383540103+385151477+386675443+387282367+387481896+388044369
1918+388144713+386542984+384003241+382420691+382462451+383318067+383871567
1908+383613080+382809767+382063505+381695515+381586086+381528736+381607994
1898+382125903+383015914+383663066+383921403+384664487+386230400+387202959
1888+386228082+384132335+382570011+381969031+381822104+381755781+381721760
1878+381784718+381964657+382237649+383073899+385672638+390571663+395689508
1868+397172536+393944366+389080970+385677797+384363604+384210247+384187591
1858+383790327+383132521+382677047+382725312+383328872+384579583+386739261
1848+390271004+395333817+400203568+401232992+397414647+392406867+389494235
1838+388751114+388699820+388860505+390536819+394934834+400617132+403957123
1828+403630519+401844440+399979925+397439846+394468705+392530390+392163147
1818+392592189+393155895+394160046+396162328+398745963+400440035+400263685
1808+398942464+398082885+398912705+401815429+405961125+409353905+410405274
1798+409791994+409960830+412918960+418219884+421970598+420224522+414857761
1788+410940792+410626413+412702009+415406774+418061666+420106569+420872159
1778+421197978+423437587+429263934+437647372+444182632+444792473+440763046
1768+435772613+432098130+431401815+434403762+438978276+441599147+442031180
1758+442577501+443764582+445336738+448934580+456160585+465049967+470704039
1748+471044588+468841880+467483646+468494601+471708265+475513786+477986833
1738+480009453+485224390+494746904+502702758+502484536+497460642+493225705
1728+491216170+491676466+494698564+499437277+505647167+515202881+529720464
1718+546012425+555401845+554039275+547989397+543607421+543552912+548557178
1708+558067094+569552037+579579038+588179240+599063203+613171821+624852442
1698+629812930+630321903+627663683+623377079+622080345+626281149+634578299
1688+645514902+660557310+679416232+692423496+691434038+684575126+681122753
1678+683724969+691559804+701447505+710149546+718086445+726399074+732032621
1668+731844644+729921284+732127432+738817433+745342861+748018204+749052600
1658+753250151+764097251+782861661+803633773+810163389+803520195+800460449
1648+803970397+805886953+799899435+791216909+786412509+786743001+791962162
1638+801677588+811494704+811684850+800812925+789721245+784673088+784083585
1628+784045526+782972024+781697535+779520100+774704932+769383707+767623649
1618+769058898+767762201+759863062+749875391+742889293+739551844+737968846
1608+736014530+733150837+730382254+728488129+726990745+724903708+722136621
1598+719727541+718542255+718214156+717772627+716865792+715740324+714505464
1588+713053467+711409754+709815465+708613131+708373786+710262751+715631157
1578+723955001+730147843+728245793+722121143+720081587+723447524+726872007
1568+725863033+722777641+721520499+723798653+731823260+748415617+769081404
1558+775010151+762379888+748264278+739737353+736072553+735258136+735439458
1548+736839489+742128487+753311165+769344228+786604972+797965831+794231642
1538+780380501+770983230+770289645+773489139+774312080+773082379+774758768
1528+780709049+788063699+795128981+803670935+813191281+818220596+816744522
1518+813111724+809428081+805232025+802334386+803749147+810818092+823305093
1508+837772280+842735870+830869104+815459789+807849569+808453577+813969957
1498+819749385+820904163+817180218+814427113+817647244+826037112+832906791
1488+831793959+824523503+817595577+814566563+814747810+815887485+817572996
1478+821581224+829001598+838477903+846283952+847283952+840450090+832430792
1468+829938940+833761061+838968258+840198258+839341221+842691381+852909724
1458+865322625+868898746+860791740+850597997+844290231+842086625+842352738
1448+842652350+841146367+838341220+836034579+835435804+837309666+842165210
1438+848722416+852797192+851503935+848047973+846503333+846964975+847461686
1428+847579601+848698415+851087530+853490478+855839889+859582677+863892909
1418+864566979+860287403+854771995+850788741+848275355+846504006+845668354
1408+846561879+848949125+850727802+850176881+848780739+849258307+851986588
1398+855271024+857750987+858651018+857356265+855053138+854317381+855722572
1388+856614826+854292183+850365083+849074742+851978064+857102788+862329875
1378+867818066+874338110+880491248+883426050+882777403+881447433+881691937
1368+883374158+885952596+889538811+893195985+894275693+891404298+886584494
1358+882617839+880508222+879642437+878965825+877794446+876092486+874406601
1348+873350895+872917965+872780834+873374822+875615291+879134735+881805366
1338+881815087+879582843+876847309+874823455+873759300+873513525+874105868
1328+875558614+877262070+878253920+878634958+879788915+882384700+885042022
1318+886029611+885553164+885076044+885213774+885533274+885860103+886668912
1308+888137733+889602666+890351882+890601022+891194637+892455742+893692321
1298+893870578+892585920+890259538+887499404+884547705+881366978+877939654
1288+874377066+870898448+867638015+864428875+861053966+857694160+854777977
1278+852416901+850386542+848708060+847785000+847713667+847905009+847886241
1268+847996679+848562554+849002737+848719052+848287169+848746792+850179424
1258+851732513+852727878+853298613+854095010+855598226+857688702+859782991
1248+861293311+862056284+862481812+863211138+864535350+866204187+867827861
1238+869334741+870910786+872624635+874459615+876742255+879896213+883480259
1228+886248693+887639751+888420371+889491929+890936823+892452676+893967108
1218+895684023+897943858+900870808+903875372+906075015+907598719+909629227
1208+912639399+915504363+916906189+916886972+916812350+918414639+922580562
1198+928320809+933243424+935680169+936066217+936054777+936878540+938694229
1188+941123870+944064803+947541552+950974110+953369207+954231852+954134574
1178+954472020+956388202+959662693+962930080+965285323+966997901+968484892
1168+969565273+970078284+970613427+972043218+974550398+977576944+980727538
1158+984108952+987411108+989546672+989693374+988166904+986199129+985288032
1148+986490216+989613668+993352343+996598943+999391154+1002257016+1005166993
1138+1007667892+1009261359+1009352805+1007826783+1005644188+1004017448
1130+1003448134+1004094912+1006242962+1009746180+1013702293+1017261739
1121+1020278341+1022484564+1022747687+1020559409+1017683827+1016668947
1113+1018252543+1021537577+1025687797+1030014405+1033552466+1035657523
1104+1036065928+1034990482+1034065627+1035250987+1037964688+1039537667
1095+1038993925+1037983979+1038092997+1039555089+1041920651+1044108106
1087+1044786437+1043913026+1043333842+1044710992+1047391270+1049728493
1078+1051357925+1053079476+1055119406+1056348284+1055559887+1053140938
1070+1050884394+1050335193+1051934866+1055492892+1060372513+1065164801
1061+1068425010+1069590406+1068731276+1066951478+1066769034+1069711686
1053+1073445202+1073741823+1069488941+1063629208+1059727754+1059234633
1044+1061338044+1064145658+1066467404+1068497015+1070157103+1069904748
1035+1066915438+1063367057+1061719905+1061076342+1059497606+1058060338
1027+1058622026+1059934274+1059897038+1059324957+1060146552+1062053911
1018+1062973682+1061639525+1058975921+1057379988+1058354417+1060433677
1010+1060398833+1057155447+1053658734+1053907800+1058210555+1062445567
1001+1062608047+1058807984+1053467916+1047768196+1041851038+1036947714
993+1035112734+1036921469+1040209568+1041935156+1041236636+1039344830
984+1037209790+1035028915+1033158717+1032061513+1031758312+1031534594
975+1030371890+1028147721+1025688993+1023141062+1019577653+1014906870
967+1010449635+1007114654+1004800162+1003305320+1002014755+999334103+994216707
957+987749227+981970772+977777782+974825858+972795873+971528936+970139522
947+967623893+964628152+963017114+963363533+964180866+963908771+962628674
937+961421704+960888056+960837510+960978231+961522572+963137647+966108563
927+969253848+970237548+967902867+963902938+960961856+960055769+960163441
917+959964697+958840649+956762810+954226169+952154013+951131655+950948389
907+951272152+952210466+953804455+955619321+957024886+957382221+956422747
897+954981666+954377807+954679437+954700074+953852683+952581036+950892086
887+948165449+944610414+941534443+939924079+939639646+940061809+940789789
877+941497880+941686829+940982252+939536834+937998550+937032196+937044609
867+938195948+940196024+942143387+942722870+941281340+938744775+936956976
857+937219575+939066518+940455409+939806911+937726679+936251502+936730192
847+938525468+939709408+939551938+939526965+940656994+941612206+940819623
837+938739690+937148392+937294422+938783955+939872037+939710530+939772591
827+941544014+944243732+946354995+947524803+947573180+946230948+944574898
817+944198869+945411148+947664103+950720409+954335935+957648559+959810293
807+960737839+960673685+959588818+957563319+955008584+952225644+949297498
797+946335554+943749041+942366357+943066148+945592246+947957733+948462145
787+947991605+948568919+950573407+952994525+955217048+956832722+956697534
777+953917361+949156179+944400828+941877871+942716215+945546036+947196703
767+946388792+945416232+946609893+949390364+952190427+954490638+955345805
757+952940240+947496763+942261078+940367925+942309979+946489136+950770132
747+953487871+954359413+954660819+955708375+957625754+959823079+961567883
737+962205464+961882748+961542984+961466193+960810443+959015391+956908167
727+955857396+956156633+956891343+957206283+956939870+956286736+956088291
717+957530120+960390449+962655667+962270441+958891569+953950934+949650721
707+947739623+948352379+949812079+949645038+946343256+940929912+936333302
697+934449945+934624089+935084012+934342498+931313783+926182554+920978048
687+917252757+914328050+911598647+910619134+912900278+917062238+919478271
677+917601718+912030829+905049890+898407444+892465686+886361449+880068712
667+876976366+879021231+883369373+886319054+885892479+883405188+882140345
657+883729848+887316736+891310833+893941536+893209294+888601843+881808283
647+875019283+869330778+865025705+862276189+861066004+861313051+862568323
637+862912200+860263625+855799138+852737000+851175163+848925647+846723013
627+847199983+849469987+848659458+842849000+837179338+837373670+843107039
617+850110185+855428793+858827180+861396048+862687285+859987268+852451521
607+843144425+835361855+829540256+825094985+822891529+824321169
##END=
