##TITLE=<SNM>
##JCAMP-DX=4.24
##DATA TYPE=INFRARED SPECTRUM
##DATE=3/5/2025
##SAMPLING PROCEDURE=Instrument type and / or accessory
##ORIGIN=Admin
##XUNITS=1/CM
##YUNITS=ABSORBANCE
##RESOLUTION=4
##FIRSTX=4497.3318
##LASTX=599.83466
##DELTAX=-1.4281778
##MAXY=1.7287782
##MINY=0.1842974
##XFACTOR=1
##YFACTOR=1.6100502e-09
##NPOINTS=2730
##FIRSTY=0.20308764
##XYDATA=(X++(Y..Y))
4497+126137460+126416436+126923226+127361344+128009061+129064678+130101730
4487+130250718+129069426+127392866+126759429+127666854+128961493+129235074
4477+128296635+127067115+126550126+127154613+128559128+129823994+129983727
4467+129024891+128029071+127923081+128475092+128874838+128755327+128240013
4457+127491822+126613699+125784406+125249323+125121973+125216995+125211701
4447+125047478+124976205+125067571+124945876+124358474+123779401+123899736
4437+124630000+125187536+125124018+124729834+124482742+124535949+124719746
4427+124793204+124634933+124236769+123636040+122941362+122216207+121345155
4417+120418942+120000039+120427614+121223108+121712129+121757145+121516420
4407+121081320+120660250+120649191+121146670+121605260+121328116+120337775
4397+119408333+119119074+119227090+119096270+118491051+117838234+117791348
4387+118505277+119356745+119498681+118632682+117191701+115921098+115310206
4377+115368023+115865873+116528620+116950301+116785903+116163951+115546239
4367+115213583+115139626+115134156+114955995+114595954+114466864+114922362
4357+115639799+115935795+115718161+115648119+116214262+117126842+117859262
4347+118245375+118184014+117437868+116253892+115558428+115965254+116993439
4337+117622507+117373888+116644078+116133308+116132243+116302361+116094612
4327+115470773+115093785+115492032+116232097+116505909+116341214+116391432
4317+116726541+116839277+116642245+116483326+116399281+116207460+116066893
4307+116209486+116383066+116179361+115747472+115696606+116327035+117260559
4297+117821557+117694355+117259014+117247047+117952831+118894453+119411887
4287+119388184+119151680+118934056+118767825+118674922+118646963+118614089
4277+118593302+118666334+118715608+118435475+117744601+116987886+116598117
4267+116689992+117080131+117539647+117897513+118092083+118288670+118687148
4257+119112050+119218141+119102322+119151661+119420096+119742247+120141179
4247+120575622+120749766+120657335+120763935+121300138+121835989+121769094
4237+120993462+120023241+119463280+119355394+119266387+119062572+119132031
4227+119706412+120454806+120888416+120856070+120610291+120533141+120696975
4217+120732440+120443718+120303272+120822705+121645140+121897147+121372013
4207+120766147+120749645+121320731+122114466+122863036+123402747+123628025
4197+123667035+123825991+124182877+124473589+124490729+124334059+124215770
4187+124278158+124524954+124698506+124431173+123738901+123106565+122973144
4177+123416037+124280268+125262705+126008397+126421619+126678855+126823382
4167+126727250+126467246+126256915+126003011+125414211+124616247+124220943
4157+124548323+125033040+124796758+123817486+123046278+123215405+124058266
4147+124886986+125386899+125602858+125632030+125556268+125422606+125282169
4137+125348259+125810699+126385579+126507386+126087621+125601988+125405456
4127+125466734+125698741+126045649+126344820+126503896+126654505+126873739
4117+127021182+127044024+127141813+127488546+127992346+128383133+128412916
4107+127971671+127180453+126447265+126220311+126529413+126951519+127134677
4097+127123136+127146135+127368433+127815815+128246325+128202048+127545316
4087+126798504+126583694+126890620+127242157+127364203+127290348+127057851
4077+126748675+126544933+126407745+126130703+125878891+126060041+126600742
4067+126982153+126959395+126690322+126331567+126014811+125949794+126138709
4057+126249502+126086547+125961567+126263209+126831203+127190939+127317030
4047+127646308+128340616+128996922+129144624+128764295+128240864+127870512
4037+127508740+126916174+126344154+126367162+127156667+128199947+128738899
4027+128452417+127814723+127659006+128206056+128773004+128658537+128013689
4017+127531878+127468194+127387684+126939700+126466330+126518103+127056175
4007+127539097+127658645+127648631+127907912+128512473+129090805+129160219
3997+128623201+127881156+127403778+127332625+127661097+128519044+129860940
3987+131080280+131467615+130969478+130082461+129224458+128655427+128725553
3977+129620391+130908635+131755041+131679825+130920083+130045246+129484147
3967+129495429+130221528+131449993+132557031+133049624+133035094+132924144
3957+132899488+132896591+132938406+133258762+133979687+134699067+134739419
3947+134050794+133417255+133432646+133781582+133815613+133454877+133157150
3937+133334320+134126491+135391236+136582219+136917484+136193394+135269245
3927+135191743+136008671+136798917+136924583+136859982+137423812+138606242
3917+139438571+138988440+137408346+135750760+134910388+135055767+136035604
3907+138004217+141144442+144789689+147511148+148422691+147548872+145194201
3897+142210156+140105160+139978707+141550555+143172889+143416835+142963382
3887+143357167+144516340+145183234+145479878+146360777+147022591+146103902
3878+144635425+144563485+146045734+148093590+150075938+151145363+150288157
3868+148539139+148027592+148771164+148895340+147680017+146449895+146537457
3858+148578853+153155912+159864113+164386224+161901639+155522512+150381245
3848+148131674+148236331+149580753+151575790+154361933+157806058+160564501
3838+160934371+159133164+157070167+155815936+155104423+154509857+154098432
3828+153996885+154305607+155683847+158731345+162190306+163449350+162648266
3818+162160967+161869413+159916645+156791885+154843911+155457634+158450342
3808+162137219+164587319+166272282+168918516+171796664+172424197+171214371
3798+170518148+170573660+170281699+169717712+169985998+171645918+174448230
3788+177978362+181910313+185950512+190235619+195499897+202013315+208804034
3778+214999115+221202358+228445114+236990803+246246949+254758504+261136687
3768+265801013+270209324+275051291+280893178+288843709+299170354+310300767
3758+320580508+330628723+342416377+357107724+374050908+390724214+405080711
3748+418068491+431463717+444873419+455399049+462495260+469715120+479842818
3738+493019809+507353168+520235959+530352588+538406590+545343281+550813928
3728+553732355+553543699+551126158+548232683+545454675+542021148+537822779
3718+534003425+531753401+531778168+534063583+537113543+538779459+538704160
3708+538073814+538036683+539312960+541705771+544004143+545607977+547324426
3698+549666889+552539114+556221049+561375320+568405968+576338396+582139709
3688+583742543+582903106+582020799+581779945+582073887+582868047+584396285
3678+586436477+586826820+583396846+578981687+577849530+579439777+579779735
3668+577573913+575017879+573418229+572293810+571016644+569958565+569980111
3658+571121597+572533554+574200136+577293632+582032720+586300650+586799277
3648+583210671+578660313+575703052+575121314+575955642+576301412+575763655
3638+576236664+579397203+584949073+591806874+599441213+606758066+610504490
3628+608372672+603323539+599788797+599945171+604274147+611857140+619947089
3618+625463197+627849160+628501458+628694705+629534475+632112129+636623874
3608+641802135+645501136+646535855+646126335+646695931+648727534+649985708
3598+649275510+648557611+650124831+653820278+658014833+661794834+664971552
3588+667263408+668291908+667659378+665252832+662043093+659813801+659626626
3578+660780698+661439513+660330013+658218149+657677578+660435002+664675907
3568+666046179+662703758+657670618+654366328+653354487+653624736+653883138
3558+653319688+652510275+652710629+653857150+654448958+653887655+653411795
3548+653953403+654525294+653890987+652600383+651697752+650743145+648602998
3538+645427465+642886980+642486049+644088290+646016385+646226735+643763844
3528+639791781+636976826+637117504+639485326+641698848+641866698+639722775
3518+636438995+633798036+632785899+632835062+632672395+631755252+630359584
3508+628799546+627664058+627966440+629967539+632436797+633967737+634183418
3498+633114122+630730899+627649546+625216716+624429811+625286684+627087651
3488+628945925+630435180+631643673+631996773+630351810+627348496+625717823
3478+626950823+629392835+630499966+629848407+628913347+628797029+629145983
3468+628876179+627683753+626463043+626185464+626833987+627412393+626846056
3458+624843772+621953593+619125866+617439922+617534324+618696356+618996887
3448+617042101+613566444+610789102+610239831+611503151+612907852+613276278
3438+612648191+611532434+610463767+610095007+610552912+610870732+610000346
3428+608046745+605908411+604209473+603044590+602368931+602116786+601990546
3418+601576696+600789643+600085886+600181028+601519055+603901204+606451204
3408+607840319+607000216+604325310+601888296+601630301+603210515+604147464
3398+602520604+599101292+596166799+594883303+594759248+595050635+595430649
3388+595559295+595092986+594013880+592603885+591410348+591042070+591482834
3378+592145425+592814198+593574041+593889306+593185401+592247897+592474684
3368+593809305+594650556+593742742+591262045+588230521+585795507+584967435
3358+586150569+588547601+590473992+590746314+589694640+588643483+588546749
3348+589251839+590085353+590882068+591695035+591854704+590769859+589222149
3338+588309597+587882493+587308344+586682848+586240418+585747825+585056802
3328+584253720+583389368+582792452+582979701+583939047+584999458+585335196
3318+584560470+583243249+582499806+582710600+583270089+583631963+583752168
3308+583581948+582927021+581790237+580576191+579956877+580281027+581229230
3298+582603426+584682712+586816047+587108693+585048510+582852869+582794599
3288+584671161+586396495+586151347+584156282+582590247+583294448+585694182
3278+587654188+588083217+587583664+586844701+585825715+584498572+583201416
3268+581977301+580453024+578862000+578254681+578817353+578944000+577390144
3258+575378236+574788390+575387565+575701164+575610316+576087398+577081320
3248+577504130+576974406+576146815+575476895+574751629+573869878+573344041
3238+573807758+575320854+577109456+577913094+577071325+575432433+574462093
3228+574262590+573360218+570810404+567564088+565241134+564412989+564600016
3218+565382330+566630398+567611955+567066460+564918687+562879790+562511179
3208+563450237+564013687+563136453+561329600+559755531+558810882+558126709
3198+557585545+557296379+556773318+555458836+553862999+552945857+552748094
3188+552564991+551916802+550590658+548472094+546048038+544367202+543893156
3178+543830962+543176553+542060759+541309098+540970843+540093164+538177101
3168+536364695+536393534+538271873+539778935+538961118+536415043+534129257
3158+532941015+532223819+531392046+530553460+529827713+528918826+527563289
3148+526016874+524795720+523932627+522842230+521307513+520105684+519910365
3138+520100131+519553674+518206243+516978389+516582530+516953474+517336561
3128+516676858+514560885+511894197+510031777+509348862+509244354+509234877
3118+509189416+508692898+507357278+505851771+505442214+506274543+507066261
3108+506733040+505491451+504115812+502955371+501971703+501066814+500200945
3098+499647824+499878313+500618609+500591362+499084337+497074205+495752689
3088+494938019+493992334+493216276+493203541+493673996+493842846+493329892
3078+492236273+490952074+490143290+490340867+491304730+492142278+492158271
3068+491293549+489790004+487999070+486551870+485921710+485675524+484823315
3058+482996101+480849920+479375436+479077496+479607294+480043616+479773590
3048+479023076+478280817+477537337+476487810+475258031+474422592+474220313
3038+474106734+473446587+472507973+472197224+472723098+473093339+472260973
3028+470365864+468448764+467283363+466847300+466682485+466417272+465885326
3018+464935865+463565001+462340145+462073672+462743000+463277352+462712125
3008+461081860+459090460+457432170+456371833+455606400+454706509+453782777
2998+453297069+453218216+452929642+452066809+450954865+450078038+449543908
2988+449250410+449197397+449300055+449162450+448458027+447414237+446545221
2978+445948231+445156476+443781318+442143056+441036110+440870518+441247533
2968+441432709+441080979+440365523+439469408+438261026+436724496+435349893
2958+434605525+434280153+433786671+432894258+431793236+430722162+429866770
2948+429325606+428994200+428717769+428489983+428212330+427520938+426284198
2938+424992965+424207800+423867102+423518888+423010636+422588640+422435080
2928+422412609+422224730+421651729+420674984+419548898+418751628+418608359
2918+418850509+418775358+417989601+416762005+415577539+414668615+413994696
2908+413388710+412731968+412078263+411506743+410938591+410314317+409753310
2898+409268565+408551555+407359166+405957353+404881985+404336712+404043955
2888+403654834+403108377+402534487+402000172+401514687+401126566+400831809
2878+400553601+400369906+400462642+400631677+400292238+399265293+398083936
2868+397198742+396453522+395608051+394752177+393958720+393078190+392136948
2858+391530406+391531739+391814796+391759192+391208810+390597789+390256424
2848+390001909+389529085+388800858+387953535+387166297+386642163+386424446
2838+386272848+385947106+385499974+385120034+384800400+384294591+383390516
2828+382208789+381192432+380693102+380574340+380360992+379759300+378889210
2818+378070320+377536523+377303332+377196195+376968890+376394593+375396302
2808+374223460+373323643+372846117+372451221+371733322+370637927+369437689
2798+368476493+367884130+367436183+366822164+366076907+365570024+365527450
2788+365668979+365418944+364494693+363152039+361834521+360821088+360206699
2778+359906574+359636104+359099753+358210264+357098728+356012884+355126690
2768+354360850+353557582+352788114+352226774+351839578+351455418+351012691
2758+350576073+350197836+349778136+349063162+347920232+346565953+345344170
2748+344382825+343632756+343097367+342822676+342718760+342544246+342090450
2738+341330015+340396361+339470963+338647778+337874312+337108361+336469093
2728+336031253+335597078+334953220+334211554+333612046+333133262+332555744
2718+331804453+331000556+330194549+329260895+328159724+327123376+326426135
2708+326120124+326072516+326056005+325813855+325299605+324789131+324537467
2698+324446804+324209799+323614512+322655796+321536744+320554520+319830438
2688+319215160+318571450+318027399+317781472+317738492+317516740+316827161
2678+315766935+314727477+314022536+313612387+313227375+312710201+312113914
2668+311526586+310986570+310540271+310238610+310063300+309893340+309551975
2658+308956262+308238752+307609831+307089917+306528152+305893141+305342056
2648+304941403+304538677+304023557+303509011+303148970+302990726+303046331
2638+303237023+303272599+302868966+302065661+301144058+300328000+299674498
2628+299148568+298750710+298553984+298546783+298534604+298339951+297973986
2618+297519357+297052438+296716663+296601530+296521880+296180349+295564756
2608+294945017+294484724+294106746+293730804+293398898+293154323+292988749
2598+292891034+292809478+292636297+292336210+292014744+291800859+291708178
2588+291613998+291361260+290939506+290554327+290423349+290497427+290474919
2578+290131333+289557517+289006284+288607315+288347784+288206329+288144653
2568+288082089+288021135+288076462+288282832+288537810+288819090+289254690
2558+289848941+290328744+290434900+290221514+289897975+289515388+288986274
2548+288320852+287689543+287271250+287085093+286964259+286709244+286284658
2538+285834453+285498660+285275094+285105966+285004549+284973322+284908703
2528+284772357+284725101+284879605+285079737+285120423+285020338+284918014
2518+284841067+284699187+284446874+284174515+284006536+283955688+283937493
2508+283870171+283720979+283533582+283401863+283316402+283121749+282733257
2498+282275778+281921419+281697020+281490521+281177513+280728641+280225331
2488+279797635+279525387+279337268+279045363+278584866+278134365+277851900
2478+277641199+277351551+277046652+276887501+276854812+276748341+276441239
2468+276028147+275681600+275440153+275208979+274913409+274572747+274250281
2458+273995137+273828527+273738956+273666581+273520240+273253786+272914457
2448+272605707+272431249+272432674+272512768+272491481+272312728+272092420
2438+271917721+271746057+271539558+271328079+271099682+270805685+270516704
2428+270393333+270435962+270436369+270268556+270073885+270055004+270197977
2418+270310445+270284179+270199606+270158291+270145408+270135357+270203937
2408+270423079+270747674+271063106+271248300+271219554+271039431+270904048
2398+270910471+270951360+270927370+270913451+271002466+271111454+271070436
2388+270812867+270304577+269310617+267427835+264392443+260235704+255155936
2378+249383462+243141570+236611603+229972926+223537232+217687941+212586535
2368+208144294+204403609+201674319+200179567+199903284+200884471+203394841
2358+207805188+214365678+223115570+233989099+246403489+258363436+266909458
2348+269933670+267680111+262993943+259212684+257102393+255189995+252392496
2338+248826491+244989737+241138861+237400044+234198560+232178174+231498943
2328+231595029+231816078+231987167+232340379+233233495+234946390+237464534
2318+240330687+242875338+244782793+246369782+248180189+250409482+252826763
2308+255084802+256971582+258481976+259742408+260853537+261825784+262650228
2298+263347951+263961989+264576916+265288725+266080757+266799359+267326566
2288+267706414+268027713+268276675+268404081+268433068+268383720+268195508
2278+267845036+267451399+267152737+266942536+266714027+266449924+266285072
2268+266313652+266398669+266326572+266129457+266053436+266188246+266327812
2258+266260472+266026170+265797662+265651173+265559955+265487672+265393067
2248+265253889+265134128+265126076+265230344+265378314+265524952+265651784
2238+265745056+265837126+266027596+266393820+266871975+267311536+267692679
2228+268168854+268813711+269485464+270058466+270644368+271442787+272454331
2218+273494770+274488267+275580460+276901513+278387011+279917507+281466439
2208+283048819+284675345+286395200+288279444+290332205+292453046+294514581
2198+296470348+298344523+300146766+301887816+303645117+305511147+307482555
2188+309423200+311151643+312613726+313900665+315026306+315874331+316463584
2178+317014225+317652864+318255259+318623019+318673811+318434956+317932960
2168+317161196+316156797+315042706+313965561+312980746+311963019+310735683
2158+309326743+307907697+306547995+305271829+304143707+303141566+302264294
2148+301656772+301395815+301772071+303894523+308894512+316410275+324920405
2138+333427056+341824829+350116835+358260575+366341565+374414966+382492773
2128+390643472+398910786+407274241+415560769+423307687+430023366+435487646
2118+439593352+442310240+443926512+444986405+446153213+448348483+452666835
2108+459878254+470129711+483143516+498246122+513720967+526754690+535155795
2098+538671101+538020542+534013717+527687307+519739257+510207402+499217832
2088+486939066+473091747+457538641+440636660+422884285+405153160+388608574
2078+373799947+360677153+349331300+339879890+332198091+326191129+321652692
2068+318011702+314796631+311865359+309090294+306501256+304392003+302831039
2058+301645517+300824868+300335015+300014085+299969791+300454221+301508598
2048+303271119+306171053+310651572+317229314+326583434+339198827+355292986
2038+374948059+397660386+422036000+446322655+468782799+487715531+501935497
2028+511072975+515397027+515836089+513573256+509332943+503564430+496792591
2018+489297893+481039612+472004200+462292277+452078581+441555247+430708650
2008+419372311+407615236+395829766+384461886+373778253+363809261+354499935
1998+345929906+338326146+331882973+326540787+321872593+317372138+312958274
1988+308950764+305605049+302916297+300718990+298825454+297188580+295883002
1978+294854872+293896915+292893570+291876250+290942764+290267420+289952062
1968+289774123+289344928+288582197+287798402+287312898+287169537+287225586
1958+287337017+287384051+287272417+287038892+286838316+286750763+286719184
1948+286718129+286874244+287303588+287788166+287808027+287160615+286295856
1938+285724873+285482649+285358926+285281869+285305784+285444332+285621679
1928+285774295+286015001+286519496+287195100+287799013+288382750+289086266
1918+289581932+289398478+288730538+288258287+288355410+288846596+289278587
1908+289328102+289081176+288892150+288958583+289162214+289332026+289522440
1898+289929535+290545720+291085107+291446111+291952272+292731550+293231103
1888+292920040+292107350+291458735+291222304+291260195+291349617+291310746
1878+291140656+291031927+291183822+291798415+293172926+295311203+297324241
1868+297849320+296629314+294838657+293596106+293116025+293073508+293152250
1858+293227383+293324228+293519344+293837182+294266507+294859296+295797688
1848+297393543+299736932+301973092+302489582+300965935+299060663+298186945
1838+298304541+298647497+298909935+299671406+301520037+303861760+305210615
1828+305168708+304793155+304623732+304210011+303489076+303096938+303347658
1818+303919771+304468061+305060313+305946321+307076553+308004968+308393811
1808+308478533+308803090+309730765+311308573+313249736+314935347+315816876
1798+316089197+316713657+318560973+321380148+323425190+323130138+321423203
1788+320406068+320889480+322316134+323960763+325583292+327036489+328108451
1778+329080273+330811382+333932717+337911740+340841494+341254715+339996282
1768+338618903+337882271+338330662+340253981+342813236+344604836+345557148
1758+346566508+347763821+349055647+351245068+355014148+359383773+362295276
1748+363103616+363024726+363300268+364397811+366185376+367979642+369036314
1738+369875233+372079388+375935948+378849080+378343012+375985481+373947251
1728+372672233+372263046+372890505+374354919+376610237+380286433+385753489
1718+391590860+394763691+394185618+391987311+390312917+390060809+391517227
1708+394566409+398363699+401810258+405180740+409889693+415844567+420374823
1698+421953667+421706112+420132672+417966019+417248860+419003848+422604522
1688+427501539+434236691+442293322+447472544+446970363+444506769+443944245
1678+446222663+450600691+455354291+459212590+462878347+467206842+470824583
1668+471954741+472082794+473996192+478138030+482392965+484834569+486346629
1658+489266944+495291453+504966429+515826278+521027084+520204714+520318625
1648+523571568+527241211+528362669+528117817+529104594+532181727+537342625
1638+544410849+551898218+556212016+556041759+555135426+556792458+561337374
1628+567488418+574262590+581850950+590281042+598419488+605810715+614005505
1618+624159858+633791965+638348875+637954386+636129875+634581313+633111382
1608+631343660+629724759+629352779+631089330+635012674+640622962+647242055
1598+654192184+660919155+667034104+672196446+676203086+679213286+681614130
1588+683686456+685461657+686848440+688017765+689627336+692494341+697133289
1578+703352932+709377182+712634530+714101647+717692252+725383529+735671488
1568+745427020+754103039+763569516+774849695+788192797+804975831+826014356
1558+845342836+856744738+864128523+870734733+875600172+877912760+878398467
1548+877981322+877348866+877107863+877812509+879500933+879839966+875043460
1538+866966579+860707398+856988036+853752678+849950316+846799661+845518683
1528+845923537+847404056+849852286+853186637+856161815+857037643+856140417
1518+855098664+854134728+852910243+852148512+852961257+855761625+860086640
1508+863991992+863629637+858360677+853459625+851944233+852993761+854767628
1498+855420593+853733575+850521615+848393166+849160228+852397436+855614284
1488+856380606+855092001+853847006+853642431+854043140+854530254+855198619
1478+856227563+857720447+860022669+862750774+863718338+861592110+858564659
1468+857235702+857830471+858645141+858274493+857828028+859380069+863003623
1458+865853450+864409064+859820168+855837665+853343307+851749284+850846727
1448+850390933+849630164+848020519+845659212+843028619+841153019+841212178
1438+842957244+843931546+842235939+839457042+837638232+836662449+835603889
1428+834512158+834031486+834041481+833978251+834056586+834853486+835705102
1418+835025779+832786713+830371060+828415200+826701602+825034649+823650605
1408+822979056+822881618+822441965+821266864+820391259+820768348+821796330
1398+822225470+821842235+821164984+820177873+818673958+817139686+816116221
1388+815186640+813625935+812180438+812792385+816331828+821699336+827053443
1378+831560302+835736274+840117263+844173140+847151355+849384201+851661472
1368+854093043+856321225+858105680+859258569+859601451+859188156+858277455
1358+857256137+856662849+856914883+857909102+859141140+860290548+861445287
1348+862596843+863473633+864284675+865708849+867818417+870017945+872113150
1338+874390865+876785268+879093043+881630271+884776928+888304450+891746752
1328+895037122+898345780+901764536+905507961+909918716+914814733+919202238
1318+922182230+923992229+925725375+928260973+931664477+935259747+938189613
1308+940084315+941162570+941896832+942801684+944133454+945561700+946568136
1298+947158907+947585899+947648168+946958330+945670022+944392745+943313157
1288+941593117+938148150+933383333+929438221+927994871+928327314+928094900
1278+925871975+922339196+919219416+917740378+917877872+918622425+919155963
1268+919718524+920996319+923053467+925393672+927632590+929564682+931001665
1258+931813299+931901704+931282205+930223275+928934226+927085725+924155341
1248+920277458+916256084+912720269+909432860+905652415+901252174+897062210
1238+893936358+891932150+890560619+889354792+888014729+886457948+884926268
1228+883758868+883055037+882824992+883245469+884438191+886297354+888650146
1218+891212326+893464941+894959157+895675797+895977513+896519121+898050135
1208+900857685+904525811+908316326+911725532+914700118+917357069+919609018
1198+921134257+921913091+922511859+923418339+924655634+926334063+928717582
1188+931390527+933300111+934237541+935507784+938483110+942992931+947506232
1178+950595063+952046927+952724030+953700183+955595403+958415689+961620616
1168+964207303+965168647+964490138+963395668+963108686+963855979+965533446
1158+968516473+972655128+976044268+976577509+974954907+974474456+977331614
1148+982294490+986576191+989199972+991273705+993465237+994985293+995176540
1138+994798044+995484920+998427076+1003212624+1007825140+1010437519+1011186367
1128+1011506667+1012448095+1014548556+1017956429+1021401840+1022387618
1120+1020061555+1016942737+1016220248+1018135459+1020339059+1021354824
1111+1022149355+1024207687+1027519899+1030486711+1031229562+1029495676
1103+1027300295+1027033896+1029105926+1032032163+1034695853+1037748626
1094+1041810574+1045359420+1046540148+1045962482+1045821435+1047046957
1085+1048615139+1049087963+1047951438+1045887183+1044394966+1044852464
1077+1047587972+1052241358+1058286561+1064113641+1066971761+1065488059
1068+1061617432+1058810103+1058623743+1059982020+1061175853+1061777952
1060+1062171775+1062451352+1062677473+1063239442+1064502503+1066445998
1051+1068807379+1071003575+1072476393+1073336820+1073741823+1072641356
1043+1068984336+1064471480+1062477045+1064078175+1067285027+1069657366
1034+1070138113+1069020838+1067794502+1068070673+1069358390+1069391412
1025+1067326490+1064885589+1063647851+1063456011+1063799560+1064569435
1017+1065337756+1065630291+1065866777+1066776145+1068221717+1069500326
1008+1070033123+1068931989+1065425494+1060995786+1058846087+1059714807
1000+1060416787+1058117304+1054618214+1054163381+1057517352+1060814238
991+1060557539+1057352908+1053474654+1049493188+1045092726+1040956885
983+1037911293+1035538066+1033144255+1031022248+1029484644+1027725585
974+1024788093+1020863120+1016768815+1012917661+1009552288+1007125751
965+1005689731+1004497231+1002962811+1001555001+1000533757+998358144+993038984
955+985228354+978350785+975131420+974926475+974588923+972018599+968380460
945+965903354+965083945+965110748+965332499+965390473+964844867+963549673
935+961912780+960332603+959212071+959110931+959938336+960776181+961082191
925+961216279+961234789+960334084+958373411+956765987+956769689+957925613
915+959097308+959926194+960344450+959904574+958417762+956159742+953347009
905+950478301+948578712+948166453+948561830+948725386+948282401+947549471
895+946971658+946654097+946144697+944886893+943146417+941846632+941404831
885+941217212+940409724+938783790+936805718+935267744+935004455+936219685
875+938122754+939773048+940940078+941707066+942254967+943121021+944412588
865+945374895+945494249+945073772+944398224+943283023+941438446+938651035
855+935350891+933144922+933354753+935245605+936885830+937393971+937433139
845+937584182+937297200+935768555+933360158+931468121+931016769+931904888
835+933593979+935197479+935730646+935124697+934356376+934488761+935978831
825+938469265+941086308+943330409+945281530+946641806+946864669+946461295
815+946860152+949095220+952950743+956623977+957714819+955610804+952009241
805+948833930+947192521+947874066+951012356+955439548+959143805+960197627
795+957981514+954236460+951794523+952076692+954461470+957454640+959849339
785+961125727+960992232+958804551+954537435+950009845+947276705+946210223
776+945667726+946161874+948810829+952447488+954123992+952656875+950210643
766+949824965+952649989+957477963+961575451+962459941+959872810+956388602
756+955378242+957545414+960433447+961913595+962442246+962976968+963181468
746+962630457+961571082+959980540+957892665+956671585+957848315+960977868
736+963650442+963729666+961218426+957589098+954099040+951367085+950420475
726+952573135+956922509+959682007+958374744+955785540+956334700+959740203
716+961556422+959339125+955653377+954212767+955585408+957560074+958136925
706+956960492+954262892+950247071+945604051+941763781+939824136+939421502
696+939462447+939206118+937575889+933061700+926386854+920654177+917654195
686+916990123+917664338+917929848+915162872+909017862+903169977+901664581
676+905181516+910577382+912414110+906398597+893404598+881705940+880414300
666+886306609+891001310+892344705+892449842+892583116+891295177+887057456
656+880710611+874420703+870043859+868371131+869259028+872409905+876619787
646+879383209+879112886+876334212+871711553+866158276+862888341+864742543
636+869290273+870016835+864543226+857713339+854854478+856551566+859937892
626+861774473+859571687+853143471+846141587+842645014+843084964+846441526
616+853760600+864903360+873779880+873226574+864185091+853889653+849276916
606+852456373+858150549+857000400+846439897+834246870
##END=
