##TITLE=<SNM>
##JCAMP-DX=4.24
##DATA TYPE=INFRARED SPECTRUM
##DATE=3/5/2025
##SAMPLING PROCEDURE=Instrument type and / or accessory
##ORIGIN=Admin
##XUNITS=1/CM
##YUNITS=ABSORBANCE
##RESOLUTION=4
##FIRSTX=4497.3318
##LASTX=599.83466
##DELTAX=-1.4281778
##MAXY=1.7435989
##MINY=0.18519244
##XFACTOR=1
##YFACTOR=1.6238531e-09
##NPOINTS=2730
##FIRSTY=0.20949997
##XYDATA=(X++(Y..Y))
4497+129014118+129217376+128979826+128254558+127760711+127995022+128469690
4487+128536467+128339651+128413641+128874141+129359831+129378707+128636353
4477+127428552+126666367+127062605+128294531+129256890+129151122+128142257
4467+126997499+126405188+126627404+127507579+128708103+129897945+130704727
4457+130832693+130424287+129933853+129484520+128818807+127905919+127072039
4447+126584826+126539659+126923619+127361078+127121986+125935236+124615226
4437+124304714+125084848+125804490+125400755+124025476+122715817+122303924
4427+122814959+123652867+124213914+124349321+124246793+123993771+123443140
4417+122548118+121672531+121407020+122014041+123038708+123545613+122988485
4407+121848480+121032797+120689663+120278724+119778490+119787070+120342812
4397+120759238+120740509+120669337+120743115+120702528+120419848+120101252
4387+119935425+119916136+119900986+119652415+119002486+118093268+117249422
4377+116624710+116220158+116126384+116389380+116761080+116912978+116764540
4367+116411945+115971963+115619139+115494367+115455404+115163208+114544763
4357+114045071+114283327+115384700+116724898+117534111+117724788+117812818
4347+118042458+118060251+117631106+117187793+117228812+117475336+117159190
4337+116088219+114990471+114725612+115431894+116495671+117187573+117254065
4327+116936846+116557134+116249954+116107169+116297570+116742957+116862039
4317+116168467+115096450+114664470+115280098+116358300+117162971+117549546
4307+117746426+117900746+118069840+118293699+118500214+118557402+118419214
4297+118062132+117517933+117139030+117418755+118342059+119311961+119827419
4287+119827841+119357687+118363495+117012735+115900846+115596666+116008678
4277+116514693+116796511+117175442+117943481+118762357+119035998+118704830
4267+118334314+118447358+119065776+119861922+120463363+120611544+120302170
4257+119845680+119590502+119566946+119591126+119687451+120106822+120781418
4247+121113595+120659601+119819408+119430006+119788318+120464290+121001193
4237+121378032+121682130+121682102+121134582+120395191+120230465+120984428
4227+122223805+123136455+123111073+122145309+120910438+120230961+120341069
4217+120783703+121097848+121329700+121785162+122574436+123487508+124107531
4207+124142530+123880130+123983705+124556937+124915524+124591753+123978593
4197+123677038+123753037+123894134+123896694+123796166+123655804+123379419
4187+122887361+122404323+122292187+122603323+123061135+123481764+123991789
4177+124762297+125630478+126154103+126135117+125927583+126043472+126589680
4167+127272672+127808933+128089548+128010502+127482647+126723151+126230019
4157+126221715+126312424+126008308+125360966+124849537+124744604+124913515
4147+125184926+125506431+125723261+125623137+125262907+124886995+124597653
4137+124477681+124787890+125628927+126658714+127452814+127910580+128134540
4127+128166712+127990057+127642610+127221495+126801711+126438590+126262788
4117+126436471+126968180+127667295+128253558+128443382+128098789+127438389
4107+126986450+127169327+127979761+129037408+129894394+130273839+130145388
4097+129702561+129221689+128791820+128240941+127463110+126682087+126227872
4087+126204206+126510772+127016310+127542147+127766932+127377834+126480490
4077+125736291+125746624+126315746+126716645+126624899+126315213+126078260
4067+126021972+126308001+126981403+127627653+127700339+127222110+126852915
4057+127157682+127914049+128326281+127987249+127350626+127076783+127255301
4047+127522656+127651062+127723262+127859302+127985350+127899669+127501339
4037+126917159+126426110+126276131+126531373+127049382+127593232+127957463
4027+128059826+128045776+128235481+128775642+129424378+129846236+129971458
4017+129909003+129689898+129302313+128862267+128553122+128421010+128370438
4007+128360335+128469277+128763666+129229131+129796968+130319327+130604145
3997+130592949+130413725+130222213+130119822+130178606+130361236+130528430
3987+130673335+130925420+131199254+131136698+130585471+129925438+129762134
3977+130384599+131528082+132537965+132844467+132477236+132046017+132056313
3967+132427068+132857718+133324412+133866757+134229657+134161724+133854296
3957+133713942+133859022+134125165+134520394+135323991+136449828+137067521
3947+136564690+135628043+135405175+135876128+135975609+135228878+134327762
3937+134121036+134916962+136536481+138299511+139112129+138457428+137276624
3927+136962956+137669549+138281626+138179254+138283443+139683967+141881711
3917+143023579+141944688+139430367+137112155+135960211+136174710+137861722
3907+141235718+145979579+150639798+153455427+154006205+152833128+150106125
3897+146404613+143619183+143508718+145723649+147585040+147105242+146116363
3887+147277961+149892140+151327543+151547484+152134160+152064373+149772387
3878+147279429+147369936+149915310+153255060+156492740+158615889+158223138
3868+156357351+155463421+155563701+154684802+152272293+150019931+149688286
3858+152316523+158692182+167993348+174020789+170352625+161812808+155244673
3848+152599918+153200892+155492529+158164666+161020699+164399788+167493710
3838+168310485+166356990+163375718+160637638+158151709+156120453+155275726
3828+155646472+156639214+158780973+163341049+169009857+171526473+170198828
3818+168620135+167370636+164151107+159610687+156995425+158047942+162163439
3808+166816380+169552606+171319434+174495614+178022205+178621811+176861938
3798+175619818+174948728+173629966+172248822+172274259+174077096+177151051
3788+181066446+185495043+190048916+194987923+201345073+209247900+216923922
3778+222994052+228723736+236161043+245984972+257380803+268163173+276000700
3768+280871710+284271575+287014481+290179887+295612348+303874560+313388472
3758+322634232+332435458+345036961+362132563+382917856+402165035+415045978
3748+424437680+435584647+448671436+458712314+464482375+471161746+482773260
3738+499515789+518232020+533882077+543402322+547944798+550216292+552013954
3728+554579938+558489608+562177722+562671927+558706649+551746296+544480331
3718+539192473+537298459+539359117+544203680+548123628+547622925+543575646
3708+539220186+536939074+538104810+542334957+546871890+549270754+550364877
3698+552312261+555801577+560192825+564902238+570022058+575428439+579731153
3688+581441308+580838857+579032277+576964389+575848058+576866164+580412631
3678+585656773+589876239+590759157+590624668+591853721+591707999+585769716
3668+575575225+566581377+561320387+559402038+559817766+562184586+566457936
3658+571563183+575279010+577103063+579710965+585708418+593835094+597725860
3648+592943146+584268564+578116507+576063814+576265696+576601333+576812427
3638+577966454+580259458+582832637+586170579+592476139+601633291+607427137
3628+604014683+597307489+595579201+600068527+608093822+616350253+621876735
3618+623616291+623500301+623893713+625602730+628541167+632332497+635586530
3608+636262869+634119037+631333589+630671345+633222684+637112679+639845124
3598+641606850+644102764+647301518+649701483+651133298+653108138+656582992
3588+660254148+661350106+659048586+655610511+653445683+653127298+653911698
3578+654764151+654892548+653821770+651716184+649612655+649021253+650875771
3568+654347762+657181588+657622644+655342339+651205315+646502729+642161987
3558+639127528+638407289+639729501+641089814+640931172+640322959+641351526
3548+643819322+644920420+642679391+638827422+636368214+635693711+635271375
3538+634831200+635602754+637557626+638631120+637741081+636549908+637103650
3528+639216723+641011778+641040115+639145220+636100043+633068373+630739250
3518+629053505+628256331+629095790+631197484+632422353+630780581+626737009
3508+623049482+622152101+623819127+625553177+625681206+625134879+625234498
3498+625496283+624491869+621746503+618167919+615120760+613530596+613473225
3488+614339259+615288064+615802421+615976956+615897525+615051349+613192022
3478+611211971+610389139+611129493+612598345+613385939+612588434+610746836
3468+609420403+609485886+610298807+610713214+610436306+609953516+609497228
3458+608889271+608235873+607907431+607989321+608155194+607814309+606616712
3448+605038624+604013471+603806378+603609195+602421325+600196153+597962869
3438+596733192+596526979+596690650+596762519+596674426+596546470+596545185
3428+596559464+596070948+594718269+592757525+590786907+589297390+588533765
3418+588309530+587851259+586355723+584015661+582107993+581636399+582342139
3408+583464746+584645898+585629684+586161146+586604734+587611167+588846314
3398+589066034+587628125+585141682+582705966+581162748+580915426+581582845
3388+581710838+579930942+576945558+575037083+574982979+575251077+574778124
3378+574540785+575587264+577194019+577830936+576979328+575557606+574955853
3368+575866044+577846169+579615090+579851842+578299007+576155946+574978941
3358+575188384+575880580+575992055+575381786+574697702+574416647+574424061
3348+574546695+574961616+575783567+576691739+577187119+576963287+576013638
3338+574452692+572336792+570028922+568549169+568721612+570022278+571085936
3328+571265537+570979783+570745013+570481026+569657167+568096588+566689475
3318+566658459+568047916+569704444+570538434+570073997+568379515+566402400
3308+565513902+565952792+566534834+566284575+565530420+565005235+564562234
3298+563447959+561667733+560329811+560369343+561575492+563086922+564141403
3288+564350515+564115856+564581908+566169062+567568209+567427443+566371714
3278+565914802+566379422+567184525+568064213+568890532+569186196+568738864
3268+567998767+567428691+567089384+566713921+565767979+564008088+562008913
3258+560400543+559106484+558075090+557877320+558859418+560543989+562195891
3248+563237452+563190359+562017428+560494583+559638276+559676229+559783483
3238+558933710+557016241+554950115+553724218+553650036+554409881+555320035
3228+555539755+554520181+552410338+549901725+547878581+547157497+547892639
3218+549010914+549135604+548316773+547725334+547661980+547271835+546159323
3208+544870916+543881588+543187887+542593842+541816196+540789024+540061443
3198+540195236+540719650+540547684+539403053+537974909+536824222+535855375
3188+534801114+533733933+532888528+532227055+531497272+530728104+530187907
3178+529574334+528059270+525689661+523739231+523138432+523442135+523554161
3168+522775560+521125125+519198627+517661393+516586026+515482764+514095802
3158+512864767+512296820+512022335+511098196+509535928+508601989+509032877
3148+509982857+510262591+509583939+508156382+506191269+504142394+502567794
3138+501525205+500565315+499484332+498755981+498947181+499909751+500848903
3128+500942686+499731545+497442982+495143921+493937699+493868655+494085256
3118+493917107+493272335+492233197+490883419+489488933+488430304+487835121
3108+487397663+486632716+485347246+483928241+483021684+482692544+482217279
3098+481200311+480393153+480601605+481284734+481072649+479366458+476923217
3088+475137155+474894164+475829792+476762336+476932761+476482529+475797564
3078+475021312+474313039+474057678+474440151+475005272+475043849+474290392
3068+472931620+471195074+469277422+467446726+465983858+465059902+464587463
3058+464219489+463730385+463286173+463030224+462679391+461893779+460780312
3048+459788855+459289621+459271782+459333998+459070047+458446455+457674791
3038+456891124+456090573+455291234+454641066+454252683+453979225+453487186
3028+452601955+451496453+450471483+449572377+448535038+447229049+446002675
3018+445347295+445362455+445767062+446201106+446260973+445542827+444052209
3008+442403756+441267201+440731812+440407554+439963415+439320992+438502859
2998+437604708+436729938+435799448+434705912+433668500+433032206+432728577
2988+432341883+431710912+431155224+431027782+431176073+431035344+430331292
2978+429388249+428519756+427555167+426351184+425330839+424972665+425023025
2968+424724314+423732270+422434246+421384537+420665840+419858461+418620195
2958+417225562+416323226+416135587+416155885+415734467+414729612+413516563
2948+412547275+411976796+411686711+411590395+411711670+411943944+411965454
2938+411465375+410385751+408995890+407765479+406985483+406509814+406076099
2928+405728863+405600026+405482421+405023380+404189060+403184976+402097349
2918+400972467+400058972+399658623+399781734+400037096+399879114+399061826
2908+397840077+396622109+395566416+394672266+394033623+393745337+393709365
2898+393712963+393589411+393239790+392613590+391733755+390757017+389988289
2888+389639549+389490230+389026711+388013634+386714546+385537504+384713425
2878+384312746+384285290+384384799+384251961+383729309+383045445+382580568
2868+382451694+382393295+382050207+381303944+380287049+379240313+378443763
2858+378056114+377897179+377645304+377293260+377053352+376854664+376435228
2848+375855498+375372672+374923724+374216406+373203512+372161731+371414697
2838+371072563+370942772+370711673+370231966+369551186+368789249+368156113
2828+367888675+367967813+368051759+367816365+367224669+366431973+365588477
2818+364774198+364029696+363398138+362917587+362554421+362180060+361664271
2808+361006799+360365110+359906840+359622371+359329900+358876107+358251780
2798+357525925+356814642+356285603+355965420+355547599+354669342+353413273
2788+352239021+351396626+350744402+350149146+349667311+349234771+348571756
2778+347606800+346695361+346169589+345858508+345276136+344175883+342765944
2768+341475298+340607906+340129961+339750571+339228249+338530695+337754369
2758+337068964+336656612+336473341+336196360+335597837+334790532+333996698
2748+333300941+332668135+332006809+331234117+330368340+329474814+328547812
2738+327600181+326775257+326197730+325799069+325399675+324879849+324218963
2728+323462459+322710836+322091905+321653933+321249142+320607086+319641103
2718+318645204+318007810+317706419+317318000+316626868+315933204+315578591
2708+315455076+315203899+314666785+313944747+313203255+312567990+312090559
2698+311720566+311327044+310771944+310015917+309186882+308470718+307911947
2688+307414530+306933740+306527794+306209041+305898365+305558084+305205490
2678+304766159+304121295+303351504+302709998+302297647+301965038+301565001
2668+301124514+300766836+300577930+300494094+300258389+299619141+298624729
2658+297591353+296786453+296271068+295982726+295805456+295619964+295403254
2648+295177385+294836224+294254586+293570741+293058880+292725243+292344220
2638+291854364+291417365+291138548+290973538+290849693+290701806+290433138
2628+289952275+289279864+288616978+288232247+288178308+288183392+287978317
2618+287653765+287475064+287403873+287095435+286408965+285644386+285144418
2608+284884321+284620627+284283394+284024013+283952088+283982132+283924357
2598+283675125+283350647+283176846+283170991+283090074+282821755+282593134
2588+282599502+282674583+282539213+282168192+281733725+281344424+280978322
2578+280589205+280187112+279820166+279531163+279366171+279376504+279523859
2568+279625056+279528374+279352902+279404877+279808071+280369062+280859561
2558+281224819+281435418+281394546+281111380+280738101+280349645+279876050
2548+279288190+278676838+278135154+277709148+277449914+277373236+277369529
2538+277270717+277040774+276825477+276781247+276891878+276979733+276911148
2528+276759150+276688822+276721545+276742651+276697227+276613281+276470808
2518+276206013+275827357+275427247+275083150+274797341+274552073+274395964
2508+274396203+274513643+274620346+274630917+274541172+274378345+274156459
2498+273858483+273497556+273183043+272993238+272808480+272436229+271867107
2488+271286845+270897141+270771534+270795063+270738719+270469960+270079338
2478+269760274+269567074+269317328+268807578+268121585+267557382+267226866
2468+266970697+266699020+266524356+266496900+266476510+266325117+266044466
2458+265724887+265481253+265374054+265317968+265157179+264855825+264508314
2448+264203161+263985772+263873397+263801546+263652705+263404519+263139614
2438+262899284+262671084+262517820+262549038+262720600+262800435+262627716
2428+262326399+262137824+262094585+262017943+261817383+261611721+261523940
2418+261514139+261483325+261445665+261510946+261712148+261936402+262074562
2408+262154085+262243903+262322600+262349781+262373731+262455163+262549166
2398+262553461+262450722+262360499+262424936+262644234+262875957+262983046
2388+262879536+262458577+261602416+260219915+258178326+255310309+251608118
2378+247340733+242915789+238646091+234621827+230791900+227181951+223935865
2368+221121951+218729915+216903495+215923086+215975300+217166143+219658294
2358+223581985+228883663+235517482+243704796+253278576+262693144+269647533
2348+272692306+272061647+269562174+267252248+265591701+263645896+260825412
2338+257432448+253915695+250375413+246912616+243987834+242022024+240860454
2328+240015507+239221380+238484421+237942957+237893056+238622673+240064546
2318+241810727+243490563+244997369+246374529+247647005+248864625+250188067
2308+251708930+253227463+254445321+255349033+256157568+256922790+257448122
2298+257641396+257741639+258104566+258849820+259772528+260556176+261031900
2288+261250703+261354727+261417328+261412116+261298622+261092556+260863347
2278+260686720+260582604+260487738+260319956+260074102+259812390+259564095
2268+259318533+259134069+259121240+259249398+259304255+259125535+258776005
2258+258422713+258170875+258034825+257968718+257910980+257835440+257735803
2248+257588448+257409397+257313577+257416463+257685809+257975839+258191247
2238+258329040+258402543+258463585+258654307+259067577+259606141+260116662
2228+260564655+260972565+261342448+261744963+262339705+263210548+264260532
2218+265334522+266389114+267475418+268623701+269862701+271291837+272984539
2208+274852821+276702751+278389029+279907855+281403612+283069023+285001284
2198+287151485+289363791+291451336+293302294+294944047+296514537+298164090
2188+299897113+301514127+302829732+303879698+304813271+305719883+306607225
2178+307408620+308045262+308501807+308713819+308515131+307883500+307049895
2168+306254960+305547403+304787632+303796927+302588631+301324762+300011690
2158+298539388+296987581+295581368+294424790+293441335+292529712+291786991
2148+291419695+291395011+291815254+293717747+298401191+305757855+314302260
2138+322852006+331223656+339523363+347723231+355788388+363770848+371832445
2128+380094712+388490404+396958480+405481467+413752764+421236723+427543825
2118+432424911+435737709+437716219+438999010+440355212+442596608+446668039
2108+453524882+463706820+477013366+492477657+508213018+521451843+529837991
2098+532875130+531570610+527366304+521533109+514518028+506068415+496169478
2088+484854839+471608234+456112303+438811260+420463004+402105461+384949296
2078+369625625+356198391+344744270+335171940+327076097+320262310+314759430
2068+310361721+306734190+303617381+300779518+298260351+296369953+295116013
2058+294159481+293287630+292438590+291685261+291408408+291925096+293190286
2048+295329182+298862068+304199423+311582406+321419971+334200524+350316120
2038+369947094+392573985+416734257+440562122+462275078+480382728+494088926
2028+503213887+507751481+508169265+505687924+501681241+497007910+491736165
2018+485360534+477634977+468974527+459803060+450103141+439743915+428745936
2008+417226774+405346243+393324286+381518415+370384001+360163302+350716212
1998+341871793+333847966+327072390+321556920+316689341+311867719+307146486
1988+302940400+299421756+296523254+294176238+292274075+290626651+289093307
1978+287680597+286489718+285557705+284774883+284097626+283742077+283847220
1968+284020453+283631684+282607761+281522704+280837023+280466076+280172357
1958+279982203+280002281+280126713+280147342+279990608+279753471+279602831
1948+279699477+280212898+281199859+282196712+282267683+281066984+279427396
1938+278326464+277934796+277918481+278012521+278099917+278123482+278083454
1928+278115737+278556444+279609475+280906819+281941167+282839153+283835401
1918+284316961+283565284+282128274+281236932+281388526+282166467+282867894
1908+283059608+282823957+282558300+282508729+282627251+282836199+283226766
1898+283935130+284827537+285462160+285691901+286031924+286815224+287400790
1888+287029291+286003055+285121642+284670455+284526771+284565734+284687432
1878+284847597+285095067+285506427+286384960+288349081+291522178+294501505
1868+295086098+292910736+289948825+288022602+287411379+287453371+287529168
1858+287480129+287473375+287653985+287983841+288448884+289192303+290408215
1848+292411575+295420524+298451606+299196787+296962603+294056761+292608446
1838+292664899+293183899+293675462+294823175+297401456+300662555+302602377
1828+302621483+302080973+301603982+300514961+298861297+297735515+297664801
1818+298114152+298459406+298875428+300040283+302015967+303766608+304233927
1808+303665759+303267062+304030137+306224972+309268993+311822094+312779672
1798+312567990+312888981+315122486+318909558+321674745+320938759+317895233
1788+315707685+315721449+317165414+318968875+320832349+322529510+323576136
1778+324266093+325986672+329922476+335513597+339934430+340618955+338430121
1768+335665522+333693142+333526498+335615345+338639013+340504726+341175596
1758+342012559+343195877+344559163+347235082+352203747+358046669+361677339
1748+362052985+361062592+360729194+361774976+363868375+365900145+366796387
1738+367394213+370088227+375367716+379317322+377969122+373617919+369755306
1728+367285674+366363737+366982302+368627377+371340441+376381748+384470837
1718+393174453+397203196+394770086+389769524+385940716+384740551+386477390
1708+390724973+395940961+400281996+404151987+409855023+417505553+423154522
1698+424239762+422351328+418539553+414164234+412020512+413210878+416733266
1688+422038486+430172173+440518846+447008338+445333054+440644195+438476945
1678+440317441+445225249+450627556+454533078+457995378+462275005+465299957
1668+464667114+462862369+463822039+467887451+472112717+474170548+475402868
1658+478770505+486416777+499113531+513272751+518941614+516270908+515734418
1648+520041904+524279172+523332752+519596921+518080719+520675738+527385794
1638+537461176+548043903+553300121+551337688+548111074+548644224+553458286
1628+560617473+568389499+576603351+584998346+592328949+598867958+607046829
1618+617929332+628131091+632706015+632468455+631319714+630605642+629643659
1608+627914968+626086144+625519114+627177110+631074520+636591752+643064580
1598+649989402+656824735+662830740+667439947+670944826+674347003+678278697
1588+682444205+686116462+688863149+690917933+693155659+696685351+702303084
1578+709804405+716901670+720589564+722387482+726793119+735373735+745771355
1568+754934784+763326071+773013069+784519642+798422362+817371454+842311574
1558+863590303+872570716+876251930+880002517+883248255+884694679+883915344
1548+881797058+880831038+882875251+887241540+891322258+890847800+881954085
1538+869113114+860084542+856207981+854430618+851450263+847427099+844959816
1528+845170067+847276459+850564702+854780350+858152795+858286624+856309950
1518+854809935+853375550+850894025+848635230+848833882+852658027+859928250
1508+867925758+869642851+861754064+852258816+847696005+848625100+853102680
1498+857554933+858226867+855035308+851722179+851126446+853016128+854798042
1488+853804639+850134878+846333784+844687607+845279890+846246204+846302070
1478+846483616+848831900+854151582+860314173+862272936+857769588+851508332
1468+848557781+849405536+851045766+850686565+849427339+850471469+855031931
1458+860246928+860090048+853543956+846235559+841640007+840093083+840715171
1448+841628849+841031941+838898606+836336109+834163939+833274781+834713056
1438+837870480+839281226+836339559+831725213+829153099+828936976+829049956
1428+828141270+826749977+825700121+825252239+825804439+827559485+829085340
1418+828080632+824735496+821303661+818921755+817392449+816268301+815328635
1408+814648185+814294196+813969350+813478081+813290589+813807772+814593641
1398+815025153+815069346+814684744+813415828+811449725+809866315+809146296
1388+808362850+806589451+805043701+806112571+810261488+815613618+820417659
1378+824880704+830102088+835969933+840834978+843408854+844378765+845422969
1368+847475110+850358783+853340386+855519823+856078483+854896267+852767630
1358+850715782+849474469+849368243+850101623+850807106+850840802+850537907
1348+850717471+851588423+852823717+854493752+857064105+860414894+863516891
1338+865542091+866968401+868896037+871622095+874507969+877087645+879762609
1328+883119931+886980562+890671686+894203361+898397720+903461417+908287627
1318+911883904+914741882+918079531+922512844+927632627+932153813+934703170
1308+935102601+934748612+935389640+937646305+940512433+942070075+941236562
1298+938940475+937071568+936530966+936773297+936843772+936289003+935104290
1288+933295727+930847825+928006584+925223779+922902144+921289957+920305364
1278+919484771+918469785+917476383+917046045+917479319+918608460+919994760
1268+921313155+922454849+923361626+924030477+924591634+925271937+926300504
1258+927687905+928996169+929628902+929477308+928900074+927973329+926116388
1248+922537436+917112336+910988579+905873054+902470877+900190206+898281216
1238+896333612+893909862+890871292+887891671+885752757+884441556+883479941
1228+882730631+882445575+882706919+883156050+883469296+883876289+884761703
1218+886000447+887249321+888544739+890008194+891448893+892836221+894604040
1208+897042840+899945232+903049065+906223593+909141622+911382431+912973329
1198+914423350+916122897+917993052+919752649+921300822+922830862+924640893
1188+926861734+929419533+932214231+935174398+938137061+940836470+943086676
1178+944965420+946694405+948338819+949781280+950844276+951413875+951805378
1168+953123333+956309313+960448540+963371634+964347125+964695976+965725497
1158+967627806+970178337+973164418+976149325+978557292+979950126+980237311
1148+980124111+980947639+983287113+986068083+987749424+988121693+988211328
1138+988825781+990016294+991812303+994766157+998734188+1001848886+1002500853
1128+1001796764+1001992552+1003236361+1004122951+1004731458+1006737570
1120+1010379288+1013294454+1013619300+1012731169+1013087361+1014865017
1111+1016523013+1017375099+1017799343+1018266313+1019725585+1022969854
1103+1026842451+1029383659+1030448564+1030847849+1030193974+1028449646
1094+1027710320+1029489885+1032562665+1035225076+1037644935+1040358660
1085+1042473421+1043255840+1043705411+1045394533+1048774540+1052932561
1077+1056734316+1059251885+1059023723+1055439926+1051208347+1050453679
1068+1053836915+1057774995+1059479240+1060354157+1062739586+1066250999
1060+1068674749+1068749996+1067139424+1064920492+1062371502+1059900108
1051+1058746301+1059419116+1060389468+1059916919+1058943851+1060260631
1043+1064890173+1070582491+1073741823+1072950081+1070390594+1068867381
1034+1068448936+1067361640+1065080602+1062973328+1062145762+1061855126
1025+1060594286+1058142126+1056158844+1056821969+1060298732+1063809704
1017+1064313747+1061806454+1058392679+1055737095+1054822903+1056425694
1008+1060325600+1064462919+1066090155+1064108048+1059785072+1055542335
1000+1053388519+1053624316+1054506280+1053769744+1050766705+1046851015
991+1043723030+1041904997+1040593283+1038534974+1035657982+1033269837
983+1032038214+1030711891+1028046617+1024969653+1023037465+1021816047
974+1019704295+1016729813+1014618208+1013828449+1012276092+1008167918
965+1002696127+998501695+996497858+995367249+993434915+989901332+984861861
955+979210139+974032655+969552872+965380830+961934974+960467113+961305912
945+963035043+963776718+962692726+960242034+957490869+955413107+954586421
935+955079379+956462302+957932879+958470177+957287666+954810913+953090665
925+954143971+957443886+960126631+960352371+959001382+957680564+956878545
915+956314599+955730097+954674075+952595798+950004377+948495626+948721440
905+949430667+949246551+948222095+947063003+946058809+945258258+944787838
895+944805236+945217441+945585966+945714289+945949206+946137286+944921813
885+941515599+937545071+935539105+935972600+937232412+938008737+938241378
875+937985980+936881065+935196568+934430080+935910053+938851573+940632020
865+939593689+936896702+934890589+934561780+935261023+936042854+936519147
855+936863814+937442516+937983337+937573188+936420556+936154146+937317496
845+938379685+938001617+936567232+935080578+933909006+932646110+930761199
835+928545864+927151415+927664560+930299882+934221298+937935840+940030560
825+940116084+939023503+938067613+938252757+939561315+940725913+940712332
815+940551854+942002904+944589994+946347609+947147720+948486230+950225639
805+950661115+949967010+950277100+951993752+952819556+950776518+946499718
795+942182174+939705641+939971170+942739440+946510509+949028446+948896526
785+947240071+946905095+949270190+952708485+954592074+953948403+951684103
776+949179306+947307977+946500525+946979681+948690240+950916733+952348255
766+952185429+951062749+950457325+950917394+951602542+951823951+952111210
756+952948981+953680231+953810096+953870147+954321847+954974694+955419494
746+955090757+953696969+952108127+951657674+952670678+954706963+957440656
736+960392968+962818626+964374801+964929057+964106042+962286981+961231105
726+962177305+963634741+962507509+957756985+951614582+946955969+945176551
716+946563659+950870631+956619549+960918446+960985177+955800866+946859287
706+937750109+932082310+930806274+932255488+934746923+937352220+938809509
696+937547347+933067785+926370098+919136141+913353159+910651767+910632167
686+910532474+908094335+904406368+902163797+902109913+902806220+902824720
676+901999282+900703131+898194591+892490894+883613917+878153358+883203694
666+892349871+896299256+895050528+892354349+888932351+883114059+875582345
656+869375486+866841839+868828204+874153686+879032826+879808271+876463722
646+871201227+865080774+858894324+855256717+856629289+862135216+868300450
636+872780159+875368791+875780776+873851745+870331449+865785303+860570452
626+855860378+852377082+848810170+844401523+841445687+842233758+846254646
616+851830461+857051184+859372746+858058902+855222654+851722840+845810434
606+839749591+840367127+847994349+853661634+851598921
##END=
