##TITLE=<SNM>
##JCAMP-DX=4.24
##DATA TYPE=INFRARED SPECTRUM
##DATE=3/5/2025
##SAMPLING PROCEDURE=Instrument type and / or accessory
##ORIGIN=Admin
##XUNITS=1/CM
##YUNITS=ABSORBANCE
##RESOLUTION=4
##FIRSTX=4497.3318
##LASTX=599.83466
##DELTAX=-1.4281778
##MAXY=1.7270256
##MINY=0.17971665
##XFACTOR=1
##YFACTOR=1.608418e-09
##NPOINTS=2730
##FIRSTY=0.19690944
##XYDATA=(X++(Y..Y))
4497+122424300+122689172+123569029+124244252+124178706+123683760+123321334
4487+123184961+123205870+123679230+124793933+125978276+126368700+125726014
4477+124522094+123415220+122905331+123202646+124054821+124788846+124804994
4467+124087794+123155963+122541820+122433472+122714983+123106120+123369416
4457+123555419+123809127+123897121+123336991+122113115+120842093+120134398
4447+120166138+120794807+121626915+122109549+122012679+121663102+121456643
4437+121475821+121613120+121537615+120717690+119153724+117785740+117523592
4427+118197296+118895699+119030572+118772065+118592121+118594668+118447938
4417+117970696+117446327+117238895+117433977+117841957+118043775+117698219
4407+117091210+116892931+117134845+117072986+116288841+115235589+114497015
4397+114156824+114095298+114392855+115059684+115647275+115601462+114992786
4387+114503778+114562441+114799686+114578821+113863112+113231385+113047809
4377+113033505+112831650+112551177+112407031+112324846+112293375+112574394
4367+113209160+113750103+113769160+113301897+112627711+112011021+111735041
4357+111929086+112330312+112625803+112910806+113389002+113887968+114100922
4347+113971636+113528330+112864799+112470076+112850550+113668761+113991147
4337+113487483+112729723+112297284+112173020+112074585+111951423+111990602
4327+112357105+112968440+113413182+113275058+112722024+112445933+112764464
4317+113275771+113629582+113941498+114252044+114332802+114160242+113965299
4307+113870866+113915993+114168395+114546200+114879518+115198503+115542373
4297+115582201+114968290+114034653+113678396+114411856+115802029+116924125
4287+117151605+116492622+115436554+114561598+114104090+113904024+113835022
4277+114052089+114658912+115439880+116126555+116670676+117142637+117580328
4267+117962006+118214751+118277416+118146036+117837427+117480596+117419033
4257+117896664+118730986+119580826+120240439+120538635+120487634+120483937
4247+120689248+120556664+119784478+119121095+119327730+120040465+120451604
4237+120401169+120164433+119805750+119264064+118706759+118472424+118707260
4227+119184427+119629780+120079181+120644936+121157410+121374995+121353752
4217+121331554+121491821+121941908+122627980+123213486+123247070+122513999
4207+121355512+120682327+121209624+122506754+123363367+123234572+122690793
4197+122398804+122361496+122319120+122312209+122502696+122743962+122769977
4187+122727610+123028919+123657116+124105961+124063919+123787235+123795638
4177+124402823+125451544+126409742+126799536+126551637+126007793+125681405
4167+125892450+126504656+127080787+127257507+126967278+126527466+126451821
4157+126800796+126915082+126293185+125445494+125311400+126066113+126988818
4147+127378195+127241878+127097611+127328936+127837519+128266298+128416837
4137+128341803+128134474+127843050+127564226+127431290+127528289+127847210
4127+128202975+128280250+128003613+127714552+127748228+128077747+128542713
4117+129008429+129202178+128946617+128563929+128471895+128542166+128413705
4107+128172782+128199436+128629985+129383669+130382371+131391180+131961233
4097+131895752+131573126+131482046+131613213+131604801+131325106+131028782
4087+131041696+131529193+132433778+133414043+134000707+134004988+133682500
4077+133429450+133374086+133259484+132718651+131728213+130748633+130281212
4067+130351965+130589089+130709852+130742157+130856944+131134795+131472096
4057+131703866+131843556+132137573+132797019+133674208+134282792+134249690
4047+133781454+133515248+133791210+134267654+134404630+134075694+133525513
4037+133014438+132718438+132763491+133191742+133927360+134720641+135165605
4027+135045760+134714360+134820938+135539084+136314216+136501377+136080185
4017+135602527+135507761+135671140+135658985+135275862+134796804+134714332
4007+135221868+135970716+136478169+136656686+136693374+136605083+136336006
3997+136157562+136412326+136884055+137044072+136967464+137283086+138138791
3987+138990827+139524896+139953555+140273235+140079848+139367039+138840492
3977+139129951+140047756+140809936+140837210+140201898+139354578+138648930
3967+138250048+138328083+139040049+140221780+141311737+141775842+141584196
3957+141178190+141016302+141255085+141878622+142890461+144027732+144573354
3947+144214800+143776173+144119274+144813934+144836994+144085764+143254703
3937+142916633+143482878+145156887+147312445+148594270+148349743+147536683
3927+147528233+148430575+149059773+148695716+148212832+148761438+150079431
3917+150687126+149581363+147370969+145483756+144708486+144988357+146484089
3907+150022288+155795441+161939054+165552739+165567062+162896946+158473952
3897+153547062+150365972+150499677+152996548+154849278+154504121+154178085
3887+155983028+158306969+158506859+157699052+158264278+158854129+157130972
3878+154981705+155695867+159315204+163765065+167774566+170237399+169645306
3868+167039522+165121756+164238072+162629221+159768144+157286615+156984445
3858+160098886+167537192+178036130+184132549+178835099+168262823+160276097
3848+157036493+157967907+161547796+166150521+171018877+176103114+180343987
3838+181408272+178807380+174923468+171568502+168875835+167006226+166584228
3828+167349327+168413927+170443553+175017891+180629129+182639745+180725443
3818+178837656+177089189+172914057+167532022+164623919+165805845+170225337
3808+175194491+178228813+180397314+183864139+186824289+185817963+182430015
3798+180175374+178813624+176799970+174669491+173715083+174054607+175363234
3788+177675167+180649067+183370008+185893950+189572765+194566284+198568097
3778+199823341+199869312+201422743+205934120+213230327+221421057+228071918
3768+232796267+236790649+240753699+245712309+253438740+264059396+274873901
3758+283566284+291783010+303016474+318795760+336848198+351510392+360388250
3748+368371307+379827767+392510437+399569565+401057775+404080961+412735545
3738+427141149+445016451+462019890+473394119+477549944+477357094+477283534
3728+479919539+484513092+488404397+490449032+491542500+492187716+492428111
3718+493299417+496578859+503847290+515414405+528288442+537083698+540941021
3708+544133785+549736981+557849889+566374325+572569745+576229623+579501394
3698+582634346+583991778+584074862+586207731+592891203+602398639+609072587
3688+609476148+606652519+604729694+605112502+607607761+611823842+618174608
3678+626807291+633498990+631600364+623888979+618351634+615965992+612983941
3668+609181056+607474464+608254978+609533402+610419124+612685810+618209924
3658+625990237+632850921+637620870+642861973+651033989+660462638+664810572
3648+660346202+651953322+645639613+642986265+642754579+643457272+644770753
3638+647488211+652446489+659348603+666766267+673520149+678917118+680892899
3628+677721407+672775137+671153185+674832074+681628277+686826912+688206208
3618+688807658+691570772+695004041+696483765+696744875+698575166+701782160
3608+703193696+701962335+700583706+700333417+699978772+699215749+700575850
3598+705357287+710240485+711223187+709023131+708039688+710754700+715125091
3588+716897868+714831666+712146967+711887487+713932566+715837641+715265614
3578+712525032+710567706+711342810+713173990+713619353+713779517+716594141
3568+721756534+725568757+726115362+725281484+725001252+724321017+721276633
3558+716614597+713652334+714027435+715599284+714964482+710998319+705840151
3548+702973646+704074934+707640055+711157965+713682870+715043711+714423139
3538+711730806+708552718+706563226+706448865+708244025+711620893+716114834
3528+721098681+725157488+726130185+722755319+716620452+711820561+711995178
3518+717259035+723538279+725555120+721883272+716311315+713810423+716234235
3508+721185397+724176861+722485018+717181880+711699307+708905510+709002157
3498+709924158+710031404+710121454+711905868+715124498+717467597+717300540
3488+715560225+714466126+715186533+717371617+720095523+722236434+722813129
3478+722300989+722551130+724243417+725623900+725064992+723383970+722201155
3468+721928408+722385703+723399831+724132688+723601870+722088350+720608553
3458+719208727+717364131+715482181+714365774+714105849+714338721+714911340
3448+715942366+717442323+718934201+719776306+719629705+718310072+716030045
3438+713561468+712324326+713797824+717578029+720591358+719855165+716091043
3428+712843360+712194401+713238620+714374593+715386942+716844134+718341126
3418+718545908+716953455+714799648+713570510+712969579+711665733+709535717
3408+708142116+708969620+711653355+714165290+714582859+712658070+709834848
3398+708052065+708585551+711465472+715562522+719465093+722354278+723815991
3388+723681174+722563878+721378839+720040529+717947719+715850685+715688371
3378+718362768+722584630+725771835+725847878+722996047+719950330+719560999
3368+721904247+724303822+724150402+721411969+718357654+717279120+718600087
3358+721056880+723650268+726227054+727756880+726391666+722589151+719587607
3348+719235779+719609990+718085723+714992942+712583806+712277781+714572483
3338+719353401+724280327+725475001+722272232+718089799+715630857+714744580
3328+714635407+715220997+716356378+717548087+718575925+719645343+721312802
3318+723820512+725688454+724874366+722539568+722415942+725365087+727660826
3308+726044878+722648296+722137712+725584025+729371494+729695751+726501950
3298+722099320+718170512+715756187+716156339+719656757+724096149+726596522
3288+726602377+725766869+725383542+725198104+724644236+724170562+724484072
3278+725066326+724586944+722829583+720945854+719793204+719073465+718241366
3268+717470858+717045803+716600145+715910867+715690076+716511502+717577066
3258+717256885+714837669+711559599+709952248+711993028+717290163+722635844
3248+724443975+722557800+720135842+719585828+720464175+721165682+720911316
3238+719758444+718180147+716973985+716715839+717432614+719097256+721590885
3228+723683546+723479728+720622857+716868222+714011722+712227679+710633002
3218+708973103+708578733+711378534+717274970+722851818+724200356+721053174
3208+716634979+714005422+713754318+714191305+713328893+711339104+710581121
3198+712538150+715467135+716326509+714395123+711486520+709429435+708774917
3188+709148684+709579000+708869415+706560706+703385730+700661602+699580918
3178+700526414+702473364+703612229+703138332+701869394+700682577+699537635
3168+698444500+698040346+698828272+700532492+702256205+702887301+701847159
3158+699937638+698849617+699351307+700152796+699151195+695937382+692710303
3148+691764881+692509894+692365072+690216823+687488025+686078416+686626428
3138+688589017+690935821+692572670+692924350+692243299+691296692+690731632
3128+690472671+689794585+687959551+685054950+682546943+682381516+684815407
3118+687429770+687383670+684631526+681501835+679735951+679196313+678756509
3108+677560946+675707160+674128937+673589003+673703734+673387853+672227865
3098+670794390+669827400+669875576+671003545+672041908+671173122+668092422
3088+664680943+663025565+663448100+664556280+664854596+664237359+663710692
3078+663922738+664622688+665189822+665020764+663845212+662137212+660765476
3068+660159653+660107401+660047219+659383734+658092858+656926422+656386340
3058+655997454+655072933+653537030+651765586+650234723+649232084+648441490
3048+647261491+645856921+645148818+645512875+646170580+646035244+644782982
3038+642970923+641303613+640048016+639215621+638863645+638842522+638759882
3028+638640185+638847784+638909745+637539935+634592421+631862363+630992095
3018+631453318+631486077+630502708+629481539+629151205+628988298+628333485
3008+627413855+626654760+625927313+624998938+624038322+623353788+622922952
2998+622242420+620796346+618760309+616829998+615442475+614727553+614826943
2988+615489242+615808126+615093612+613714167+612555217+611951877+611592193
2978+611057855+610085640+608697672+607506482+607291694+607736018+607465607
2968+605959609+604290038+603364665+602730529+601627166+600114684+598767813
2958+597879868+597156312+596228307+595422927+595321833+595531322+594904524
2948+593056927+590802174+589131750+588429873+588455480+588655259+588679125
2938+588486683+587831832+586328503+584246403+582460544+581446973+580900924
2928+580306218+579360018+577973792+576378930+575047698+574206482+573709313
2918+573403734+573135545+572530352+571356653+569893347+568535470+567328604
2908+566103988+564885375+564115496+564387427+565660516+566870457+566799232
2898+565287453+563204501+561409155+560130620+559159183+558201421+556989367
2888+555338844+553346831+551429232+549971335+549076090+548745904+548971846
2878+549470757+549703925+549369478+548560392+547388064+545916790+544467936
2868+543409524+542638793+541820777+541025662+540538127+540190487+539506138
2858+538408297+537239823+536143131+534889646+533360265+531770999+530316994
2848+529057543+528291592+528391612+528977905+529070439+528333171+527285395
2838+526250441+525095494+523904118+522938796+522096210+521159608+520358045
2828+520088041+520206515+519985613+518837780+516947270+515043863+513635662
2818+512695947+512018750+511515133+511073550+510416550+509328603+507956422
2808+506745554+506034635+505733502+505429108+504764030+503684310+502426971
2798+501397835+500989271+501188013+501244378+500187634+497985541+495688171
2788+494093531+492906566+491570034+490230316+489366607+489059396+489109647
2778+489375167+489559308+489084855+487619214+485490273+483328239+481562873
2768+480375537+479776569+479503971+479032891+477945352+476288973+474500891
2758+473032767+472055253+471404701+470736917+469780859+468542939+467321213
2748+466480331+466075955+465634484+464527193+462743780+461014138+459936567
2738+459297133+458476448+457192353+455585410+453947375+452641009+451949212
2728+451734090+451407351+450436952+448878147+447293772+446137750+445387104
2718+444808333+444288114+443729021+442853935+441398892+439513162+437813352
2708+436873118+436651771+436576284+436151674+435306086+434247897+433223171
2698+432313251+431354488+430186274+428936347+427867485+427046725+426324615
2688+425559850+424739128+423807492+422527399+420866092+419439102+418979213
2678+419316367+419440881+418665703+417281367+416027030+415297915+414956427
2668+414711288+414464371+414192811+413724362+412902046+411836667+410755058
2658+409708467+408644275+407641117+406802421+406000191+405079302+404260766
2648+403859466+403619923+402911301+401631987+400379503+399678108+399446273
2638+399232783+398746916+398108112+397567140+397072305+396356939+395424524
2628+394592055+394030998+393575889+393008606+392281715+391467071+390691152
2618+390095186+389721345+389468796+389193752+388773404+388117626+387290753
2608+386569902+386191540+386089334+385991502+385689998+385127236+384336642
2598+383418680+382518654+381716498+380960628+380215986+379620057+379317850
2588+379218201+379095243+378840951+378492421+378134627+377807961+377394320
2578+376707859+375810279+375052556+374724037+374808196+375050258+375111478
2568+374747013+374011005+373253986+372794505+372603434+372432782+372225554
2558+372164260+372308675+372480216+372530578+372468877+372338877+372163260
2548+371966260+371777301+371647747+371580338+371419359+371017873+370508734
2538+370153312+369963501+369735298+369422344+369234608+369313134+369474892
2528+369440613+369247653+369211966+369467814+369738782+369625199+369029752
2518+368259725+367719309+367525645+367474357+367345358+367110522+366833106
2508+366513370+366117332+365682865+365309580+365055178+364891159+364735775
2498+364502199+364163304+363785536+363476176+363320792+363326833+363330538
2488+363081435+362594605+362214761+362112815+361993748+361561949+361003856
2478+360728849+360841394+361111732+361323888+361423093+361364467+361045732
2468+360499683+360015706+359898714+360130808+360382172+360360827+360072405
2458+359696897+359316275+358918162+358588457+358451009+358421511+358273613
2448+357978484+357742721+357682724+357669272+357525673+357225244+356864633
2438+356549493+356332000+356204372+356099609+355880486+355434123+354885591
2428+354581716+354683107+354913311+354918944+354720128+354584681+354616625
2418+354698152+354732060+354742288+354769007+354794392+354774973+354699820
2408+354621331+354620998+354711419+354782719+354683811+354363853+353927459
2398+353539647+353291619+353215761+353379668+353788047+354211841+354335355
2388+354048564+353398345+352384255+350997214+349273723+347161532+344525268
2378+341383052+337999107+334701284+331637334+328685151+325657259+322621806
2368+319885560+317712149+316228535+315467920+315422450+316250065+318324828
2358+321845924+326557989+332112046+338564277+345967452+353366476+358950810
2348+361359835+360712025+358644674+356837692+355262545+352868750+349388974
2338+345399724+341317533+337144328+333032565+329547786+327163664+325807121
2328+325123698+324882785+324941855+325140152+325424016+325975179+327074502
2318+328696973+330325409+331453342+332172784+332921355+333839539+334765024
2308+335605127+336343543+336910530+337311793+337699827+338184174+338722552
2298+339245587+339753577+340265570+340763925+341196725+341480292+341539547
2288+341430449+341372713+341540807+341855726+342090414+342130510+342026933
2278+341857282+341653501+341438639+341248309+341099410+340959591+340768150
2268+340488955+340133866+339771217+339539049+339538790+339645368+339589263
2258+339335564+339164616+339253036+339418537+339424095+339312366+339287759
2248+339421353+339608607+339736494+339781927+339776776+339790191+339931307
2238+340234404+340570520+340818993+341041637+341327502+341607919+341792283
2228+341928989+342093267+342275184+342474334+342750971+343106876+343431948
2218+343638620+343775030+343943051+344165584+344413724+344711002+345102038
2208+345553403+345995430+346438458+346939111+347468409+347937340+348354983
2198+348839219+349474021+350266468+351178538+352071968+352741864+353154430
2188+353513707+353988011+354539804+355060357+355479148+355742482+355875038
2178+356057104+356502355+357239363+358056305+358686290+359076399+359460171
2168+360113873+361079788+362219838+363488702+364993773+366799013+368892601
2158+371401979+374563131+378347599+382392065+386401659+390310900+393966925
2148+397035766+399414404+401497171+403854129+406716225+409851474+412942328
2138+415982301+419197188+422678188+426268954+429765592+433104326+436428645
2128+440041571+444159338+448625523+452944551+456589828+459192555+460548357
2118+460678060+459864156+458463366+456705820+454724814+452656425+450653444
2108+448914612+447709191+447264200+447618511+448594209+449813711+450687945
2098+450499172+448680591+445119657+440177055+434385382+428142343+421651350
2088+415045329+408517314+402311630+396586031+391367904+386699790+382718137
2078+379529043+377097857+375273495+373843652+372597319+371412577+370283607
2068+369277707+368463025+367797353+367122936+366390523+365776399+365414010
2058+365146303+364722471+364141774+363675511+363599468+363935287+364415298
2048+364731995+364886490+365259293+366265230+367988128+370281680+373178758
2038+376969044+381843125+387684530+394236669+401233466+408261207+414624202
2028+419507993+422388173+423269003+422463067+420292547+417108788+413314241
2018+409148300+404663141+400028861+395613038+391658623+388097430+384741760
2008+381499450+378357308+375308589+372386497+369707764+367404169+365472524
1998+363775234+362316745+361372434+361030871+360740078+359779240+358135906
1988+356427794+355139957+354343693+353871946+353458676+352897322+352192888
1978+351480004+350871402+350435601+350175454+350063020+350181309+350593653
1968+350973163+350769344+349928871+349009241+348442959+348138935+347871525
1958+347651809+347564834+347512249+347291976+346855693+346411332+346252798
1948+346535290+347281711+348406419+349437964+349546247+348458189+346980653
1938+346041271+345758260+345716977+345628260+345481140+345337615+345189457
1928+345109931+345482993+346607516+348002006+348869495+349311300+349930575
1918+350379013+349741135+348272677+347255548+347357124+348069489+348433175
1908+347999709+347149340+346518503+346290263+346197767+346035824+345952295
1898+346230192+346797253+347172057+347249248+347654810+348614685+349171888
1888+348506995+347249100+346402623+346070658+345866321+345631521+345420588
1878+345333576+345437931+345730355+346491043+348455521+351844099+355124874
1868+355817376+353446595+350101227+347732373+346745224+346641647+346828604
1858+346904906+346764160+346560082+346496231+346756749+347519141+348916337
1848+351195585+354523350+357792897+358460051+355781912+352373101+350633268
1838+350586871+351033234+351470888+352771881+355826381+359619631+361606678
1828+361058850+359810776+358857350+357457190+355468661+353941800+353484542
1818+353739464+354259127+355153001+356775138+358902857+360490456+360696646
1808+359962009+359518982+360324844+362637852+365830355+368487002+369516286
1798+369454547+370090424+372801768+377062430+379937903+378812009+375314518
1788+373065732+373423229+375355615+377599955+379856227+381908755+383230018
1778+384230731+386615335+391790660+399008249+404713280+405654997+402959477
1768+399654650+397480943+397498323+400124619+403897302+406427025+407507337
1758+408541328+409711766+410918631+413613040+419071858+425764076+430042859
1748+430423593+428917151+427963205+428685687+430973162+433633402+435351668
1738+436971025+441146750+448305565+453735478+452891224+448759895+445504207
1728+444054427+444412110+446394376+449296123+453239458+459924301+470360593
1718+481633580+487277873+485172242+480120578+476551862+476095309+479079287
1708+484963902+491853009+497575050+502742371+510196315+520192025+528206619
1698+531183186+530842512+528135134+524405030+523164405+526148680+532226367
1688+540351763+551549670+565344226+574666853+574173204+570119474+569267068
1678+573246237+580711150+588561429+594594386+600176423+606843515+612217768
1668+613360894+613004397+615881130+622607812+629428102+632928742+634682620
1658+638775891+648104930+663525921+680649577+687982304+686107099+686925338
1648+692884846+697879440+696467311+692052303+689970240+691667419+697138059
1638+706097630+715536285+718473645+712882196+706029962+703330662+704599600
1628+707078183+708810938+709770590+709454930+706686777+703040202+701788830
1618+703112317+702906720+698127803+691641479+686833360+683841302+681290827
1608+678239329+674868539+671987952+670170335+669370476+669164805+669211498
1598+669418355+669708815+669832366+669487505+668522665+667015000+665239925
1588+663542301+662151220+661054379+660050628+659247953+659686571+662795509
1578+668483902+673422835+673660525+671477813+672244319+676869149+681535780
1568+683032772+683442114+686089755+692052673+702247978+718503366+738222707
1558+748692463+746716682+744473417+747544704+754824217+763890366+772906857
1548+781772449+792221156+805237458+819036202+830776822+837480231+835411139
1538+827480074+821866316+821203572+822765119+823081075+822447459+823721066
1528+827907204+833750721+840338362+848093846+855923742+860401378+860773292
1518+859694461+858123353+855880903+854557861+856554839+863272108+874519487
1508+886507580+889631786+879904820+868552271+863769722+865705554+871659875
1498+877042910+877375542+873700284+871897564+875423182+882368357+887122816
1488+885923844+881076221+876892529+875432372+876414926+878443329+880597878
1478+883269903+887424616+893380789+899315321+900864342+896379517+890736335
1468+888874174+891002115+893605805+893742549+893388201+896615206+904089791
1458+910893849+909859340+902407509+895904879+892664682+891745274+892037217
1448+892161731+891061407+889296486+888108557+887994048+889387204+893365966
1438+899915066+905433363+905535643+901909821+899189324+898358930+897398017
1428+895770285+895607452+897947586+901091952+903676076+906441339+908949420
1418+908049579+903057950+897384973+893567709+891726671+890952457+890441502
1408+890115244+890220118+890279337+889590578+888696592+888631963+889291076
1398+889944481+890376873+890193955+888507745+885699347+883492992+882481829
1388+881033160+877329516+872641391+870535166+872783990+878047625+883947544
1378+889344513+894297380+898538290+901095287+901710301+901489139+901564218
1368+902313307+903857215+906208022+908817568+910665424+911056979+910224213
1358+909218090+909184219+910373556+912130399+913929932+915622368+916917839
1348+917591849+917922331+918575811+920339991+923518301+927190594+929832084
1338+931001187+931491612+931955355+932587786+933510306+934411703+934517096
1328+933660465+932802870+933094442+934860104+937554068+940276566+942287033
1318+943343110+943699014+943774909+943971168+944717811+946143652+947601956
1308+948080225+947268360+945832884+944513103+943420783+942308971+941080204
1298+939922514+939149486+938918318+939017930+938913723+938060353+936260301
1288+933758372+931027276+928373706+925760455+923133418+920715462+918789190
1278+917361867+916201509+914978153+913299873+910873468+907744222+904376693
1268+901499145+899603557+898387464+896882616+894312648+890748861+887013940
1258+883967630+881645209+879288769+876465770+873615125+871267654+869507105
1248+868248988+867348925+866695816+866630150+867632641+869349387+870735576
1238+871301747+871495263+871873254+872525844+873313103+874210795+875237522
1228+876323171+877438170+878688801+880147253+881717842+883175701+884222959
1218+884785943+885337513+886521588+888502483+891034503+893878848+896814577
1208+899652251+902289294+904456442+905913189+907183609+909168062+911679329
1198+913533634+914486468+915774972+918225391+921105830+923485246+925485559
1188+927391374+928965373+930665368+933850350+938582055+942785536+944684162
1178+944839509+944991521+946121417+948086599+950208536+952008514+953662929
1168+955515529+957253620+958367730+959034106+959775857+960886187+962709289
1158+965574534+968915307+971548347+973332612+975162830+977290103+979039905
1148+980259037+982079174+985490579+989573845+992045016+991788871+989887651
1138+988157564+988073591+990690697+995551660+999737872+1000150846+997037460
1128+993707805+992953973+994898477+998077751+1001501533+1004895299+1007843554
1118+1010021226+1011643548+1012891141+1013909789+1015269445+1017061418
1110+1018469916+1019128584+1019272813+1018511643+1016760137+1015293162
1101+1015442209+1017714157+1021755028+1026058640+1028630905+1028953383
1093+1028258695+1028315097+1030698293+1035056602+1037874191+1036136026
1084+1031931729+1029364652+1028772837+1027774496+1025961548+1025445331
1075+1028107795+1034025725+1041110238+1046119062+1047845072+1048109592
1067+1048497440+1048794867+1049092665+1050261250+1052016239+1053713493
1058+1056191631+1059725105+1062575304+1063382871+1062485179+1060430539
1050+1057666388+1055438984+1055242651+1057247634+1059857624+1061332307
1041+1062090512+1064582362+1069615645+1073741823+1072835608+1067574049
1033+1062156920+1059015149+1057673726+1057278021+1057864352+1059060508
1024+1059519655+1058777830+1057791940+1056662044+1054295969+1051316734
1015+1050363974+1052714707+1056907960+1060577511+1061988084+1060394074
1007+1056611645+1052764735+1050422303+1049315086+1048242259+1046762610
998+1045325059+1044162700+1042964839+1041513873+1040055791+1038827543
990+1037369758+1034868051+1031457165+1028402406+1026409578+1024527406
981+1021499328+1017691106+1014798957+1013705303+1013408173+1012349576
973+1010334884+1008449451+1006970914+1004696372+1000778014+995670467+990019577
963+984267890+979305017+975940083+973428593+970009850+965176606+960441195
953+957562980+956536253+955896262+954386300+952094415+950362994+950448079
943+952120133+953744456+953842437+952273775+949977740+948260475+948295532
933+950266866+952597513+953017676+950953401+947807775+944781254+941891476
923+939243242+937761740+938103044+939780656+941546319+942054754+940614905
913+937989795+935932487+935534929+936421281+937626924+938622448+939075296
903+938333989+936112143+933318716+931290980+930447320+930342964+930527365
893+930632906+930393956+929832010+929002727+927899364+926854479+926439578
883+926589663+926584104+926174910+925823231+925564492+924720461+922985631
873+921118726+920372231+921293862+923046257+924091513+923634144+922175618
863+920722280+919839560+919532795+919783677+920618518+921712913+922545457
853+923020391+923452857+923952027+924159848+923666459+922637508+921795552
843+921634128+922098167+922974810+923917934+924229221+923310999+921334848
833+919287027+918507995+919952291+923157654+926044244+926864781+926265925
823+926274448+927722376+929533767+930291973+930088302+930356824+931912738
813+933935138+935104835+935136853+934843576+935148267+936214423+937155176
803+936892509+935690721+934987287+935385808+935847327+935378841+934633532
793+934986990+936669050+938384684+938415590+936179737+933056198+931099762
783+930667444+930405148+929932807+930371721+932007681+933719683+934680521
773+935206077+935886312+936942315+937970228+937848159+936012532+933813959
763+933079174+933708269+934022076+933328648+933146323+935377878+939872115
753+944233389+945860010+944168464+940551461+936791341+934086927+932785082
743+932546207+932785379+932983935+933155884+934411481+937890405+942375675
733+944491461+942506638+938576867+936031950+936218722+938353111+940645885
723+941285727+939756124+937362923+935854368+936173437+938259799+940562060
713+940477049+937332016+934118278+933829301+934913838+933074431+927592747
703+922370840+920346809+920530468+920301673+918345459+915522682+913907549
693+914800274+917426867+919759145+920214809+918017125+912982286+905843224
683+898329876+892735166+890660737+891276343+891605566+889688411+885811188
673+880062465+871331838+860436509+853849980+857468910+865217353+869025649
663+869142381+869767326+872455434+874747023+874579076+872600850+869648815
653+865754619+862639900+862472324+863224007+860429023+854313353+849949781
643+850082967+852430662+853404915+852228177+850987774+850976953+849955192
633+844825114+836605812+829619651+826515827+826387236+826916645+827568272
623+829122556+831008805+831254128+828246284+822034485+814748377+810466703
613+812435962+819731186+827952192+832393215+831713202+829619799+830809952
603+835439303+839238334+838557728
##END=
