##TITLE=<SNM>
##JCAMP-DX=4.24
##DATA TYPE=INFRARED SPECTRUM
##DATE=2/5/2025
##SAMPLING PROCEDURE=Instrument type and / or accessory
##ORIGIN=Admin
##XUNITS=1/CM
##YUNITS=ABSORBANCE
##RESOLUTION=4
##FIRSTX=4497.3318
##LASTX=599.83466
##DELTAX=-1.4281778
##MAXY=1.8466928
##MINY=0.39531335
##XFACTOR=1
##YFACTOR=1.7198667e-09
##NPOINTS=2730
##FIRSTY=0.41626835
##XYDATA=(X++(Y..Y))
4497+242035240+242442108+242751002+242118451+240861631+239833059+239183128
4487+238474557+237715613+237638970+238746940+240509174+241990707+242914234
4477+243381197+243047801+241651575+239954773+239075172+239181395+239584693
4467+239754267+239733283+239844686+240347276+241195044+241936781+242097327
4457+241819157+241685452+241699054+241161774+239905769+238779327+238517306
4447+238898043+239290944+239333884+238987665+238520633+238383081+238795373
4437+239623855+240635150+241623884+242432664+242924960+242873080+242193499
4427+241304767+240778732+240643416+240432046+239822402+239001960+238551408
4417+238946839+239958291+240750695+240789303+240251728+239458335+238431479
4407+237238912+236413099+236574356+237577126+238480674+238600256+237993108
4397+236863981+235486972+234608706+234897412+236060261+237124251+237474820
4387+237354267+237407205+237745453+237654947+236567788+234943557+233678524
4377+233227885+233629953+234565835+235155222+234594063+233191322+232045767
4367+231737168+231959056+232313316+232807934+233411408+233707410+233469250
4357+233201771+233554921+234446322+235182029+235250424+234760623+234280127
4347+234358728+234992336+235526151+235321400+234484843+233653727+233153287
4337+232765514+232307026+232008979+232115271+232393910+232384362+232022998
4327+231702979+231671251+231685218+231436661+231030036+230784355+230727103
4317+230570958+230182648+229851159+229971174+230498837+230965107+231122430
4307+231211844+231494728+231931886+232403873+232928521+233543935+234069120
4297+234099133+233476667+232646590+232137018+231945263+231889709+232095066
4287+232625155+233133168+233251001+232931450+232267569+231380517+230612424
4277+230549020+231505662+232926789+233723508+233478937+232840286+232530682
4267+232637441+232985757+233411634+233494064+232794920+231651601+231057588
4257+231432364+232155022+232646348+233094180+233664817+234016304+234126442
4247+234571848+235577218+236703088+237507067+237690158+236914995+235291474
4237+233598086+232533991+232319554+233009860+234286261+235122108+234733435
4227+233668681+233067512+233242856+233671125+233931534+234097244+234375588
4217+234709331+234903719+235076396+235646461+236709499+237661220+237682845
4207+236675414+235526671+235104918+235144756+234744351+233777278+232953890
4197+232748775+233074339+233562338+233628289+232920724+231944397+231526196
4187+231810137+232366063+232821242+232957078+232736541+232496961+232678734
4177+233288274+233970557+234605379+235456457+236602185+237537998+237635470
4167+236829081+235679714+234979271+235184039+235844038+235853811+234752374
4157+233371796+232751929+233030810+233784105+234741163+235637087+235916990
4147+235237843+234016373+233046822+232731066+232950286+233460447+234067440
4137+234550275+234748372+234755753+234878801+235368031+236180813+236950882
4127+237219002+236800698+235964851+235197850+234781607+234670983+234730870
4117+234907549+235133527+235233269+235067992+234747453+234561850+234639255
4107+234846657+235095561+235472000+235934873+236177278+235969894+235450912
4097+234959135+234732932+234806369+235009561+234973431+234448644+233843714
4087+233970419+234919835+235731543+235597907+234864696+234416795+234570601
4077+234988749+235362468+235691290+235906871+235714613+235046730+234311439
4067+233955430+234014294+234207521+234300626+234317833+234460497+234816506
4057+235248362+235618182+235952635+236323200+236693470+236921043+236950813
4047+237054626+237591352+238322831+238423300+237546316+236419926+235953449
4037+236102819+236077034+235568848+235182185+235404767+235834976+235950122
4027+236000911+236471027+237196129+237637584+237653682+237566330+237651516
4017+237733323+237324046+236273849+235107049+234524854+234790254+235685848
4007+236785068+237752765+238587520+239469495+240318961+240782215+240752532
3997+240551628+240420955+240143842+239493408+238868463+238983333+239903221
3987+240895975+241366178+241402568+241225473+240740801+240064305+239885720
3977+240610509+241570375+241838928+241472816+241176278+241137670+240984973
3967+240668126+240712192+241535770+242874986+244030037+244575565+244627481
3957+244464300+244247506+244215536+244911526+246864007+249654691+251590675
3947+251448947+250336905+250191624+250990042+251060100+249760740+248155968
3937+247482418+248460876+251151732+254297316+255653999+254360513+252272473
3927+251728677+252878980+253784330+253129304+252234975+253288932+256171699
3917+258007352+256415923+252426955+248814027+247128211+247515844+250223994
3907+256083532+265124594+274875856+281162120+281847211+278054502+271684681
3897+264702443+259702404+258653177+260972948+263235137+262857883+262133058
3887+264458166+268925915+271861983+272888008+273977974+273692629+269956792
3878+266020033+266278675+270615821+276236836+281534904+285059787+284396079
3868+280768925+278537857+278646488+277634967+273299416+268230341+266278138
3858+269543876+278765100+292311843+301254134+296097620+283175943+272147155
3848+266469528+266351228+270393464+276352034+282615512+288674759+293311476
3838+293930615+290111689+285086247+281480597+279218235+277508748+276612738
3828+276917109+278257867+281564344+288600819+297520757+301630608+298982743
3818+294933576+291499978+286100627+278890626+273578834+272984734+277409128
3808+284156134+289293275+292707794+297121583+301595327+301933055+298570573
3798+295326235+292659587+289381510+286426710+285569688+286999080+289911097
3788+293831082+298289092+302315976+305764822+310106387+316222436+322388910
3778+326434231+329103097+333166473+340995942+353333085+368283608+382180572
3768+393362820+402597785+410044265+416010493+422334239+429722219+435988400
3758+439261919+441391980+446206017+456211397+469960586+481058514+485437092
3748+487874730+493847925+502317154+507477895+508986980+513110208+524001306
3738+541306430+560406763+574045710+577749143+574060612+569495790+568510019
3728+571689619+577080480+581778313+583652748+582704198+580836660+580150634
3718+581193865+583409528+587252385+593667867+600157652+600480027+592722089
3708+582016196+574026267+571064103+571762467+572658512+572161884+572334127
3698+574906613+578835868+582724160+587381376+594704028+603822027+609120321
3688+606303714+599036097+593402051+592077408+594448817+598760716+604914055
3678+613621860+620839502+619752950+614204229+612960474+614504701+610209715
3668+599954772+591190478+586422776+583639509+581345696+580576320+583030940
3658+587650866+590192924+589091954+589071230+595081854+605967753+612020381
3648+605168573+591934138+581672611+576234513+572925367+569559246+566681574
3638+565990141+567821047+570764982+573904588+578805093+586837407+593442114
3628+590451600+580318684+572586773+572060790+578917762+589381683+596004966
3618+595162049+592015234+592072348+595393624+599040255+601198111+601808621
3608+600999390+599163494+597509060+597369810+599421339+603162860+607105320
3598+610009538+611779241+613047046+614753119+618408692+625459082+634801240
3588+640746432+637845887+629078057+621971662+620138262+622126577+624706965
3578+626253410+627054045+627401512+627470617+628814182+633520195+641005524
3568+646826646+646552652+641051895+634738442+630331792+627966136+626492332
3558+624857860+623414137+623417464+625012081+626807013+628029488+629627710
3548+632245735+634371498+633840629+630721609+627220189+625242132+624941729
3538+625138578+624901596+624585182+624693934+624206178+621656218+617936739
3528+615976842+616975574+618849870+619035490+617610759+616481718+616440269
3518+616547774+615910370+614971386+614869912+616206823+618566310+620588242
3508+620621859+618448062+616107289+615746098+617290741+619247588+620616175
3498+620861128+619149926+614987467+609313982+604025808+600517526+598894629
3488+598408952+598567887+599617980+601764122+604215449+605374987+604412852
3478+602435904+601133164+600821533+600372800+598764043+596349937+594352403
3468+593389921+592861686+591851309+590469275+589911443+590955437+592585196
3458+592881925+591328757+589088766+587293072+586323035+586446551+587709435
3448+589080587+589043712+587174893+584239691+581382744+579724220+579617963
3438+580077439+579850439+578855900+577901112+577542833+577583693+577241944
3428+575963915+574493611+574228835+575188336+575866946+575604076+575418837
3418+575982560+576581564+576274334+574822328+572604898+570522005+569585828
3408+569939879+570653249+570720206+569810506+568163038+566397009+565273340
3398+565026932+564969055+564212260+562807630+561724301+561628441+562037146
3388+562078630+561760864+561572679+561206082+560028071+558518501+557655657
3378+557214860+556265132+554871835+553827009+553393387+553547227+554545752
3368+556175822+557317409+557183254+556235432+555429355+555394802+556346298
3358+557949822+558932751+557880786+555129403+552747908+552221718+552983746
3348+553398412+552625224+551146845+549765158+548638266+547510749+546605382
3338+546742240+548379728+550817539+552606198+552804745+551836129+550990510
3328+551001184+551330941+550993490+549700142+547896303+546273926+545607828
3318+546424059+548374495+550130091+550309370+548912572+547517438+547456893
3308+548209564+548329684+547584810+547080662+547591811+548788987+549872420
3298+550291799+550012016+549555728+549729046+550681027+551292021+550521710
3288+549196305+548944179+549698201+550117511+550081884+550575289+551451476
3278+551541687+550650390+549590524+548749513+547976568+547281392+546855255
3268+546761301+546922316+547373960+548389397+550003976+551437510+551773158
3258+551242775+550824158+550673749+550011393+548543896+547060422+546511393
3248+546894417+547117605+546245647+544810311+544218758+544812980+545386199
3238+545073770+544710535+545280531+546151485+546219273+545676967+545202589
3228+544479896+542898275+540778749+538850979+537512543+537070845+537688494
3218+538922995+539850508+539621117+537994061+535719240+534056418+533472456
3208+533237658+532575995+531614657+530913520+530704992+530911198+531307010
3198+531305243+530243782+528420397+527190228+527362887+528043161+527658369
3188+525808298+523553890+522164613+522088403+522841386+523421918+523024684
3178+521668747+519937306+518246135+516753928+515665262+515026057+514370251
3168+513114575+511199593+509167402+507747523+507182794+506828431+505847755
3158+504337769+503207307+503082890+503821525+504783452+505203420+504548481
3148+502818114+500636658+498988565+498470103+498670349+498596704+497754168
3138+496516895+495508805+494894691+494291771+493395483+492567504+492425759
3128+492962103+493450345+493169661+492047274+490693208+489786454+489420412
3118+489214413+488803976+488029679+487069485+486377844+485961203+485050845
3108+483234876+481444831+481004762+482084903+483613950+484390326+483942182
3098+482498251+480538909+478565773+477137819+476789729+477583987+478762137
3088+479223589+478563000+477414656+476675501+476601855+476646909+476017685
3078+474473181+472617808+471325638+470982989+471384139+472120452+472847754
3068+473261137+473026686+471969834+470396496+468988817+468197954+467933178
3058+467857869+467685418+467319515+466935971+466696840+466356132+465605020
3048+464770110+464502561+464741657+464615541+463540253+461980881+460847785
3038+460401929+460121384+459561611+458833304+458158922+457560126+457147887
3028+457090392+457088624+456475758+454996270+453041398+451194411+449939810
3018+449586937+450108171+451085798+451844880+451721018+450584144+449117583
3008+448110914+447581778+447086952+446556291+446184877+445872517+445383998
2998+444746699+444085140+443400535+442702794+442006926+441174995+440108024
2988+439016308+438199938+437744101+437648102+437947743+438429295+438523215
2978+437853511+436701389+435629012+434853467+434237066+433650330+433042385
2968+432348423+431595648+430893679+430132448+429026211+427640504+426466270
2958+425832160+425653401+425792547+426180111+426493233+426145351+424808128
2948+422828130+421030668+420044758+419816510+419909286+420124434+420474222
2938+420744994+420595624+419947685+418927015+417695772+416595115+416088297
2928+416225780+416373694+415773235+414317972+412570034+411139446+410319368
2918+410114756+410268804+410415852+410415852+410336246+410120266+409666196
2908+409147076+408824319+408676648+408513762+408200883+407623193+406731653
2898+405641843+404544236+403682431+403391420+403801927+404516545+404881617
2888+404573416+403783420+402935201+402293154+401796144+401267875+400686407
2878+400147983+399710687+399336535+398878791+398177238+397271247+396393050
2868+395713643+395258845+395021378+394969775+394952204+394706108+394048257
2858+393103416+392245146+391697850+391286823+390685948+389832461+389031860
2848+388676319+388825723+389092093+389044960+388630641+388040198+387379297
2838+386694726+386110105+385705490+385399819+385048852+384524429+383728299
2828+382749460+381965944+381725948+381918742+382093896+382012072+381792627
2818+381495239+380935882+380038451+379051918+378247262+377597590+376886265
2808+376018465+375178217+374722102+374850677+375320170+375595932+375412945
2798+375043299+374828081+374621979+374015073+372967614+371829077+370849094
2788+370093616+369673058+369583644+369440998+368805744+367750867+366774281
2778+366186090+365856090+365523630+365083353+364557648+364027472+363597939
2768+363256814+362878954+362509688+362360561+362369364+362127253+361420849
2758+360536275+359922300+359720460+359595870+359025423+357906293+356757429
2748+356124046+355981157+355890703+355524349+354874989+354130324+353499159
2738+353119427+352985375+352865984+352414721+351537598+350566244+349929292
2728+349770010+349933277+350127215+350038876+349479623+348508165+347382347
2718+346412622+345814519+345549050+345322119+344914628+344476118+344275110
2708+344218897+343906157+343154595+342224725+341514959+341190469+341067231
2698+340786027+340181236+339470950+338993521+338824363+338760491+338621379
2688+338434373+338287117+338105447+337750738+337297984+336964207+336745975
2678+336389740+335743084+334923248+334155121+333599368+333310298+333235717
2668+333210452+333011281+332544457+331995914+331642867+331505627+331355357
2658+331041923+330619321+330183757+329786940+329501578+329398890+329406446
2648+329308298+328965233+328449232+327895108+327337450+326788109+326343465
2638+326075085+325888078+325632867+325336831+325183684+325236362+325339014
2628+325344802+325251056+325063564+324729614+324232743+323621540+323006213
2618+322564896+322381320+322273296+321989320+321510263+320998282+320602330
2608+320420002+320434939+320411719+320062104+319380098+318663366+318192903
2598+318004787+317962714+317936202+317862245+317699429+317421275+317076027
2588+316780372+316599950+316475879+316317811+316118778+315925221+315781293
2578+315750760+315832758+315818514+315463977+314842551+314274772+313918711
2568+313677813+313450952+313236220+313044915+312883347+312778025+312721986
2558+312628309+312394343+312014542+311597831+311263777+311060689+310980910
2548+310978519+310970548+310903695+310787007+310599064+310257558+309780060
2538+309367058+309204554+309272966+309455329+309703054+309939377+309950848
2528+309610174+309114793+308799211+308774951+308861558+308780808+308396432
2518+307865945+307520072+307518721+307724477+307916197+307952378+307754073
2508+307344849+306918643+306710045+306761163+306876327+306848636+306706336
2498+306639935+306697083+306723803+306626904+306489664+306404166+306384308
2488+306427975+306497392+306494065+306375678+306229358+306159837+306157169
2478+306097317+305861341+305466533+305054467+304739751+304542208+304454146
2468+304472964+304576726+304729908+304871099+304895116+304733651+304438793
2458+304143623+303995467+304081172+304297013+304375961+304182820+303871777
2448+303658674+303594629+303608803+303601352+303479292+303238845+303000408
2438+302882402+302890373+302978713+303132103+303319491+303432159+303357024
2428+303115121+302871069+302789800+302909573+303141806+303353835+303451740
2418+303427030+303354875+303343092+303464875+303723413+304039792+304256257
2408+304239969+304058645+303950656+304036361+304196301+304314445+304443125
2398+304629023+304785151+304849127+304894735+304987476+305070963+305069334
2388+304979054+304766575+304268664+303304207+301830160+299890329+297490328
2378+294639931+291452152+288090640+284668150+281264201+278001287+275099685
2368+272869120+271482789+270668048+269919726+269269691+269551379+271635642
2358+275583057+280671973+286240535+292408604+299469841+306538460+311726823
2348+313683358+312622244+310252464+308387006+307318440+306290493+304952576
2338+303516166+302188197+300947770+299694242+298467678+297476674+296891359
2328+296696243+296729409+296755713+296602012+296336716+296217289+296438606
2318+296990234+297667389+298214512+298600100+299080509+299830616+300658041
2308+301263525+301619206+301909974+302230894+302483852+302511681+302273348
2298+301910217+301647555+301630296+301839760+302129766+302335279+302396517
2288+302392047+302416583+302446631+302367891+302110601+301718150+301300955
2278+300964994+300770709+300690722+300589213+300330536+299950008+299638099
2268+299523663+299549898+299568924+299491675+299355301+299278710+299335166
2258+299489283+299668735+299806044+299798940+299580188+299246306+298976782
2248+298838399+298771512+298705907+298627583+298606928+298741742+298979243
2238+299103868+299034312+298969816+299085153+299260723+299282003+299154120
2228+299059404+299099051+299209605+299293578+299324595+299321996+299306020
2218+299302415+299331596+299380496+299426832+299456117+299426486+299312778
2208+299207560+299233934+299339706+299364901+299329794+299437680+299733508
2198+299968306+299922456+299717809+299654214+299827531+300072796+300219081
2188+300231315+300146268+300031104+299960508+299918020+299800083+299606942
2178+299515796+299664126+299944081+300096570+299981060+299699025+299462147
2168+299401464+299526643+299790379+300106066+300360584+300492521+300520558
2158+300482956+300433744+300461712+300590114+300708917+300726557+300705971
2148+300747940+300849345+300956711+301053368+301156818+301310000+301550100
2138+301814530+301953676+301917598+301847280+301904394+302081524+302241429
2128+302278131+302203584+302158877+302364391+302919207+303598545+304020523
2118+304078157+304029638+304120473+304330491+304533440+304691023+304822753
2108+304948140+305116537+305382768+305716615+306011819+306202534+306314579
2098+306382540+306388224+306356236+306463671+306903012+307590425+308157926
2088+308329753+308190746+308007655+307919385+307877520+307805816+307749741
2078+307843903+308124725+308463631+308741681+308965008+309170694+309399428
2068+309748488+310223006+310594281+310644741+310469206+310328119+310325832
2058+310375356+310369360+310300151+310258321+310332521+310525003+310785066
2048+311061417+311320683+311622888+312095014+312653504+312915958+312644459
2038+312092449+311676328+311533301+311584280+311774822+312060288+312324406
2028+312472043+312546312+312680744+312949610+313342338+313902526+314692245
2018+315469869+315693438+315147528+314295809+313757281+313737111+314059763
2008+314413260+314518373+314339927+314139993+314198285+314548005+314986237
1998+315307087+315657985+316532889+318042563+319406333+319734704+319086106
1988+318136170+317296165+316707558+316515353+316665936+316822479+316755419
1978+316587196+316566125+316754448+317001030+317248478+317783228+318860700
1968+320055277+320507337+320039959+319402902+319196245+319272351+319332480
1958+319416037+319588141+319712835+319719004+319728916+319894713+320325355
1948+321167787+322671985+324923517+327157651+327800634+326188585+323674044
1938+321998955+321563149+321781346+322129402+322392445+322510728+322588809
1928+322962753+324148735+326290545+328512099+329732182+330259828+331025080
1918+331459361+330239416+327932329+326564366+327061965+328576179+329655522
1908+329570614+328752372+328089081+327929349+327981819+328001330+328207225
1898+328970085+330149898+331038318+331475338+332418827+334319843+335777740
1888+335328938+333677761+332388399+331841727+331636421+331622836+331834726
1878+332195917+332615954+333169142+334460064+337655155+343156224+348734507
1868+350338932+346834531+341599555+338082089+336942374+337056498+337344736
1858+337433526+337410064+337484437+337784632+338466430+339866520+342299375
1848+345969885+350827139+355351655+356287867+352675996+347980069+345445808
1838+345183181+345635865+346154431+347913389+352139132+357568669+360760711
1828+360499539+359069575+357742125+355498634+352337298+350085419+349761727
1818+350522646+351198969+351916429+353659549+356419874+358544632+358563208
1808+357088122+356040835+356957917+360272227+364894059+368417001+369128639
1798+368012005+367786876+370483710+375670859+379472787+377705303+372010989
1788+367620524+366943959+368711755+370896850+372871026+374439235+375028881
1778+375196862+377104081+382471445+390325277+396289773+396444688+392166718
1768+386870851+382495600+380724651+382638732+386471226+388783199+389079582
1758+389227254+389418281+389552159+391854359+398267484+406546033+411188520
1748+410003301+406168311+403213008+402435003+403585566+405353015+406131402
1738+406768320+410733341+419078534+425736715+423652609+416002696+408506034
1728+402985523+400217955+400414769+402381043+405637338+412193837+423853756
1718+437355150+443650235+438819563+429309702+421532321+417871030+418917450
1708+424235220+431430163+437167346+441619188+448472555+458434442+465820792
1698+466470810+462246246+454222354+444811299+439235164+439575387+443908149
1688+450662641+461272467+475239645+483048078+477405957+466808712+460225770
1678+459937358+464567299+470318173+474103534+477316785+481673841+483778187
1668+479870107+474062917+472527562+475635562+478654182+478081759+476467423
1658+478651305+487807254+504806187+523475427+527777934+519573135+515921894
1648+519833544+522537067+516193948+505935055+499760991+499882462+505992065
1638+517137888+528931893+532025371+524139170+515246542+512284758+514916542
1628+519664212+524079976+528228088+531474610+531646125+529870185+530639491
1618+535574029+540130291+538909479+534365555+531732316+532299505+534447102
1608+536321155+537422263+538377466+539700965+541076657+541895834+542308975
1598+543232572+545214545+547726660+549807578+551101618+551895981+552519349
1588+553199310+554188581+555583022+557147003+558751670+561227326+566313972
1578+574648144+582515181+583604506+579620527+578339933+582242711+586879342
1568+587346027+585225531+584495318+587205945+595672471+612889013+634779545
1558+642310898+631025131+618205396+610925442+608236301+608235816+609344549
1548+611782152+617997111+629700835+645677366+663024424+676121065+675097796
1538+662240840+652412797+651567870+655684236+658051695+658094253+660790047
1528+668271703+678013312+687410852+697218724+707705658+715365171+718292818
1518+718938608+718322899+716004307+714113307+716245517+724612439+739526331
1508+757116054+764221687+752505555+736770095+729385201+730746025+737169616
1498+743709653+745754598+743156466+741048724+744126087+752466185+760687620
1488+762135016+756806987+750300289+746949278+747373960+749922186+753573462
1478+759220469+767932017+778945799+788662317+791316939+785522364+778018597
1468+775341518+778307356+782870514+784606045+784823688+788635146+798535621
1458+810561582+814165448+806217938+796380400+790917419+789920142+791317563
1448+792357121+791157450+788399204+786192622+785895477+788073433+793071323
1438+799577258+802938944+799891940+794598845+792380965+793624996+795512253
1428+796348862+797226851+799327939+802280954+805786326+810282320+814118939
1418+813041952+806734113+800103622+796311156+794634541+793258399+792094216
1408+792503510+794700527+796897406+797886435+799065451+802073639+806190075
1398+809433650+810880908+810368684+807865788+804963094+804370814+806835795
1388+809837538+810175578+808531818+808780652+812733508+818625676+824088034
1378+828922830+834305339+840012857+843964951+845325220+845948553+847252194
1368+848646773+849971347+852497324+856177642+858340834+857067622+854088614
1358+852260897+852315308+852946196+852840493+851903519+850554201+849044423
1348+847915174+847864506+848883616+850609790+853241885+856713501+859307544
1338+858993347+856323130+853960801+853504928+854213100+854496452+853984922
1328+853805955+854906717+856753564+858205327+859246895+860819609+863068472
1318+865043133+866301998+867555317+869438623+871651860+873492331+874600994
1308+875080017+875436771+876547236+879043547+882428175+885273963+886557988
1298+886319274+885128822+883689466+882703140+882348188+881962738+880539532
1288+877497657+873198928+868966948+866344348+865883485+866519364+866430227
1278+864868256+862865940+861806835+861924737+862623067+863512354+864558150
1268+865701608+866678091+867077334+866895110+866999911+868204157+869930053
1258+870845402+870723342+870657633+871583725+873367151+875367597+877308363
1248+879181065+880726331+881790841+883052132+885493409+889008068+892259545
1238+894185063+895056467+895783562+896719219+897587643+898297063+899203678
1228+900582108+902422093+904825040+907967557+911403823+913991558+914906145
1218+914620436+914831633+917207201+921868853+927033026+930418069+931376323
1208+931304861+931722819+932653763+933220329+933553378+935227220+939022459
1198+943249449+945603322+946185552+947118367+949521660+952477933+954910407
1188+957051558+959428512+961526620+962581288+962979422+963773127+965306332
1178+967207105+969266606+971434927+973393923+974830784+975751262+976273189
1168+976641450+977522281+979612833+982671066+985511932+987416448+989049881
1158+991212034+993712989+995952772+997408694+997567768+996244303+994609762
1148+994527556+996355343+998993538+1001602344+1003756387+1004670766+1004231113
1138+1003792985+1004833790+1007399484+1010401919+1013580826+1017438793
1130+1021056729+1022449160+1021278323+1019147777+1017589757+1017408781
1121+1018902201+1021272778+1023410810+1025278243+1026542306+1025685943
1113+1023084206+1022253905+1025447159+1030800695+1034854957+1036231723
1104+1036243021+1036298333+1036146537+1035257458+1034569040+1035302789
1095+1036922844+1038065539+1038509975+1038973888+1039876483+1040841529
1087+1041776979+1043557147+1046632846+1050074380+1052167913+1052328165
1078+1052333502+1054006166+1056475306+1057503635+1056431639+1054885472
1070+1054835497+1056289409+1057145633+1056195212+1055013147+1055704753
1061+1058652015+1061979460+1062282011+1057372287+1050661878+1048984640
1053+1053960211+1060398636+1064073339+1066345769+1069492930+1072561975
1044+1073741823+1073183367+1072229273+1071769103+1071488177+1070845437
1035+1070196874+1069798185+1068758766+1066335233+1063552312+1062292547
1027+1063331966+1065046495+1064967270+1063223560+1062124740+1062594267
1018+1063162357+1062553649+1061636013+1062076359+1063671531+1064562412
1010+1064347195+1064673244+1066380287+1068026334+1067567689+1064617516
1001+1061258187+1060511616+1063059496+1066257395+1067250859+1065636488
993+1062449957+1058861826+1056463800+1056400102+1057497467+1057194915
984+1054598238+1051176874+1049032812+1049209561+1051067498+1052618518
975+1051701436+1048047111+1043685861+1040175915+1037077828+1033871404
967+1030611678+1026765286+1022006318+1017701420+1015379016+1014519880
958+1013512969+1011775982+1009921302+1008732236+1008100586+1006556429
950+1002721820+997400515+993006342+991004302+990707365+990309993+988642043
940+986142820+984345462+984121442+984613565+984363068+982983183+980967558
930+978834031+977446522+977528172+978117542+977593396+976476485+976694128
920+978367138+979736765+979398794+977021494+973509676+970892760+970032723
910+969242693+967397578+966577535+969043487+973542808+976480574+975575830
900+971284241+965738222+961439978+960114227+961617697+963952301+964964688
890+964388419+963823864+964226226+964239604+962203116+958759780+955730312
880+953726817+952280322+951021596+949743532+948451258+948169501+950485944
870+955261132+959433087+959513144+955439266+950432643+947468260+947608550
860+950289650+953374637+954261914+952535533+950229347+949106683+949390381
850+950551307+951667594+951614847+950039845+947637384+945128596+942901705
840+941541436+941721234+943452536+945642969+946654663+945806617+944382371
830+944696152+948062481+953507857+958073372+959208790+957282094+954950262
820+954259419+955253507+957484557+960891019+964065836+963901633+959402243
810+954448089+953604687+956135031+957167658+954785574+952303542+952975740
800+955975264+958456258+959195828+958794713+958072471+957559762+957407620
790+957208137+956985156+958147745+961605775+965355267+966298619+963954658
780+960218335+956927280+955488340+956587368+959026288+960843331+961574515
770+961685901+961040874+959998959+960169677+961955252+963554652+964271419
760+966005424+969498874+972034555+971001720+967320224+963407847+960496419
750+959067114+959102671+959301877+958523699+957697279+958525016+960998523
740+963227702+963786088+963800575+965684227+970223819+975667809+979444194
730+980079102+977782829+974531629+972712298+972579910+972277705+970641985
720+968421402+966908713+966920149+968587614+970958608+972462563+972581366
710+971681613+969474822+965872482+962818616+963027456+966402519+969270418
700+968454533+964936478+962098106+961521629+961239664+958207562+952276440
690+946206762+941710559+937841156+933444903+928901499+924990369+921603661
680+918527685+915796125+913731565+913517595+915691254+918181119+918203785
670+915685570+913615743+914294249+915982300+916172495+914297576+911589513
660+909383208+906995025+903705148+900825743+898708644+895564879+891952973
650+891354108+893461573+893516677+890295351+888739202+892405449+899508240
640+906690532+910313805+907162970+898685771+890594159+887252228+887450464
630+885833112+880714964+877380518+880073609+885848985+887599903+882856877
620+876843134+875465536+879475368+885765878+891249584+894202530+893620369
610+889196461+882308125+875420275+870632680+868456388+867341486+867610421
600+870984583
##END=
