##TITLE=<SNM>
##JCAMP-DX=4.24
##DATA TYPE=INFRARED SPECTRUM
##DATE=2/5/2025
##SAMPLING PROCEDURE=Instrument type and / or accessory
##ORIGIN=Admin
##XUNITS=1/CM
##YUNITS=ABSORBANCE
##RESOLUTION=4
##FIRSTX=4497.3318
##LASTX=599.83466
##DELTAX=-1.4281778
##MAXY=1.859726
##MINY=0.39561781
##XFACTOR=1
##YFACTOR=1.7320048e-09
##NPOINTS=2730
##FIRSTY=0.41960269
##XYDATA=(X++(Y..Y))
4497+242264168+241548845+241236816+241327445+241669981+241933177+241562180
4487+240262582+238562994+237583271+238007558+239347127+240459721+240756470
4477+240487200+240090428+239912716+240270308+241142557+241993728+242259246
4467+241783563+240797698+239886183+239759712+240655122+242065859+243127555
4457+243317880+242839100+242173281+241398578+240353331+239242148+238446246
4447+238060193+238206365+239222463+240852364+241902239+241597902+240766519
4437+240774400+241732270+242421300+241821487+240142324+238222643+236656700
4427+235820431+235987372+236933438+237858340+238182568+238161077+238294895
4417+238529114+238537167+238453008+238745301+239502539+240295946+240675151
4407+240566644+240324338+240379348+240716774+240889737+240583696+239800217
4397+238582266+237128047+235951203+235382500+235267575+235456868+235977667
4387+236431463+236086500+234951124+233885109+233527190+233769066+234198773
4377+234524429+234622491+234547108+234469712+234535115+234831709+235417068
4367+236188967+236719144+236430293+235136287+233345658+231923427+231433634
4357+231739847+232237916+232436655+232295507+232135897+232335943+233025783
4347+233936042+234612184+234811457+234593876+234168403+233764851+233433258
4337+232938544+232112805+231116960+230159279+229411624+229288664+230221326
4327+232017806+233773489+234488467+233793689+232213723+230715885+229916490
4317+229835979+230267269+231008402+231836033+232481393+232621164+232043634
4307+230991659+230087165+229716392+229735939+229891093+230202537+230766525
4297+231469545+232142108+232824910+233634406+234443764+234957044+235034302
4287+234774772+234326482+233616941+232399230+230839121+229782827+229865610
4277+230548205+230645905+229750186+228649534+228416123+229378536+230825046
4267+231597185+231213782+230360203+229989189+230251714+230776987+231505197
4257+232386291+232792837+232326738+231686420+231738866+232363079+232872022
4247+232906866+232515153+231919813+231385679+231045895+230891533+230874085
4237+230840308+230619802+230353836+230435999+231024438+231791106+232125383
4227+231722640+231063962+230890862+231191517+231329412+231089842+230904920
4217+231116030+231625748+232187053+232613507+232764669+232559116+232022745
4207+231303292+230636820+230258080+230289517+230661064+231122087+231431587
4197+231618109+231922532+232427398+232946494+233335661+233630534+233734842
4187+233314135+232288212+231193616+230687442+230767007+230848172+230633568
4177+230542096+231116306+232309927+233586605+234466339+234811663+234801511
4167+234702692+234534478+234044066+233143873+232172341+231595482+231649821
4157+232270988+233111593+233619109+233348376+232361203+231245254+230545624
4147+230216405+229870359+229488487+229507862+230159107+231065958+231643351
4137+231722503+231644194+231716755+231818706+231797542+231916217+232366520
4127+232693106+232353821+231522731+230812519+230565136+230711153+230934670
4117+230830431+230294834+229802770+229922409+230608085+231321979+231727200
4107+231862394+231746902+231357614+230985138+230987323+231148930+230921301
4097+230312144+229928569+230146838+230783543+231495321+231925526+231582250
4087+230339038+229057473+228876010+229837838+230905401+231271718+231025694
4077+230678891+230659722+231100475+231709890+231966134+231577655+230706731
4067+229863269+229579305+229917695+230375121+230431026+230070612+229730175
4057+229818566+230266615+230634136+230701741+230636854+230566289+230528365
4047+230811590+231650354+232594338+232859272+232354802+231768496+231621636
4037+231782795+231971503+232178690+232365470+232301857+232000135+231818672
4027+231938139+232145997+232197721+232128016+232232169+232808151+233792812
4017+234699044+235023307+234552304+233314445+231641269+230221120+229622907
4007+229740877+230010009+230116485+230223030+230586731+231238199+232041483
3997+232856227+233520961+233742241+233215350+232032294+230879677+230619940
3987+231552327+233045089+233978663+233770443+232947216+232533340+233064360
3977+234305713+235566252+236183220+236072305+235745237+235507163+235010230
3967+234029199+233218723+233473333+234748824+236013044+236368469+235829912
3957+234975025+234413256+234738568+236446364+239421650+242454819+243745143
3947+242698348+240896121+240224159+240651388+240736459+239816289+238620517
3937+238096207+238799279+240918455+243883176+246040913+245891369+244051734
3927+242682569+242766762+243166219+242826797+242618439+243696465+245343950
3917+245474086+243059261+239414423+236692869+235898481+236785442+239231463
3907+243849519+250731118+257979532+262519126+262947886+260094562+255141144
3897+249526106+245591780+245287804+248112083+250627344+250170158+249116652
3887+251061834+255197497+257867481+258595038+259150595+258127029+253864500
3878+249866079+250305352+254737317+260168362+264852493+267512567+266580473
3868+263625852+261971019+261716599+260176381+256511600+253107159+252535943
3858+256226156+264970360+277235841+284555835+278836111+266728658+257038232
3848+252351916+252444196+256233451+262168778+268829888+275078120+278862127
3838+277820925+273034757+268474309+265875612+264032605+262124315+261074079
3828+261332439+262218127+264411155+269703445+276412287+278960189+276651273
3818+274201174+272177667+267699777+261707307+258096608+258954558+263822716
3808+269960979+274374154+277814541+282303133+285417640+283403459+278897419
3798+276293164+275057231+272975101+270578464+269744397+270957238+273704705
3788+277641216+282326363+286950029+291596064+297592818+305134127+312004851
3778+316674684+321129361+328537421+340428136+356001631+371779611+383469110
3768+390230949+393822119+394916405+394697052+396172883+400664177+405492312
3758+407404094+407582426+410264146+418186724+429832070+439381520+443827147
3748+447553494+454325657+462076373+465814868+466577819+469777293+478266389
3738+492561484+510345782+525095241+531002967+530328631+530452039+536113191
3728+547244190+560162842+570173711+575950390+579680006+582691340+584548026
3718+585380768+586926011+591292487+597956282+601409143+596080392+584763938
3708+574111839+567459642+565094321+565337626+565497374+564606232+564321735
3698+566132203+570046415+575518877+582168046+589732240+596944520+600521477
3688+598118439+592042292+586338363+583215804+582808071+584656429+589935900
3678+600276658+611297568+612903241+605675612+599282516+596089064+591522095
3668+584298871+577559917+572870297+569838143+567820401+567110963+568701804
3658+572062918+574502194+575368042+578278819+586088589+596109231+599738084
3648+592111601+579890549+570337657+564741031+561381981+558957297+557992131
3638+559238869+561488595+563021448+564927587+570454905+579830187+586279034
3628+583058190+574939936+569610737+569239001+572756354+577370986+579204547
3618+577393080+575627521+576797001+580451698+585045717+589603739+592391178
3608+591416376+587923732+585178003+584191157+584143597+585074418+587686897
3598+591811238+596259137+599250304+599872572+600264062+603949423+610762986
3588+615284667+613173388+606985741+601416576+598253478+596885810+596112603
3578+595574305+595794277+596688895+597450332+598515160+601647905+606739133
3568+610110021+608615091+604510778+601848537+600933408+599362011+596083696
3558+592727468+591547561+593182899+595826213+596650558+595208212+594080683
3548+595340361+598046514+599546881+598671742+596869773+595866202+595205941
3538+592970360+588785313+584804959+583400743+585083228+588275302+590412873
3528+590224768+588841614+587699424+586544432+584733241+583025428+582460975
3518+582389876+581152429+578569477+576317274+575587085+575668576+575204714
3508+573994317+572778619+571879700+570597997+568175722+565456904+564383610
3498+565480959+567036526+567202985+566088257+565218142+565530033+566311120
3488+565780737+563109926+559744613+557570323+556380539+554620658+552048683
3478+549924465+549134568+549527847+550439741+550985851+550430896+548827701
3468+546932678+545477048+544765408+544582258+544547914+544556414+544306502
3458+542839619+539742010+536359834+534484564+534614201+536106033+537812022
3448+538466673+537817287+537115386+537203107+536997967+535104836+532033450
3438+529596205+528876271+529632168+530948146+531713679+530902548+528340141
3428+525224120+523202833+522876901+523356043+523132801+521686876+520182104
3418+519856585+520193530+519783147+518435197+517202534+516858673+517223079
3408+517532905+517307014+516983422+517175657+517498767+517145820+516134299
3398+514878613+513365478+511710318+510533646+510055021+509593465+508512806
3388+507179449+506558454+507086188+508100565+508373913+507242598+505378994
3378+504393696+505165216+506638982+506908820+505405527+503250130+501682002
3368+501193500+501928404+503687906+505543319+506305754+505632761+504326005
3358+503532976+503845349+504741791+505048761+504218806+502779936+501583441
3348+501080795+501248252+501761429+502296458+502772468+503148541+503245691
3338+503031362+502748895+502515845+502170367+501707090+501438835+501614310
3328+502074972+502312185+501915705+500950815+499661507+497948291+495644674
3318+493203919+491579731+491304662+491986225+492861399+493657422+494494363
3308+495099974+494721734+492984704+490681431+489291600+489685947+491481239
3298+493556934+495093952+496008495+496446031+496253349+495258243+493859189
3288+492918698+493037632+494002763+494948898+495257795+495315266+495925765
3278+496986429+497553428+497276983+496682728+495972499+494817851+493425646
3268+492578519+492510208+492691843+492620366+492100685+491117349+490005959
3258+489231273+488686470+487869593+486859655+486418575+487007909+488241742
3248+489295420+489509611+488727423+487324411+485931759+485042544+484767476
3238+484851720+484884792+484536594+483669852+482426761+481270943+480641380
3228+480386271+479831075+478595108+477006745+475696926+475175628+475597608
3218+476485584+476869400+476203909+474988383+473998405+473260129+472304633
3208+471029675+469786688+468921494+468577873+468670136+468841723+468606196
3198+467627884+465981224+464235762+463087860+462720838+462666155+462381485
3188+461771124+461085191+460477548+459730806+458482381+456836892+455386734
3178+454354186+453288223+451949772+450806756+450251973+449987676+449539920
3168+448843525+448128064+447604804+447219750+446566785+445394001+444131433
3158+443277182+442524589+441297295+439799749+438679378+437998297+437333012
3148+436606745+436116660+435834743+435249195+433992407+432301182+430778343
3138+429936378+429916211+430365310+430627817+430229100+429128104+427577424
3128+425977394+424730002+423996406+423637127+423473800+423492142+423657156
3118+423700138+423305964+422487263+421595846+420942984+420536076+420105837
3108+419293468+418046591+416885784+416388403+416407709+416262208+415698856
3098+415197621+415181378+415309982+414971558+414268211+413836388+413804865
3088+413723305+413357625+412810758+412158309+411556173+411236263+411022623
3078+410415360+409266803+407909562+406738844+405972520+405631343+405575765
3068+405583164+405385732+404827577+404096768+403507813+403021823+402379629
3058+401658801+401264420+401353310+401523280+401162108+400088539+398764370
3048+397820059+397461916+397365144+396998122+396109424+395037507+394357080
3038+394129433+393828382+393104284+392224808+391570329+391034784+390253421
3028+389232849+388324191+387649063+386995892+386272929+385656030+385197089
3018+384664159+383943089+383279663+382927542+382783108+382507385+381879301
3008+380987265+380165397+379716196+379590276+379426777+378965324+378220646
2998+377274133+376247642+375469239+375231130+375328246+375206318+374626517
2988+373862705+373207297+372627633+371995729+371316506+370588520+369749858
2978+368889310+368197526+367647630+367051586+366427803+366003517+365889333
2968+365960982+365968863+365660929+364947499+363988872+363001681+362039544
2958+361094269+360309156+359890857+359824818+359848769+359715348+359324408
2948+358637683+357704419+356755359+356043546+355598819+355259603+354878885
2938+354430406+353972222+353518615+352986821+352386061+351949111+351848038
2928+351882073+351666850+351057246+350233658+349426520+348663431+347838948
2918+347010474+346438415+346231623+346139704+345816560+345161909+344357971
2908+343685597+343334405+343306840+343438541+343493706+343313482+342976056
2898+342753743+342772395+342793870+342505242+341947775+341457415+341211047
2888+341053880+340776127+340325446+339732016+339072031+338515975+338184433
2878+337948080+337537766+336845810+336013653+335272933+334824627+334802326
2868+335145568+335476318+335312681+334539991+333550873+332838304+332518016
2858+332264662+331692053+330804318+330002376+329601182+329454786+329143411
2848+328476577+327732485+327330120+327308921+327320966+327137541+326909069
2838+326855143+326915298+326810680+326361616+325690102+325079913+324648985
2828+324280243+323888546+323553529+323295805+322937215+322364090+321774342
2818+321430584+321275929+321053342+320697504+320311348+319877461+319306056
2808+318657599+318097207+317729050+317547862+317416642+317134244+316659886
2798+316182671+315903198+315836435+315813688+315600736+315066567+314284275
2788+313430576+312633452+311971126+311522854+311315408+311239526+311084251
2778+310678996+310015053+309248695+308575254+308068512+307629566+307128709
2768+306609545+306268987+306209417+306282512+306214132+305835134+305166270
2758+304349048+303569579+302995077+302661471+302422674+302099633+301640073
2748+301061889+300364599+299613039+298975904+298559395+298281161+297966689
2738+297516145+296963530+296426057+296006623+295723227+295505354+295237306
2728+294851425+294403153+293979314+293542467+292990334+292335958+291691080
2718+291130206+290673812+290299804+289925831+289526598+289248570+289220935
2708+289298538+289172619+288713919+288100581+287619185+287365058+287153396
2698+286749259+286145816+285560336+285183816+284974512+284723636+284334383
2688+283973934+283858425+283923690+283850062+283451948+282920566+282559894
2678+282370773+282106821+281684720+281242005+280844596+280476662+280235181
2668+280200613+280245144+280222087+280147186+280016087+279695902+279142444
2658+278529296+278067636+277809929+277657563+277494975+277307283+277152456
2648+277018329+276792093+276412425+275968626+275591796+275314078+275088186
2638+274888742+274737098+274656966+274648036+274693255+274738853+274637643
2628+274205373+273477351+272812101+272525452+272515902+272474743+272341631
2618+272294760+272404694+272514870+272415655+272061418+271632159+271329560
2608+271137738+270921465+270675270+270478716+270334471+270231282+270206246
2598+270224382+270182930+270086417+270017280+269940727+269732541+269392844
2588+269103098+269062490+269284751+269550872+269619389+269481167+269292580
2578+269096353+268818996+268534343+268469009+268681083+268951007+269054162
2568+268972928+268816191+268696483+268693713+268821560+269031862+269268852
2558+269461465+269512913+269404132+269239600+269103735+268951816+268695485
2548+268343382+268039630+267944252+268036773+268096877+267935270+267576577
2538+267192898+266910173+266666025+266283035+265741760+265261999+265019813
2528+264971083+265021878+265126770+265185790+265099825+264935671+264835235
2518+264794765+264680270+264434935+264188172+264135966+264308155+264503986
2508+264509492+264321783+264098714+263956258+263870637+263735271+263491020
2498+263219100+263067060+263055945+263049527+262963166+262884289+262899105
2488+262915227+262789514+262573173+262473975+262547517+262568045+262310837
2478+261862186+261498330+261343022+261308659+261286394+261221163+261063772
2468+260806323+260533233+260327801+260153565+259913271+259610586+259356097
2458+259200702+259065645+258870089+258649549+258511705+258510828+258572773
2448+258561812+258443102+258315117+258248045+258191916+258079625+257905147
2438+257683936+257454242+257311425+257312768+257350571+257255778+257031642
2428+256844828+256773729+256721369+256594399+256427321+256315528+256314083
2418+256389363+256441534+256421643+256401820+256450911+256494978+256416532
2408+256256767+256202823+256356067+256600783+256751068+256767707+256785670
2398+256992032+257518699+258437871+259894860+262280691+266239468+272508176
2388+281770427+294562316+311191140+331721064+356000185+383619635+413840243
2378+445614799+477710883+508869607+538065135+564818427+589076659+610341349
2368+626943813+637223245+642148530+644977541+646986198+645867272+639390894
2358+627669253+611225024+589604014+563010780+535311903+513231575+501799215
2348+502557142+514251596+532343518+549426912+560181013+564594601+565213530
2338+564397548+563628230+563671178+564725132+566139155+566610863+565266011
2328+562243149+558083362+552939584+546352498+537900982+528083587+517966758
2318+508133740+498637700+489539654+480770844+471738494+461596853+449895654
2308+436907211+423457763+410413777+398251537+387078553+376844340+367348094
2298+358250082+349333844+340671544+332431809+324701879+317571917+311164263
2288+305451938+300221197+295328881+290886420+287114578+284083594+281629210
2278+279476325+277421743+275426800+273582881+272008731+270746179+269704167
2268+268707289+267634323+266520834+265530839+264808891+264323521+263876504
2258+263296118+262577595+261815005+261076746+260381985+259726508+259110865
2248+258563051+258102303+257691335+257296369+256964381+256747489+256581443
2238+256339274+255999473+255672681+255447013+255298312+255194348+255172667
2228+255219401+255181770+254942251+254605633+254382615+254342162+254371637
2218+254330169+254170077+253944220+253743863+253613952+253524596+253437392
2208+253364315+253337696+253367068+253442571+253534043+253584734+253544470
2198+253411307+253249167+253174661+253258596+253414180+253490269+253498132
2188+253591703+253800869+253965935+253966967+253851750+253712220+253580983
2178+253470584+253392740+253306655+253134638+252868775+252612720+252477044
2168+252458564+252476631+252521266+252661157+252868311+252965873+252848127
2158+252627363+252465757+252388498+252341162+252293637+252224482+252128262
2148+252062342+252090579+252204677+252378518+252637154+253001836+253436429
2138+253905332+254431672+255063679+255817046+256664001+257554764+258460567
2128+259427453+260581017+262044183+263841988+265890943+268069208+270283109
2118+272459137+274471081+276119667+277270495+277999187+278478828+278715818
2108+278512863+277704899+276327612+274562586+272633735+270767137+269128014
2098+267720408+266404103+265083822+263848888+262852044+262084068+261365425
2088+260559560+259703709+258925255+258325648+257947786+257756274+257630492
2078+257466648+257300998+257257981+257385157+257609878+257848210+258106846
2068+258449589+258844813+259103036+259073715+258853777+258674603+258660958
2058+258790405+258969717+259089666+259124183+259182307+259371720+259664890
2048+259960796+260220224+260512602+260915621+261329635+261506710+261378037
2038+261173896+261098117+261109628+261129278+261240951+261571614+262102772
2028+262673454+263118251+263364154+263437128+263483466+263771027+264455738
2018+265277640+265725207+265610833+265256252+265057427+265117995+265303880
2008+265436614+265422487+265312243+265237995+265296894+265525005+265876249
1998+266226287+266613303+267368425+268608539+269747167+270039322+269473906
1988+268598766+267812723+267280550+267105608+267233025+267450055+267608237
1978+267707761+267821722+268011944+268258690+268570581+269172218+270240418
1968+271379597+271829246+271402499+270732913+270419834+270457586+270629052
1958+270951388+271462586+271942828+272160873+272203030+272361471+272826021
1948+273661017+275024934+277029014+279066201+279785773+278582774+276579641
1938+275253527+274933136+275099440+275339200+275575605+275817137+276060235
1928+276450194+277407823+279159031+281082807+282323558+283070403+283947436
1918+284399287+283370250+281358925+280014813+280162827+281258661+282178005
1908+282213641+281565063+280924797+280680185+280715407+280855625+281235879
1898+282124647+283350445+284241552+284654482+285455099+287026909+288123982
1888+287495675+285832823+284634522+284368160+284633300+285027578+285343564
1878+285535730+285733351+286174654+287411344+290383188+295331393+300233758
1868+301638386+298724202+294396236+291476511+290520602+290723884+291231864
1858+291583365+291699064+291772296+292056484+292790631+294197359+296443574
1848+299804620+304386215+308710293+309616611+306308287+302123550+299999986
1838+299909684+300357613+300774053+302306734+306112336+311030084+313948639
1828+313760671+312452195+311189901+309233209+306628541+304792400+304452083
1818+304981606+305627585+306543126+308341550+310848174+312759371+312994245
1808+312040607+311377249+312238692+315053283+319032915+322211843+323050505
1798+322326992+322521222+325480316+330564317+334021893+332363911+327513132
1788+324043855+323704089+325239421+327132345+329085871+330874556+331839929
1778+332427336+334596361+339956462+347649054+353548280+353852566+349871489
1768+345055949+341397087+340293372+342378772+345849838+347776797+348055995
1758+348486510+349185383+349961687+352661646+358894100+366699362+371464348
1748+371373358+368985737+367253525+367459904+369462814+371845823+372957522
1738+373771853+377672092+385531315+391736513+390105924+383668778+377490560
1728+373053640+370916413+371238663+373081205+376184871+382280186+392601500
1718+403933097+408696465+404220967+396121090+389649324+386787276+388058104
1708+393048121+399647253+405016543+409368255+415802407+424662861+430904572
1698+431245370+427554883+420810835+413101519+408790621+409425794+413296472
1688+419360987+429090868+441756235+448691141+443821572+434860458+429567016
1678+429783202+434145652+439286091+442800243+446254928+451063860+453855910
1668+451174397+446854277+446432468+450056125+453377354+453414486+452648094
1658+455476760+464719034+481116976+499257937+504989948+499511532+497856819
1648+503041273+507469522+504100285+497346671+494419685+497355618+505774132
1638+518786974+532747775+539554249+536677128+532675816+534208085+541424804
1628+551282325+561464436+572196615+583397646+592913164+600529874+609859971
1618+623332098+637286085+645177966+647987773+651275174+656961551+663462914
1608+668814859+672703260+676032301+679320803+682226900+684491870+686588420
1598+689267318+692844826+696796341+700116228+702532825+704875983+707844575
1588+711189034+714240219+716562866+718192560+719832303+722897804+728959153
1578+738131567+746794933+749926991+749840268+753107433+761289766+770674443
1568+777825948+784241070+792588795+803413684+817480617+837296973+861660683
1558+877389039+878038356+874915797+873893505+873858541+872902116+870372504
1548+867823553+868226812+872934189+880760616+889464384+893895488+886192332
1538+870551731+859182623+855010310+853557571+850046757+845386251+843653110
1528+845863293+849793817+853835978+858357384+862000828+861512842+857598562
1518+853574503+849619752+845087609+841849489+842368034+847682675+857556922
1508+868653817+870917204+858647284+843321844+834597633+833346834+837186849
1498+841670882+841745147+837385279+834360523+836865013+843296790+847203362
1488+843685734+835481445+828370617+825114120+824967587+825898821+827304000
1478+830297163+835411586+841226120+844587303+842177107+835051894+828881454
1468+827150239+828605594+829445218+827821994+826938595+831250078+841715620
1458+853145984+855096688+845966741+835472360+828861494+825909833+824977016
1448+823913427+821288077+817923658+815584974+814974682+816092163+819071423
1438+823168165+825539335+824233543+821826651+821262060+821808343+820882408
1428+818238337+816427765+817073916+819471241+822584233+826021884+828144863
1418+826216734+820796443+815333341+811611365+809313633+807783876+807079291
1408+807606852+808752897+808819659+807576087+807340697+809715172+813319660
1398+815812999+816434028+815215784+812265707+809278944+808710361+810760797
1388+812563523+811071002+807332025+805355854+807051553+811043402+815365002
1378+819686327+824590963+829548046+832847698+834086109+835058914+837086637
1368+839615422+842126106+845280670+848928175+850900354+849718106+847026062
1358+845271240+844974319+845178599+845019883+844361756+843551520+843047773
1348+843016388+843148261+843298993+844139512+846429811+849745224+852493087
1338+853358660+852541266+851346768+850905585+851563299+853086723+854957175
1328+856651085+858072783+859605843+861589998+864132411+867349057+871065527
1318+874534150+877327439+880034143+883193593+886195980+888156389+889411525
1308+891148039+893778207+896665720+899394656+902340466+905849766+909570572
1298+912774554+914769721+915239330+914850593+914912882+915949284+917123823
1288+917307936+916214751+914253860+911848551+909346333+907036143+904809234
1278+902455821+900563895+900189061+901287339+902420030+902529672+902181062
1268+902479773+903559123+904716730+905540662+906467629+908502372+912377695
1258+917324799+921052212+922090129+921646399+921932789+923620023+925895248
1248+927687650+928054775+926694265+924712450+923797460+924351933+925247858
1238+925455648+925199955+925108001+924827186+923383670+920634568+917487919
1228+914925890+913417264+913044564+913587543+914534951+915341883+915747345
1218+916186601+917342487+918922901+919957238+920385069+921123104+922479829
1208+923807302+924752370+925551593+926393903+927514893+929564365+932814324
1198+936030488+937472765+937244533+937095178+937951459+939267713+940888047
1188+943896077+948910424+954492528+958064599+958609230+957795828+957992674
1178+959918808+962707347+965439724+967821770+969885420+971706179+973224785
1168+974060693+973684208+972429554+971920094+973222720+975068739+975356024
1158+974019810+972932407+973616275+976168806+979607489+982651103+984870303
1148+987043527+989730064+992187889+993635053+994912695+997612929+1001547307
1138+1004560430+1005401982+1005223444+1005456011+1005884737+1005807650
1130+1005612181+1006046137+1007147581+1008757040+1011014164+1013522370
1121+1015153991+1015216555+1013734977+1011175013+1009006470+1009516205
1113+1013544739+1018819666+1021686257+1020582472+1017280825+1014697321
1104+1014151039+1015176704+1017064500+1019549305+1022715088+1027017210
1095+1032411622+1037753450+1042482370+1047045348+1050163846+1049032049
1087+1043738676+1037607192+1033386010+1032014626+1033105470+1035038280
1078+1036745267+1038728458+1040524852+1040313414+1038507109+1037995791
1070+1040159654+1043732825+1047134892+1049727687+1051584993+1053194383
1061+1055292309+1058449282+1061636125+1062584360+1061094454+1060004091
1053+1060616724+1060126879+1056154096+1050730157+1047476000+1048383902
1044+1054007509+1063038138+1071118675+1073741823+1070950186+1066199103
1035+1062012680+1059036998+1057257605+1056244535+1055552408+1056001437
1027+1058940847+1063223766+1065189681+1063169943+1059605994+1057413361
1018+1056786344+1056184518+1054741277+1053172496+1052659457+1053519661
1010+1055134419+1056842026+1058277970+1058687906+1057132546+1053714442
1001+1049646195+1045917612+1043197211+1043036843+1047195804+1055060086
993+1062870337+1066454590+1064549312+1059262546+1053816100+1050110023
984+1047923722+1045994285+1043566607+1040955229+1038955932+1037948300
975+1037554401+1036680982+1034257502+1030606005+1027004752+1024364810
967+1023366194+1024632136+1027479798+1029516744+1029111901+1027001173
958+1024262946+1020767480+1016427985+1012266615+1009554611+1008475811
950+1008100840+1007157561+1004607095+1000270559+995318294+991696393+990424395
940+990443942+989711274+987472046+984600844+981886500+979346978+977088890
930+975592377+975014503+975018976+975063164+974180040+971531220+968031762
920+965952901+966472685+968867670+972139722+976021171+979975096+982369186
910+981579668+977836906+973262778+970039249+968444933+967045397+965100543
900+963476768+962898137+963193406+964580208+967394903+969884732+969130797
890+965502288+962763992+962627164+962835986+961049297+957746066+954954360
880+954075917+955007082+956563612+957922333+959063008+959462758+958105482
870+955358239+952878114+951648651+951692219+952843150+954399267+955306343
860+955692258+956561272+957635254+957079473+953948930+949722518+946668442
850+945921803+947250722+949170523+949864784+949441703+949634488+950865259
840+951291575+949891971+948728720+949603791+951041388+950986670+950315603
830+951576589+955274269+959235352+961023418+959457802+954925384+949849160
820+947492719+949042504+952980736+957100259+959953015+961050536+961266929
810+961800341+962269330+961243527+958471644+955726190+955113764+957059100
800+960110561+962000628+961350210+959501576+959578319+962688695+966426020
790+968184696+967917853+966276665+962907773+958693199+956706429+958591335
780+962264030+964492591+964346884+963450889+963745401+965464571+967039616
770+966994121+965932872+965831627+966931832+966709245+963475254+959390558
760+957815650+959842340+963752078+966223255+965719576+965063514+968099832
750+973807684+976700773+974424033+970075659+966709245+964943273+964876166
740+966551011+968628289+969015511+967573441+966123937+965753577+966422028
730+968234459+971412148+974892196+976247269+973621781+967453681+960700204
720+956871890+957400484+960767242+964072469+965736301+966791493+968797466
710+971242833+972298507+970721741+966260490+960170303+954781672+951096037
700+948303987+946264701+946064207+947140254+946949051+945178193+944643198
690+946562792+948736842+948573170+945158439+939498491+933206571+927136825
680+923481336+925645543+933532950+941619681+944231817+940637377+932374311
670+919504285+905772817+901504627+907924222+916971232+923497304+925380626
660+922776819+918505050+914576179+910816278+907871638+906811697+905774056
650+902200196+897433352+894865128+895337766+896931325+896970970+893995976
640+890348334+889915065+892069086+892082301+889005581+886642738+886031620
630+885042296+883546127+882948155+882247562+879324602+874350587+868571637
620+862747054+858541910+857881374+860272092+863571261+866026677+866099290
610+862529009+856192213+851761590+854096558+863384877+874027649+877117171
600+868204994
##END=
