##TITLE=<SNM>
##JCAMP-DX=4.24
##DATA TYPE=INFRARED SPECTRUM
##DATE=2/5/2025
##SAMPLING PROCEDURE=Instrument type and / or accessory
##ORIGIN=Admin
##XUNITS=1/CM
##YUNITS=ABSORBANCE
##RESOLUTION=4
##FIRSTX=4497.3318
##LASTX=599.83466
##DELTAX=-1.4281778
##MAXY=1.8138921
##MINY=0.27391225
##XFACTOR=1
##YFACTOR=1.6893187e-09
##NPOINTS=2730
##FIRSTY=0.2957091
##XYDATA=(X++(Y..Y))
4497+175046370+174514651+174394671+174645923+174618419+173903369+172827089
4487+172032193+171865885+172181229+172470411+172304967+171816100+171587977
4477+172025189+172941495+173759643+174071829+173937276+173591889+173079223
4467+172385466+171741106+171446791+171479939+171588541+171762170+172251478
4457+173040447+173625302+173568796+173001970+172375657+172034751+172151679
4447+172700281+173343195+173555423+173054842+172124441+171536375+171985125
4437+173274286+174266945+173870450+172111192+170133989+169083413+169159872
4427+169817252+170586285+171395577+172110804+172244192+171481227+170245149
4417+169407807+169433688+170002242+170528297+170834238+171104684+171362781
4407+171356307+171016776+170679698+170618569+170645367+170483170+170241233
4397+170131114+169995026+169595161+169218319+169383515+169969534+170237334
4387+169740881+168700784+167487675+166280159+165278168+164770530+164834905
4377+165282878+165960352+166802581+167528780+167688861+167163228+166288151
4367+165512308+165177399+165410286+165959893+166357183+166355383+165996482
4357+165423570+164920431+164778116+164883472+164861738+164696982+164695748
4347+164872940+164946329+164943471+165276474+166078110+166847020+167015339
4337+166613956+166050995+165503487+164946382+164532527+164513386+164970922
4327+165802583+166591922+166540638+165197175+163289481+162143622+162178129
4317+162583040+162591931+162412198+162666238+163462775+164313965+164662352
4307+164351277+163787045+163603749+164042955+164752377+165212241+165213300
4297+164858580+164329419+163899916+163965120+164598736+165251635+165455625
4287+165525116+165932478+166466984+166643506+166374789+165795191+165081270
4277+164591327+164499343+164424243+164053010+163745270+163916288+164300522
4267+164367949+164135644+164114403+164555920+165070738+165091414+164543571
4257+163890284+163627177+163948519+164743944+165680591+166453594+167029717
4247+167431134+167429917+166898163+166286863+166219666+166721923+167302086
4237+167638617+167808982+167944911+167950980+167650525+167187891+167034056
4227+167389517+167874027+168009285+167678999+167097178+166700736+166843439
4217+167268743+167411058+167316587+167482859+167907370+168190094+168284265
4207+168356755+168348728+168254327+168333485+168659908+168909943+168825104
4197+168550971+168322777+168090719+167760680+167580153+167855874+168429226
4187+168881275+169084613+169165147+169093522+168647718+167844036+167284550
4177+167750006+169232079+170677687+171086249+170625432+170203674+170178746
4167+170122858+169838986+169802327+170217787+170426964+169871800+169016481
4157+168695880+169075810+169700570+170135171+170295110+170411898+170753669
4147+171247035+171448414+171011325+170097718+169205899+168654122+168381241
4137+168237674+168227565+168354391+168502263+168683707+169150257+169962054
4127+170663891+170767359+170372204+169924036+169594103+169314201+169151651
4117+169211509+169389795+169599131+170007640+170699492+171289128+171215421
4107+170385700+169253373+168327664+167940395+168270275+169092904+169733084
4097+169776676+169570481+169580078+169662305+169392988+168729522+168019606
4087+167621152+167683974+168104038+168582515+168849132+168941522+169236172
4077+170069315+171256385+172103941+172081413+171416447+170784030+170491144
4067+170273940+169844949+169289326+168863987+168642108+168483880+168327258
4057+168391315+168882457+169542113+169856081+169781686+169824008+170233770
4047+170622345+170607491+170369999+170243420+170173648+169916874+169430512
4037+168857053+168442511+168516394+169201841+170185485+171027061+171545654
4027+171792937+171912618+172055709+172222493+172280834+172221240+172155613
4017+172056997+171744211+171116398+170298550+169615943+169378681+169596520
4007+169997426+170346112+170612871+170880459+171218208+171562326+171732020
3997+171734914+171894253+172416868+173076806+173562868+173789545+173720990
3987+173379148+173107591+173259873+173565038+173360201+172594537+172131003
3977+172806025+174432124+175902465+176276379+175655182+174863003+174463138
3967+174452694+174781516+175558647+176605289+177385825+177602182+177391541
3957+176949019+176514488+176598780+177692789+179736660+181914042+183006693
3947+182527582+181475824+181104379+181249799+180781379+179450565+178219198
3937+178048921+179330214+181894689+184755366+186278491+185673542+184136710
3927+183553848+184372578+185290137+185179841+184756248+185468035+187349461
3917+188600746+187512064+184589658+181876853+180714782+181118210+183020912
3907+187130934+193828117+201382489+206317239+206626709+203216671+197950029
3897+192668675+189411255+189522767+192240636+194511589+194147148+193281897
3887+194962932+198372264+200483754+201321961+202551017+202384110+198644809
3878+194380900+193850116+197233409+202138362+206865541+209825523+209267730
3868+206871451+206179546+207129512+206296704+202364369+198242633+197302988
3858+201123210+210018540+221923777+228582713+222798502+211178917+201910380
3848+197376306+197346615+200648474+205733125+211476020+217150413+221088411
3838+220892589+216843607+212322853+209415973+207574769+206041236+205260682
3828+205514492+206473826+209074290+214986650+222378649+225481686+223168923
3818+219970867+216930898+211902048+205931329+202534946+203650584+208800350
3808+214992666+218861015+221242422+225016671+228921768+229049458+226258906
3798+224032992+222324577+219812745+217552024+217408527+219676093+223671691
3788+228901409+234738634+240142227+245113990+251313450+259546971+267790337
3778+273898502+279320743+287291704+299400949+314722274+330049034+341733821
3768+349049837+353404284+355452229+356242574+357900145+360914605+363362662
3758+364401295+366436044+372553806+384008053+399006748+412442008+421425475
3748+429674839+440617126+451283251+455406063+455279008+458902597+469884330
3738+487273007+506786547+522181332+529830387+532160457+534258223+539153032
3728+547147192+556624624+565109751+571171377+574336354+574009455+570922771
3718+567617790+566418547+568460530+573317939+577468060+575997842+569234926
3708+562182265+558339108+558109837+559776865+560972120+560766877+559983060
3698+559600766+560681280+564528918+571420512+580001079+587577098+590180684
3688+585702428+577833982+572123883+571130801+574342600+580045713+587540580
3678+596605022+603108923+600490765+591967745+586365542+584926126+582762346
3668+577090494+569968500+564029907+560399120+559174862+560311653+563694257
3658+567661188+569380399+569548242+573193107+583327090+596066882+601297623
3648+593909311+580928499+569774584+562402820+558341225+556719607+557059420
3638+559659654+564644470+570739298+576535418+582625553+589440865+592795419
3628+587990123+579264401+573298921+572497286+577017458+584837918+590745604
3618+591655982+591227432+593191156+596341879+598471505+600052547+601332059
3608+600615103+598256560+597608195+600462750+604838861+607640350+608672879
3598+610403170+613788738+616517121+616375847+615135923+616863955+622927098
3588+629039285+629265451+624385567+619856609+618377677+618790420+619045024
3578+618574275+618076287+617967686+618030701+618804040+622355228+629894269
3568+637856427+639671680+634723416+628613628+624588375+621552745+617982928
3558+614342544+612131625+612305219+614573155+617634753+620355585+622652030
3548+624526558+624852152+622317192+617611819+613403516+611740193+612128802
3538+612638786+612486857+612343183+612590872+612868339+612858248+612404223
3528+611118290+608629551+605115411+601454492+599007599+598592668+599441512
3518+599892432+599360996+598828995+599038013+599300026+598742481+597623649
3508+596816862+596946069+597898011+598228192+596138577+592137245+588793629
3498+587319107+586410316+584909614+583750559+584173605+585406226+585373024
3488+583301862+580581489+578741997+577607993+576119993+574307352+573372416
3478+573877425+574988989+575729831+576153336+576760772+577312673+577003627
3468+575549287+573457519+571536100+570298857+569604448+569146648+569121526
3458+569915752+571141280+571300020+569006961+564744604+560734028+558841788
3448+559148611+560388394+561005039+559857910+557043366+554241806+553270140
3438+554185176+555434026+555569655+553947014+550344948+545455889+541341016
3428+539820062+540799136+543143426+546187699+549048077+549799151+547387506
3418+543346728+540039135+538295226+537599017+537527533+538082997+538952200
3408+539349948+538902697+538206770+538129924+538773137+539422067+539410388
3398+538660584+537477219+536138643+534824766+533790825+533230033+532807270
3388+531842061+530265853+528970887+528662441+528882291+528923643+528962843
3378+529365319+529620946+528952434+527516441+526127516+525186547+524585250
3368+524367059+524847052+526010658+527226413+527859006+527982709+528230080
3358+528893405+529259187+528189751+525748574+523658183+523410601+524515072
3348+525339571+525076781+524007417+522643437+521591255+521571179+522644919
3338+523632814+523054698+520754019+518125312+516684132+516791040+517727634
3328+518639389+519260762+519793786+520249857+520217926+519377937+517925961
3318+516239740+514412773+512425621+510628822+509786399+510478339+512343834
3308+514000136+514050309+512413731+510545130+510165906+511759509+514156264
3298+515564136+515311049+514392556+513937720+513871952+513681599+513510299
3288+513621511+513754564+513847007+514359178+515227499+515616038+515280353
3278+515099421+515896822+517476453+518824484+518907118+517410403+515005885
3268+512903003+511971631+512157433+512675038+512818147+512469090+511730012
3258+510513022+508845254+507270069+506534060+506888445+507925384+509064998
3248+509940587+510293560+509869491+508669931+507088924+505610486+504482869
3238+503705473+503097790+502351761+501386623+500590386+500187098+499641725
3228+498400178+496812326+495586763+494912924+494632386+494592058+494501874
3218+494150488+493889921+494164037+494649816+494532182+493475978+491856830
3208+490098031+488179434+486027720+484056798+482888782+482736147+483348805
3198+484254032+484905996+485022536+484843368+484712255+484490571+483708447
3188+482232937+480537224+479277930+478670388+478267135+477319816+475500506
3178+473376031+471886866+471165571+470310058+468613110+466482814+464824819
3168+464028123+463796171+463504626+462586732+460997469+459343038+458320494
3158+458094858+458373172+458853624+459215771+458969741+457894837+456439474
3148+455211476+454318351+453484078+452468062+451249273+450092653+449350540
3138+448984865+448545906+447774967+446843560+445907848+444942287+444013209
3128+443219300+442359483+441122311+439722131+438760169+438350424+438076274
3118+437778906+437655027+437621720+437278449+436520494+435690068+435051088
3108+434487862+433889811+433480278+433409218+433321927+432789044+431909927
3098+431012039+430110622+429139592+428343461+427978456+427890142+427716160
3088+427321200+426846252+426512896+426468686+426681585+426932308+426920170
3078+426386617+425301163+424040387+423131702+422662012+422258513+421744753
3068+421319555+420999642+420415916+419305023+417868148+416581368+415826695
3058+415628720+415654018+415551309+415241099+414808209+414259907+413492179
3048+412495074+411516564+410822155+410323144+409743863+409126195+408791851
3038+408748594+408466963+407488946+406126943+405179446+404848242+404385961
3028+403170171+401679137+400835797+400695158+400407387+399414341+398071390
3018+396970588+396279248+395936189+395860753+395724630+395108232+394079937
3008+393138228+392523876+391997167+391268745+390306006+389232266+388173416
2998+387264908+386675078+386456992+386385367+386135456+385690358+385351074
2988+385177410+384722433+383709557+382686448+382390316+382639063+382521252
2978+381623223+380452807+379674424+379392652+379168321+378517557+377413156
2968+376266838+375382464+374634036+373793483+372941922+372362042+372138840
2958+372058606+371894644+371613649+371278387+370975093+370854353+370945455
2948+370915640+370328951+369178893+367899346+366870699+366149756+365643653
2938+365268098+364856413+364188184+363277735+362387539+361618152+360852435
2928+360207175+360010471+360209398+360331055+360092928+359580510+358839985
2918+357771467+356477984+355353577+354675892+354314450+354014507+353761209
2908+353583805+353252848+352597215+351881494+351413391+351040271+350427895
2898+349580533+348808500+348377409+348273359+348170402+347756706+347205370
2888+346995047+347139673+347025179+346223155+345102171+344341641+344098116
2878+343934331+343414503+342523601+341573565+340922271+340777469+341073319
2868+341459141+341517323+341079246+340321398+339568065+339019305+338616441
2858+338132143+337433993+336682319+336192940+336061299+336007703+335683944
2848+335073650+334451254+333965227+333476166+332887288+332394770+332218248
2838+332258470+332232467+332014875+331673404+331286135+330842060+330253359
2828+329454864+328537429+327717976+327145152+326815501+326674721+326667311
2818+326640849+326335190+325614318+324685345+323926085+323470085+323109172
2808+322606704+321966277+321393066+321071741+320930361+320633841+319983077
2798+319248727+318843110+318739872+318511836+317873068+316953516+316136533
2788+315743019+315705336+315558770+314998048+314283633+313765534+313302829
2778+312601469+311787167+311151151+310634181+309993155+309190356+308312650
2768+307417020+306657160+306229633+306065601+305883081+305555687+305114012
2758+304482759+303592634+302654099+301971016+301552486+301162500+300670581
2748+300162220+299747289+299400031+299036367+298660706+298304346+297875442
2738+297254775+296485353+295717202+295069825+294621498+294341473+294006123
2728+293414441+292662008+292000235+291522271+291152361+290803922+290418699
2718+289988314+289604168+289331446+289013050+288398592+287510795+286698222
2708+286275529+286227367+286262015+286090168+285692861+285292026+284997393
2698+284627378+284006798+283256712+282640402+282282330+282129271+282053518
2688+281928245+281660763+281216935+280677771+280238389+280018504+279887797
2678+279612394+279124427+278533644+277960626+277473382+277108254+276842377
2668+276560376+276134013+275589928+275144847+274989901+275081672+275228486
2658+275305968+275285433+275131245+274799900+274318672+273781855+273280992
2648+272860345+272488460+272072435+271573336+271092849+270759687+270567622
2638+270418427+270268156+270131768+269997568+269819212+269554287+269185683
2628+268754822+268366918+268096296+267907389+267713155+267468501+267185882
2618+266925192+266775820+266764265+266783812+266688229+266436695+266095171
2608+265752571+265485459+265343726+265316876+265325520+265258411+265056044
2598+264774907+264501921+264210764+263830922+263463023+263357068+263618164
2588+264037487+264267234+264138274+263788776+263477295+263294317+263120000
2578+262861179+262619965+262554621+262650768+262749190+262770131+262754977
2568+262668974+262348655+261755420+261152553+260892357+261070731+261481922
2558+261876106+262155532+262322757+262357388+262220736+261941733+261610688
2548+261272181+260892939+260473933+260096031+259774883+259388514+258873308
2538+258382271+258121581+258119270+258242973+258344695+258306359+258047451
2528+257611774+257221929+257127458+257335806+257550786+257462667+257074851
2518+256666447+256468949+256482480+256586954+256690793+256734244+256670064
2508+256503209+256277291+256004234+255686826+255400731+255263991+255316263
2498+255488304+255691324+255873139+255974896+255906164+255625715+255221792
2488+254861339+254645705+254518562+254332178+254028936+253715762+253514030
2478+253415643+253349505+253285695+253206713+253082305+252923142+252772959
2468+252639024+252508758+252411782+252378527+252349683+252210367+251937169
2458+251654392+251496923+251441951+251336825+251094588+250795474+250565957
2448+250436291+250364401+250310612+250224221+250050168+249807261+249571110
2438+249362269+249149052+248944938+248797648+248700655+248595881+248459512
2428+248346411+248338366+248456389+248640126+248809733+248930261+249024167
2418+249115921+249164259+249114545+249026460+249024643+249101596+249121778
2408+249046642+249013617+249142754+249355265+249467254+249461538+249549040
2398+249885660+250376344+250918330+251714920+253200997+255809117+259992687
2388+266374350+275675419+288500720+305247841+326063897+350653708+378194574
2378+407728096+438602523+470149555+501045010+529553378+554272431+574547736
2368+590938180+604726448+615822676+622400531+623333632+619107193+610125279
2358+596138365+577225664+553576152+525557339+496762401+474278153+463678572
2348+466459492+480766212+501305471+520254056+532461882+538408661+540929261
2338+541988146+542054796+541131928+539466806+537046446+533573516+529263985
2328+524745719+520106748+514566502+507151693+497657960+486831579+475606602
2318+464545693+453932987+443830794+433971280+423889833+413275010+402184993
2308+390921910+379704732+368575303+357686787+347462056+338236899+329879604
2298+322013345+314550763+307760502+301801409+296432005+291259710+286128698
2288+281191919+276709835+272858140+269688258+267176902+265241140+263725390
2278+262450588+261299896+260233530+259253432+258375532+257581059+256772826
2268+255850769+254861462+254007855+253465463+253211724+253061064+252843119
2258+252511510+252088993+251580985+251005709+250452239+249995321+249582895
2248+249127847+248667489+248293821+247979536+247618694+247196848+246808326
2238+246546860+246440110+246446126+246486455+246517663+246558327+246623865
2228+246683194+246709304+246714931+246697131+246609893+246458334+246351620
2218+246379723+246499986+246630305+246787386+247034104+247350524+247666168
2208+247979942+248330763+248678003+248949190+249184194+249483731+249848242
2198+250211201+250582857+251027391+251536704+252013310+252359474+252568775
2188+252745385+252998595+253310499+253548326+253613600+253555876+253524898
2178+253603509+253722360+253764683+253691487+253537423+253359260+253207066
2168+253097088+253027951+253031620+253131913+253245507+253210824+252958743
2158+252613937+252376798+252320522+252362244+252425772+252564699+252923389
2148+253596082+254544266+255735164+257351013+259674661+262755365+266399436
2138+270468653+274962997+279837607+284947661+290216314+295764146+301793012
2128+308355166+315349611+322710966+330401337+338247872+345979101+353366178
2118+360239389+366473233+371946405+376455533+379779532+381828818+382633171
2108+382266013+380788810+378209534+374641445+370450078+365977962+361267896
2098+356273235+351068921+345711160+340191273+334601207+329138797+323912783
2088+318828503+313713209+308525337+303342616+298198178+293117620+288234137
2078+283713753+279696932+276320838+273579682+271258115+269209570+267530599
2068+266320913+265457303+264689257+263867228+263032356+262265616+261543632
2058+260861731+260323256+259950594+259643506+259412066+259378882+259545384
2048+259772643+259945107+260086717+260369688+260939425+261766023+262832000
2038+264290733+266217128+268423407+270657647+272780817+274759148+276657034
2028+278565646+280489659+282375425+284161286+285781757+287240226+288541648
2018+289433414+289503522+288677594+287326317+285843344+284372774+282886450
2008+281321303+279658721+277945860+276253217+274656721+273235335+271973342
1998+270757887+269685153+269175028+269381488+269660543+269157880+267812371
1988+266225860+264859111+263867652+263314622+263126368+263088721+263063247
1978+263048763+263064887+263098953+263102482+263083746+263284208+263999240
1968+265032140+265663922+265479867+264882627+264487190+264423539+264500121
1958+264679149+265058055+265579789+266040711+266339966+266595064+267002956
1948+267697507+268833733+270519884+272263176+272905631+271927086+270311889
1938+269325017+269224460+269555399+269923915+270183388+270334506+270484107
1928+270879950+271945962+273856338+275962871+277430160+278476256+279727188
1918+280622712+280128746+278771135+278168286+279046715+280801104+282378830
1908+283158625+283252884+283174784+283286826+283654037+284272693+285216590
1898+286527857+287944479+288947864+289522752+290433589+291939795+292889232
1888+292210859+290564860+289233217+288542936+288151221+287823140+287511571
1878+287262807+287164843+287288123+288009277+290151887+293932963+297599245
1868+298289138+295421651+291439038+288668650+287551459+287341206+287258926
1858+287031684+286815433+286784331+286888064+287158739+287956405+289674276
1848+292554482+296517037+300161197+300752579+297699167+293999260+292193076
1838+292118240+292375843+292553230+293813723+297239074+301758328+304530497
1828+304506470+303406867+302231759+300338319+297889591+296263139+296087358
1818+296665545+297180998+297766982+299151461+301372788+303263864+303684476
1808+302951502+302412162+303243153+305894512+309684533+312741755+313502003
1798+312674858+312729018+315493601+320322537+323647312+322217459+317816262
1788+314704703+314561524+316219307+318184513+320151660+321955622+322954349
1778+323474671+325357033+330189673+337203311+342561425+342785826+339139973
1768+334874970+331913189+331549489+334224312+338011051+339995522+340157719
1758+340430035+341107014+341967855+344521233+350140442+357123173+361457261
1748+361563393+359683290+358398274+358814758+360838428+363260588+364537029
1738+365470130+369239863+376748067+382668348+381124530+375173869+369822036
1728+366348754+364877407+365335842+367018112+369972519+375919228+385964050
1718+397022913+401925731+398158927+391054575+385519940+383268798+384751118
1708+389720128+396298512+401750479+406208023+412644428+421408927+427678831
1698+428392611+425457151+419729127+412867736+408936230+409694079+413795579
1688+420203546+429982932+442157275+448644417+444191107+436207779+431927498
1678+433078931+438331618+444243891+448172327+451572221+456172979+459285208
1668+457721843+454642216+455078281+459453298+463925414+465463904+466035564
1658+469749125+479301640+495192261+512121973+517482098+513061919+512370650
1648+517769127+522195234+519410469+513497597+510869559+513326049+520642948
1638+532144686+544541313+550501711+547699233+543808374+544983659+551522949
1628+560584075+569732526+578983828+588461719+596578912+603288938+611710131
1618+623763382+635802096+641784229+642821838+644171493+647716965+652191516
1608+655816657+658053403+659647712+661379131+663176672+664758137+666597453
1598+669497030+673515015+677845328+681710113+685165331+688792448+692712911
1588+696388084+699446859+702198600+705104598+708282419+712067535+717553021
1578+725256694+732551787+735319123+735657630+739599968+748664798+758796947
1568+765697009+770909967+778142538+788535359+802613515+822672533+848139979
1558+866000005+867404490+862663057+859317923+858386728+859027401+859835952
1548+860466110+862453333+867089693+873906627+881100105+883929892+875837186
1538+860916889+849637824+844557037+842303566+839084252+835000781+832784288
1528+833418822+835669469+838597203+842413156+845807051+845960957+843472077
1518+841364679+839619570+836808695+834169014+834591355+839721327+849040126
1508+858321030+857877238+844679046+830849566+824123098+823837868+827074330
1498+830208893+829923240+826645144+824772028+827411991+833175226+836787384
1488+834088992+827076235+820562242+817101732+816404465+817157903+818895885
1478+821991143+826406206+831255818+834498348+833062602+826898972+821006459
1468+819717491+823023037+827167054+828428712+828337964+831529827+839749342
1458+848647846+849037303+839692818+829518259+823345667+820923613+820703234
1448+820805485+819861800+818163194+816899418+816664008+817740500+820662235
1438+824706330+826416650+823513898+819357390+817655256+817779594+817042739
1428+815067089+813978389+814693933+816196364+818231431+821695540+825209258
1418+824641550+819272146+812889054+808116219+805284033+803996688+803693747
1408+803854003+804112982+803954631+803241415+803119265+804870584+808215647
1398+811611518+813554920+812972464+809930483+806731775+806039094+807964924
1388+809803464+808640457+805202246+803313181+805272813+810102877+815581377
1378+820567535+825213421+829677034+833273667+835326022+836518102+838185447
1368+840682301+843470807+846262699+848846350+850190924+849187892+846239201
1358+843010572+840948690+840381476+840613499+840797113+840714197+840669599
1348+840859494+841056586+841109158+841707068+843949882+847842330+851798146
1338+854192820+855071443+855560822+856233038+856822057+857075673+857285679
1328+858038623+859835458+862926129+867153556+871957510+876649688+880575725
1318+883223521+884671263+885771889+887423921+889902780+893020690+896464758
1308+899927103+903310766+906717787+909969491+912609383+914574095+916232055
1298+917615864+918356106+918439587+918085484+916993397+914886493+912618839
1288+911341374+910711356+909192201+906135331+902587601+899949684+898526429
1278+897474141+895980954+894364558+893624316+894104309+895331813+897007697
1268+899129278+901321426+903192709+904942193+906751659+908135680+908696471
1258+908882767+909309624+910275961+912201650+915280254+918493076+920193093
1248+919904406+918594127+917330211+916571974+916392594+916607187+916719881
1238+916053169+914236223+911771477+909804012+909036672+909109003+909023194
1228+907962721+905936969+903764156+902309075+901767901+901677576+901502994
1218+901281274+901805019+903693307+906195666+907794984+908097432+908068289
1208+908519773+909486110+910816994+912551166+914991920+918617202+923358142
1198+928157227+931796271+933660637+933532912+931886102+930585138+931733819
1188+935393186+939428672+941869778+942722786+943207578+944068701+945168268
1178+946198186+947282651+948920006+951376284+954120191+956229988+957491858
1168+958622263+960409500+963168297+966819055+970583847+972981697+973369953
1158+972931171+973015145+973465218+973448141+972955940+972963279+974523927
1148+977555323+980455111+981579306+981212501+981001790+981544658+982147013
1138+982711051+984498853+988596014+993958432+997840225+998951364+999225656
1128+1001041120+1004013099+1006188875+1007106522+1007629067+1007905405
1120+1007644803+1007306790+1007278069+1007153660+1007076531+1008279266
1111+1011377065+1015299221+1018481699+1020290530+1021422275+1023121728
1103+1025303361+1026264618+1025209790+1023800366+1024276619+1027086718
1094+1030584134+1032569734+1032115145+1030130109+1028387893+1027715042
1085+1027549069+1027729508+1029616385+1034051136+1039303612+1042888884
1077+1044453907+1045144965+1045781475+1046992113+1049485792+1053026536
1068+1055939168+1056457549+1054675957+1052907631+1052844122+1053325032
1060+1052580838+1051003606+1049865087+1049125409+1048197742+1047091753
1051+1045932346+1044701172+1043354199+1041898130+1041167767+1042749374
1043+1047009190+1051819073+1054721190+1056115866+1058582095+1063439892
1034+1069140253+1072964674+1073741823+1071577196+1066331636+1058760487
1025+1051761491+1048935091+1051459184+1056307102+1058941913+1058644264
1017+1058699941+1060956304+1063792654+1065412649+1065690187+1064550820
1008+1061935202+1059161587+1057397777+1055772137+1053039167+1049928244
1000+1048071428+1047407185+1046334998+1044495471+1043730601+1045311149
991+1047309804+1046589108+1043266979+1040375658+1039167277+1037949653
983+1035845783+1034451248+1034722012+1035181118+1034147107+1031417313
974+1027344356+1022473434+1018362300+1016612322+1016500404+1015641115
965+1013406910+1011441139+1010682620+1010255199+1009313912+1008089937
957+1006780081+1004712201+1000884745+994914467+988047924+982743441+980209963
947+979262890+978213214+977168618+977335296+978321040+977993611+975343345
937+972029402+970540943+971765413+974315827+975775706+974924180+972912118
927+971636205+971556465+971795121+971290430+969677138+967642636+966161516
917+965226863+964187701+963283885+963368635+963941706+963150444+960513515
907+958038678+957686763+958982787+959936352+959697202+959342747+959906220
897+960700093+960450217+959263359+958347689+958115313+957692126+956727835
887+956322642+957179884+958093861+957193785+954292091+951389127+950652413
877+951676192+951720296+949515375+947012099+946329439+947013228+947300716
867+946453848+944920720+943286894+942081125+941850866+942289155+942204898
857+941181261+940478701+941891936+945828417+950345449+952574009+951845057
847+950325902+949725734+949235297+947667450+945822137+944948594+944125436
837+941602755+938109078+936636991+938956370+943565068+947268750+948527091
827+948875408+950558983+953474579+955674277+956206631+956070367+956422776
817+957259906+957988787+958160617+957527565+955928810+953222444+949780564
807+946952400+946415460+949147583+954445785+959835089+962640248+962391431
797+961109661+960519937+960501519+960790912+961951237+963806148+964823646
787+963941776+961694093+959374008+958181152+958880466+960835087+962021168
777+961587820+960766990+960389318+959546754+957362580+954469072+952135015
767+951041375+951356808+953158088+955826277+957658536+957834317+957862403
757+959113476+960403855+960211985+959260043+958451704+957196396+955825078
747+956395608+959206906+961422553+960390447+956716756+953605550+953971296
737+958138953+963584781+967300459+968618500+968959830+968796045+966526204
727+961373791+955637794+953337750+956703701+963311477+967600296+967037881
717+964411890+962390866+960440973+958023647+956899311+958499407+961513231
707+963680822+963323614+959501521+953220186+947225563+943499088+941737113
697+940683062+939715101+938597539+937385066+937232431+939451817+942511510
687+942332200+937753635+932836985+931878904+935313234+940668384+944573251
677+943646713+936824133+928340418+924148204+925044469+925685636+919576201
667+909205326+904387399+907994547+916904907+925395467+926759729+919439796
657+909366359+903349225+902828303+903525853+900020251+892097045+885945341
647+886758126+891881606+893821479+890239030+886344748+886350181+888823466
637+890527435+889459482+886028469+881330363+875350418+868130196+861317707
627+858377554+861073053+866672645+870458819+871285435+871503909+870954337
617+866353826+858539928+854455751+858638580+866311556+867494109+858810268
607+847809658+843131805+845402776+848217814+846129046+841877133
##END=
