##TITLE=<SNM>
##JCAMP-DX=4.24
##DATA TYPE=INFRARED SPECTRUM
##DATE=2/5/2025
##SAMPLING PROCEDURE=Instrument type and / or accessory
##ORIGIN=Admin
##XUNITS=1/CM
##YUNITS=ABSORBANCE
##RESOLUTION=4
##FIRSTX=4497.3318
##LASTX=599.83466
##DELTAX=-1.4281778
##MAXY=1.8436812
##MINY=0.39820042
##XFACTOR=1
##YFACTOR=1.7170619e-09
##NPOINTS=2730
##FIRSTY=0.41551253
##XYDATA=(X++(Y..Y))
4497+241990416+241653871+242625510+244101930+245127340+245161966+244463902
4487+243595222+242711026+241966863+242035421+243160041+244248437+244072476
4477+242974204+242368685+242991873+244493529+246198067+247388242+247215770
4467+245344279+242797045+241346174+241771827+243119322+243895908+243745738
4457+243579723+244245035+245419069+245898475+245094779+243967833+243880252
4447+244762209+245155527+244114896+242394286+241458124+241769796+242446113
4437+242499640+241893913+241142963+240546470+240167575+240047902+240289748
4427+241091431+242418932+243677041+244266835+244276902+244019712+243318333
4417+241943813+240356380+239375855+239344249+240025685+241041531+242026170
4407+242620737+242721058+242600413+242476504+242155824+241218777+239480828
4397+237495356+236448442+237034782+238624680+240053629+240792065+240792777
4387+240020912+238809423+237897127+237681662+237918770+238107106+237793803
4377+236884249+236032179+236102873+237013364+237779588+237802151+237460956
4367+237357476+237581462+237860209+237924585+237572420+236751141+235729446
4357+234983963+234856861+235407707+236454257+237616696+238433896+238543260
4347+237813711+236442836+234920161+233751178+233188929+233131912+233218695
4337+233229040+233404862+234056445+234934254+235403594+235141249+234298240
4327+233257192+232470661+232198684+232319173+232661063+233306190+234197572
4317+234837370+234876301+234674860+234824786+235325940+235678556+235714103
4307+235768620+235922503+235766901+235238099+234998786+235533230+236393613
4297+236793144+236605832+236313443+236187503+236031676+235656375+235108566
4287+234437387+233693884+233118496+232893502+232796184+232476806+231997642
4277+231908013+232767702+234510250+236393561+237714188+238247782+237923578
4267+236781289+235423502+234616282+234305911+233861305+233209392+232876389
4257+233078402+233582871+234327642+235504730+237052764+238505284+239389411
4247+239550185+239076784+238160044+237092180+236204062+235693952+235610362
4237+235889040+236216315+236148243+235657659+235184397+234986168+235011908
4227+235437769+236483989+237607341+237886105+237282547+236598542+236330244
4217+236365651+236589343+237014319+237409979+237355306+236732517+235938246
4207+235550552+235893084+236981515+238616435+240159748+240523125+239119082
4197+236793543+235125715+234890116+235632544+236426365+236638306+236210466
4187+235596338+235366468+235692685+236245023+236630096+236781029+236874650
4177+237162579+237952772+239335918+240825372+241684176+241630700+240825841
4167+239495633+238011072+236792675+235886714+235168516+234874530+235330002
4157+236249050+236838792+236647227+236066702+235823588+236058631+236300130
4147+236343123+236485932+236843981+237154074+237254725+237218536+237149891
4137+237218328+237631293+238351591+239004285+239140656+238691884+238188144
4127+238166952+238433549+238452693+238176637+237804616+237235563+236515560
4117+236200972+236640684+237437715+237963932+237923752+237270276+236119136
4107+234887999+234080727+233849260+234060437+234714138+235903133+237363377
4097+238437749+238643546+238107436+237349700+236800468+236617096+236780977
4087+237128855+237314657+237020914+236344650+235797987+235815430+236359785
4077+237132517+237985107+238842175+239464530+239582954+239108911+238204807
4067+237352494+237066371+237217946+237135659+236672967+236472950+236958066
4057+237818328+238564747+238976098+239104520+239188317+239333696+239274215
4047+238798315+238234816+238101778+238404355+238613068+238341455+237787971
4037+237376464+237230773+237294645+237688414+238530902+239556728+240192916
4027+240017024+239225200+238619143+238788908+239440022+239927378+240125573
4017+240318560+240546851+240544942+240193853+239678693+239213866+238910178
4007+238962682+239589098+240615844+241486016+241880652+241999788+242131802
3997+242272772+242199354+241810619+241405325+241442659+241923072+242368789
3987+242531403+242654235+242944923+243209420+243141365+242833963+242790901
3977+243267825+243822402+243837347+243355632+242993105+243114462+243493270
3967+243838666+244320536+245237849+246328207+246892365+246599611+245728814
3957+244762244+244186023+244448923+245785189+248090472+250711663+252394887
3947+252421598+251740231+251669087+251958785+251435901+250039304+248756184
3937+248295002+249041352+251194263+253881131+255071705+253792664+251721295
3927+251198168+252596640+254222534+254564754+254215904+254750470+256380183
3917+257496558+256589208+254129781+251762118+250451592+250234791+251239216
3907+254135786+259195142+265218084+270041582+272239706+271429709+267772486
3897+262700599+258761193+257746354+259403317+261482098+261925402+261783633
3887+263318077+266015619+267224886+266735275+266499781+266158533+264205918
3878+262017947+262026573+264345326+267711513+271465949+274462997+274691687
3868+272732129+271425127+271429396+270773578+268430804+266035371+265705630
3858+268557802+275089899+284216596+289831779+285841988+276769113+269169969
3848+265381739+265500875+268589773+273046891+277362587+280759721+282803128
3838+283077310+281921900+280258532+278303105+275818875+273371563+272161931
3828+272615632+274279833+277226182+282005646+287096417+288721392+286669254
3818+284639003+283425292+280747033+276506751+273356515+273391124+276905675
3808+282028695+285802692+288032614+290940813+294215270+294996490+293359591
3798+291742583+290336231+288261200+286494179+286618261+288629940+291632646
3788+295415651+300171424+305322093+310065924+314710579+319822925+324645694
3778+328082887+330827240+334982613+342444901+353853381+367601632+380327337
3768+390177370+398061492+405432484+413417031+422553292+431292781+436376384
3758+437010386+436676133+439301801+446467014+456813896+466261325+472240459
3748+477424765+485214676+494613159+500486591+502394635+506000221+514969199
3738+528776775+543347415+553139963+556394946+557094312+559661975+565292554
3728+572600854+579065520+582759799+583663591+582389479+579309693+576157391
3718+575638255+578545552+583062567+586421621+586449044+583239049+579263490
3708+576540242+575659639+576471128+577610102+576877758+574401703+573230134
3698+574879322+577685429+580078659+582897194+587649009+593814274+598456187
3688+598992853+596210662+592967898+591561251+592850012+596676166+603064567
3678+611466471+617504617+615722096+609375697+605435407+603845752+599786812
3668+592949639+587619294+585681050+585335377+584284887+582719115+582154054
3658+582227195+581193888+579940570+581945914+588860428+597696108+601461722
3648+596891457+588664507+581355860+575505860+570381572+566377271+564693648
3638+565529193+567293976+568257891+569087119+572489286+579450420+586070532
3628+587150319+584202408+582075082+582935656+586945651+593047599+598593651
3618+601735192+603824924+606166744+607585887+607259722+606827543+607392326
3608+607272705+604955879+601868630+600343264+601245806+604301258+609213448
3598+615559361+621919992+626268995+628062208+628974331+630618693+632512782
3588+632763341+630864809+628720230+628372613+630443044+634127499+637423722
3578+638262392+636417249+633770717+632502368+633903599+638714565+646804537
3568+655083764+657508964+651860647+643421462+638583350+639266019+642435677
3558+643854821+642820021+641636025+641308472+640831721+640256385+640798813
3548+641804037+640845537+637412197+634027664+632997794+634316269+636467791
3538+637735793+637158930+634978596+632405588+630854257+630716445+631009077
3528+630875293+630727623+631119465+631840943+632676697+633269529+632295339
3518+629023068+625457540+624520424+626484356+628750222+629116516+628105252
3508+627624336+628421489+629208297+628002084+624472103+620540352+618254074
3498+617756912+617669921+617140962+616732527+617046403+617705051+618390635
3488+619571022+621630762+623847475+624241469+621329452+616366858+612457185
3478+611339560+612401713+614045173+614593432+612898667+609564745+606784777
3468+606172992+607357683+608670812+608802722+607734182+606047608+604157199
3458+602547064+601770114+601699368+601478384+600723998+599910530+599332625
3448+598839837+598444871+598179176+597576070+596089027+593749846+591104079
3438+588993449+588293146+589249771+591156010+592965121+593991797+594014014
3428+593080021+591500364+589854127+588474626+587031184+585064683+582854011
3418+581214786+580497334+580447660+580931457+581995936+583224747+583695666
3408+582800761+580737133+578240909+576220638+575384086+575750240+576627476
3398+577312957+577670294+577781342+577321635+575894230+573815259+571988618
3388+571212397+571766697+573193234+574379209+574574540+574256463+574348176
3378+574902996+575294838+575553347+576395315+577559351+577304314+574525004
3368+570453047+567141029+565265477+564362241+564231858+564969826+565968245
3358+565979805+564542333+562707118+561859874+562273689+563390724+564974963
3348+566907271+568055999+566830451+563250066+559295022+556917136+556379777
3338+556541436+556335066+555868660+556028965+557215982+558895092+560234708
3328+560998709+561578489+562099394+562134246+561388399+560104429+558866627
3318+558325762+558762661+559680581+560321386+560585415+560841285+561196297
3308+561663015+562360680+562998847+563046335+562633769+562271745+561851994
3298+561056542+560262721+559894414+559541625+558748880+557976721+557856544
3288+558252308+558802443+559543430+560376129+560886551+561130897+561453174
3278+561522774+560958060+560370505+560459302+561003778+561473030+561538950
3268+560897625+559633129+558466662+557973423+558116372+558792654+560020319
3258+561424952+562311388+562337943+561741641+561036512+560578229+560391090
3248+560146744+559299431+557770073+556344647+555818326+555843319+555392916
3238+554320036+553476403+553411524+553923161+554616348+554976289+554253977
3228+552327883+550260263+549128649+548828172+548618886+548242422+547794587
3218+547098276+546126273+545627237+546402243+548057158+549147463+548700670
3208+547188739+545810001+545329988+545807294+546756803+547291455+546803527
3198+545616788+544246937+542525824+540329870+538295609+536965331+536158632
3188+535688130+535681743+535971945+536111978+535936225+535426219+534482195
3178+533301323+532341886+531637243+530805551+529838720+529161778+528662187
3168+527419768+524974434+522246014+520428190+519569074+518952951+518241366
3158+517554982+516965553+516603356+516773068+517336359+517453793+516432012
3148+514479153+512390046+510865444+510211413+510259526+510379460+509811969
3138+508298093+506412891+505010410+504340342+503988941+503582901+503074110
3128+502434242+501715368+501293186+501433670+501822215+501986061+501808503
3118+501246497+500116028+498585872+497348487+496808038+496514364+495835167
3108+494777561+493737207+492906626+492391864+492389052+492781172+492995908
3098+492538388+491383135+489930667+488831370+488540509+488853691+489143893
3088+489055409+488748753+488560885+488493715+488055358+486900242+485514771
3078+484772048+484984493+485783624+486512219+486450256+485314337+483760541
3068+482783782+482675963+483001260+483204888+482867649+481880650+480651700
3058+479692680+479046564+478479767+477955356+477503980+476912746+475949872
3048+474730156+473635268+472963638+472695479+472527016+472195575+471743193
3038+471285812+470769037+470230775+469909331+469714243+469037094+467642388
3028+466331689+466062974+466667365+467051605+466601445+465724070+464960241
3018+464299615+463577200+462964894+462669763+462445481+461794471+460615889
3008+459408878+458738845+458600374+458379321+457450778+455810512+454134595
2998+453192133+453087508+453089486+452361343+450855417+449310681+448422614
2988+448242280+448344024+448346974+448248111+448313303+448658317+449001734
2978+448899643+448187051+447097648+446047262+445291730+444667206+443776813
2968+442581292+441593495+441255631+441385979+441440028+440999275+439951250
2958+438601706+437572461+437169441+436972028+436410855+435489533+434578069
2948+433822364+433116263+432462129+432037378+431904462+431876691+431766442
2938+431576041+431273967+430578870+429239359+427447535+425770820+424694400
2928+424332619+424558879+425222283+426057551+426523436+426122360+424921632
2918+423450592+422153882+421215863+420666909+420306031+419736979+418792642
2908+417810502+417289944+417323512+417467224+417189658+416407987+415518497
2898+414952082+414770949+414677258+414390076+413978065+413704699+413621145
2888+413510931+413158939+412555520+411939362+411603234+411491249+411168972
2878+410408442+409509683+408830382+408348528+407892710+407505762+407352399
2868+407395409+407350837+406997874+406399905+405726505+405016655+404233908
2858+403378472+402472111+401605601+400926716+400422438+399931351+399454461
2848+399122951+398874578+398540082+398144248+397792881+397443146+396983405
2838+396358811+395606299+394912869+394489855+394243183+393816038+393111985
2828+392460801+392096417+391798231+391252020+390520336+389948193+389736096
2818+389717108+389510356+388904993+388102078+387491543+387215400+387056066
2808+386696265+386017379+385215679+384620556+384304667+383962013+383299964
2798+382447235+381839303+381707185+381773800+381574407+381030174+380452374
2788+380007733+379525047+378860602+378148704+377603257+377215788+376750944
2778+376087645+375453332+375133103+375090683+375093634+374987273+374631845
2768+373861317+372712589+371481383+370451721+369695772+369113043+368572663
2758+368035928+367561399+367186115+366816767+366276769+365553659+364932676
2748+364669758+364607691+364395142+363935401+363309384+362524416+361675887
2738+361073128+360883420+360817465+360406878+359522248+358447737+357479517
2728+356681045+356082000+355838939+356008408+356314578+356320445+355837967
2718+355112253+354527198+354131919+353609451+352774808+351887470+351324284
2708+351126315+351053140+350956325+350871277+350777656+350498354+349902155
2698+349078620+348263208+347640038+347219071+346887109+346565631+346261439
2688+345975854+345662984+345283222+344862707+344490235+344192084+343817355
2678+343219352+342559558+342185142+342172923+342225618+342044033+341626781
2668+341181515+340883572+340782036+340826400+340842264+340547931+339797189
2658+338806615+337973429+337478073+337201791+337010695+336942553+337009480
2648+336948558+336430291+335510045+334598894+333989747+333671636+333541323
2638+333500431+333401324+333149446+332824253+332550505+332306506+331986312
2628+331613284+331340022+331183431+330927422+330454802+330029531+330001414
2618+330307445+330525062+330391971+330029739+329649353+329282157+328847861
2608+328297692+327643557+326978418+326478514+326269471+326262043+326205113
2598+325942786+325574236+325313089+325219433+325129317+324854771+324402979
2588+323950459+323607874+323321074+323070966+322995152+323131922+323225301
2578+323016952+322549817+322000065+321461837+321051840+320930691+321066142
2568+321207147+321163721+320917952+320501428+320018950+319725173+319775403
2558+319924322+319757595+319208815+318593559+318191997+318034225+318021590
2548+318067342+318129582+318160130+318047347+317723300+317320210+317046358
2538+316930486+316850680+316741611+316636674+316580091+316558326+316462344
2528+316172732+315748433+315402204+315228777+315110614+314940519+314777263
2518+314709816+314688883+314606405+314491713+314495601+314672186+314901432
2508+315040944+315020394+314782713+314320612+313811994+313522591+313500826
2498+313536268+313473853+313391132+313411439+313528909+313673801+313777281
2488+313729828+313436502+312964056+312518478+312248514+312147741+312130038
2478+312108620+312020691+311862781+311691888+311535991+311358434+311180286
2468+311143802+311330351+311602571+311764092+311789120+311756802+311683349
2458+311581014+311528875+311504298+311326185+310947638+310606130+310514001
2448+310590440+310611823+310474880+310254625+310107059+310119868+310211441
2438+310229249+310152498+310103483+310165759+310289824+310390179+310442909
2428+310452420+310393755+310242510+310032981+309858443+309805159+309846918
2418+309840635+309720389+309623678+309691126+309856499+309991568+310128893
2408+310375878+310686526+310846033+310713046+310450684+310399135+310659623
2398+310971000+311093329+311120510+311277621+311572648+311794917+311760863
2388+311416092+310710339+309484201+307490624+304464157+300223459+294825805
2378+288630131+282153402+275815560+269738640+263785194+257883957+252254177
2368+247197684+242848334+239254203+236525158+234922747+234967995+237256113
2358+241977450+248765175+257195126+267295319+278802072+289739512+296925986
2348+298245156+294331212+288496850+284195907+282111555+280984853+280133721
2338+279642304+279350210+278727369+277499044+276057372+275140858+275131589
2328+275800859+276677089+277477661+278283787+279458463+281318707+283798198
2318+286438551+288710544+290390227+291691971+293031829+294652726+296504846
2308+298405392+300183261+301704426+302892484+303753475+304350367+304780880
2298+305176193+305623577+306058151+306322596+306371368+306352067+306461656
2288+306763800+307154358+307479203+307659365+307691821+307565778+307247007
2278+306763522+306266881+305939640+305822275+305780654+305656797+305386729
2268+304994088+304594991+304382859+304457110+304683996+304839649+304842183
2258+304765467+304698228+304664730+304648172+304649873+304694201+304774111
2248+304863706+305000163+305248397+305565502+305805404+305868409+305776488
2238+305615002+305460043+305371698+305418804+305632602+305909578+306069814
2228+306052180+305927560+305739727+305512321+305366873+305441819+305716955
2218+306030970+306231196+306266152+306189228+306090955+306016252+305966890
2208+305953838+305990738+306048119+306059713+305988204+305868443+305761631
2198+305688004+305643398+305627083+305605665+305528949+305408216+305297065
2188+305231491+305265406+305460355+305746565+305915931+305860668+305733409
2178+305776662+306037323+306336897+306500223+306490746+306339466+306116503
2168+305960086+305959635+306061101+306203321+306411947+306659626+306813960
2158+306808371+306739327+306750262+306886858+307086875+307287378+307494026
2148+307712233+307894303+308005246+308057351+308076304+308121327+308270247
2138+308477658+308555589+308413300+308223558+308231160+308435169+308569578
2128+308439300+308196204+308181242+308536497+309083125+309570324+309919191
2118+310170272+310325023+310388652+310497651+310814235+311304281+311771069
2108+312089111+312277707+312383166+312429265+312483973+312653200+312958398
2098+313285778+313501103+313579347+313620412+313775789+314121636+314565999
2088+314951037+315241309+315489508+315657936+315641794+315461147+315298273
2078+315324447+315525748+315720142+315762041+315691191+315656860+315807168
2068+316262153+316990297+317669251+317909501+317684525+317340552+317180664
2058+317218258+317302541+317309102+317219473+317152338+317297612+317703895
2048+318177521+318506463+318700996+318879178+319034902+319083396+319035110
2038+318973668+318936768+318922223+318951590+319056771+319211661+319323437
2028+319338121+319346695+319492803+319771827+320065778+320377884+320804093
2018+321222004+321302469+320980158+320632679+320623376+320902296+321166498
2008+321231932+321166324+321154209+321281989+321477701+321656162+321788870
1998+321858019+322006695+322626117+323857844+325117550+325597633+325157400
1988+324293320+323522723+323120849+323092627+323204924+323253939+323268831
1978+323355857+323533588+323768770+323994162+324168110+324439185+325015597
1968+325740269+326097919+325837535+325298718+324956550+324949885+325170244
1958+325524943+325934454+326252635+326380206+326413357+326579564+327008341
1948+327646022+328479519+329618979+330822762+331265146+330457614+329066310
1938+328096390+327803099+327841352+327959099+328177931+328531693+328892432
1928+329181940+329721521+330908017+332426579+333539934+334273562+335125492
1918+335646572+334875766+333206931+332155782+332487952+333619636+334469310
1908+334494963+334005090+333614741+333560102+333663096+333792368+334091561
1898+334727992+335513829+335993391+336180391+336795890+338154736+339330089
1888+339292425+338368326+337561176+337265559+337330195+337584225+337890882
1878+338121099+338252870+338459032+339293050+341562562+345349976+348978889
1868+349919338+347752751+344707539+342839381+342478712+342905336+343400450
1858+343656251+343708390+343722796+343809198+344108460+344926961+346564728
1848+349175644+352663205+355989420+357031856+355039564+352059023+350200307
1838+349745078+349934022+350423478+351787635+354573991+357988690+360174959
1828+360541322+360229529+359675923+358200024+356042497+354592597+354560974
1818+355318068+355966544+356509250+357614170+359364025+360793930+361025467
1808+360435308+360220017+361351354+363990595+367174070+369243529+369407376
1798+368672914+368773513+370775525+374319982+377084711+376505904+373439760
1788+371109605+371182537+372878796+374681901+376019851+376948011+377391298
1778+377717150+379142369+382720358+387916467+392147341+393069288+391235600
1768+388307406+385440516+384097985+385314716+387988254+389859779+390577300
1758+391199533+391702839+392084302+393949718+398471940+403839358+406424551
1748+405272283+402782308+401181927+401089729+402152472+403456229+404107726
1738+404905781+408173470+414391048+419274426+418193562+413498434+409123048
1728+406115396+404661713+404849720+406183538+408588917+413295882+421225132
1718+430153322+434504651+431895193+426198486+421482391+419346525+420132709
1708+423592951+428453731+432819188+436628819+441869673+448786721+453856439
1698+454822576+453119444+449286451+444352427+441444645+442130715+445344980
1688+450016469+456882871+465636593+470919901+468618349+463311540+460207211
1678+460899253+464687014+469151265+472200261+474662431+477798869+479735342
1668+478063869+475033341+474584083+477295250+480282213+481018514+480808881
1658+482804819+489190304+500412305+512346932+515375621+510863431+509117150
1648+512114666+514743668+512312809+507475010+504805776+505642537+509833005
1638+516933894+524579676+527449135+523809009+519078265+517600699+519486075
1628+522731027+525816575+528755114+531230648+532003363+531745409+533166323
1618+537169028+540697760+540298697+537724786+536517532+537571423+539760921
1608+541744570+543159617+544488714+546070038+547619286+548775234+549719120
1598+550869236+552231658+553483866+554571429+555752857+557044013+558126855
1588+558892489+559628373+560581249+561720882+563095731+565269712+569118742
1578+574635531+579279978+579579796+577145709+576752235+579718232+583122482
1568+583737530+582378718+581769780+583754539+590063517+602312264+617339868
1558+623017136+616533481+608684420+604465313+603637196+604929844+607105665
1548+610141817+615427173+623702443+633853890+644254300+652397729+653258060
1538+647504146+643203949+644320463+648835604+652513949+654385960+657258821
1528+662780991+669827415+676964163+684486851+692242743+697829618+700318413
1518+701896334+703495153+704318618+705001496+707740433+714160216+724285975
1508+735254847+739547685+733436988+725347434+722057459+723949396+729192263
1498+734768307+737251617+736395452+736052417+739354263+745500714+750322649
1488+750567099+747824968+745572987+745380467+746885283+749235155+752339831
1478+756807901+762867221+769895178+776348285+779672070+778837844+776728117
1468+776576073+778727178+781191812+782326655+783269256+786549094+793375992
1458+801696320+805529625+802297205+797059753+793856145+793126891+793964658
1448+795120120+795549800+795100264+794261317+793554557+793850174+796336747
1438+800832657+804223785+803493490+800630834+799243835+799802509+800394507
1428+799941917+799505850+800298005+802252911+804807175+807623245+809779974
1418+809676320+807182318+803882624+801008166+798939401+797634464+797056004
1408+797423339+798598726+799573819+799739539+800088823+801739850+804375968
1398+807098243+809629666+811616369+812306675+812233291+813158397+815420931
1388+816936716+815846445+813804409+814223119+818255053+824380606+830533305
1378+835828381+840564784+844949750+848260760+849832225+850312030+850967970
1368+852566442+855298159+858757187+861785424+863188113+862928528+862121864
1358+861835133+862169629+862179349+860933355+858722474+856556789+854942835
1348+853867699+853378244+853668029+854998585+857577981+860976885+863759353
1338+864471598+863168257+861366436+860556578+860967998+861518896+861076165
1328+859911608+859481303+860695153+862950050+865035548+866567231+868061355
1318+869838738+871570578+872889331+873818810+874602355+875569186+876957088
1308+878548686+879949918+881329488+883116383+885019497+886283611+886716346
1298+886572147+885895657+884809829+883809396+883156095+882537992+881519994
1288+879842585+877376701+874360058+871550861+869632681+868575873+867942428
1278+867540171+867296832+866817096+865745154+864395020+863445199+863208941
1268+863578983+864350102+865313947+866289387+867271214+868447504+869891780
1258+871367506+872569345+873530899+874607076+875941311+877228406+878268065
1248+879439148+881338722+884187631+887594727+890663440+892524829+893192155
1238+893637247+894675656+896233097+897890928+899466489+900854877+902100732
1228+903856246+906957658+911226127+915252021+917721931+918786167+919711273
1218+921374103+923579083+925629658+927015338+927672736+928125396+929249200
1208+931558597+934844405+938503103+941930542+944802500+947346350+949912485
1198+952330882+954294605+955994370+957607213+958898264+959746446+960353371
1188+961021877+962161440+964330596+967866826+972261651+975840716+976976114
1178+976339267+976583855+979012249+981986056+983268430+982560004+981091776
1168+980122168+980311632+981769168+984443887+988150697+991966437+994674063
1158+996241432+997520612+998647678+999112557+998908513+998283190+997121063
1148+995874722+996009756+998184605+1000908408+1002366985+1002899902+1003986285
1138+1005777275+1007431288+1008822939+1010353164+1012022173+1013536847
1130+1014236039+1013362795+1011837568+1012061746+1014916001+1018641000
1121+1021319468+1022992642+1024630270+1026747911+1029556970+1032585485
1113+1034370505+1034087870+1033044879+1033006972+1033982273+1034837119
1104+1035210424+1035817558+1036833334+1037225107+1036762380+1036749189
1095+1038093352+1039961823+1040754255+1039998827+1038844198+1038661815
1087+1039723621+1041743858+1044474186+1047263111+1049559734+1051518667
1078+1053013901+1053518839+1053892977+1056265761+1060499030+1063067041
1070+1061708229+1058880078+1058373544+1060618513+1062862302+1062918329
1061+1061209748+1059784842+1060739593+1064680230+1069205854+1070077085
1053+1066055635+1061362972+1061513210+1067039059+1072237841+1071571973
1044+1065932056+1060372952+1058415547+1059732980+1062391870+1065852494
1035+1070189556+1073686699+1073741823+1070425050+1066628125+1064413842
1027+1063313296+1061654076+1058975539+1057434067+1059712014+1065164340
1018+1069608388+1070116311+1068144326+1066502949+1066001066+1065908521
1010+1065230365+1062928118+1058431931+1052975647+1049646100+1051054274
1001+1056832141+1063695696+1068196396+1068688767+1065940874+1062406033
993+1059747838+1058180677+1057028964+1055723124+1054710680+1054274406
984+1053549178+1052379136+1052411281+1054144301+1054403330+1050188320
975+1043496733+1038410353+1036193501+1035901702+1036870060+1038019760
967+1037320637+1034161740+1030323853+1027458212+1025297249+1022561921
958+1018489373+1013730130+1010244512+1009665149+1011205997+1011919908
950+1009598847+1004708804+999293829+994861653+991804812+990159200+989947519
940+990696490+991352083+991113395+989949116+988023855+985019223+980483393
930+974992812+970645406+969645945+972170702+976050661+978724616+979159016
920+977713630+975283917+973330608+973402394+975569815+977908162+978171913
910+975979430+972977297+970871041+969895463+969412325+969513687+970683660
900+971827250+970787174+967401530+964010957+962552796+962672487+962644370
890+961082972+958038211+955124458+954019746+954962625+957163787+959983467
880+962868547+964769787+964675645+962740803+960302134+958474208+957113800
870+955293233+952743691+950887231+951720555+955313853+959136258+960428351
860+959104322+957521888+957489882+958574321+959121887+958409225+956939609
850+955333015+954426932+955183123+957350474+959351271+959803167+958362016
840+955536225+952190432+948863801+945919431+944583877+946542324+951717431
830+957399628+960721261+961665111+962396379+963810315+964291579+962282728
820+958882227+956670235+956630245+957557156+958010788+957770503+957564585
810+958193796+959799904+961651087+963269901+965520216+968926896+971594880
800+971159091+968696678+967573985+967943125+965958157+959845517+953204820
790+950359730+952103719+956774097+962217120+965928998+966567651+965629701
780+965359841+966076113+966991846+968037753+968829005+968013801+965371574
770+962194557+959412644+957053954+954982828+953739889+954436443+957561461
760+962118604+965664345+966098468+963667228+960557692+959010457+960268879
750+964327611+969444886+972644190+972043235+968651760+965316589+964449246
740+966933042+971593492+975384377+976026570+974453509+972978408+972405918
730+972482773+972991946+972609476+969571103+964674881+961342696+962302515
720+966899023+971954786+975058351+976187153+976459513+976131821+974474684
710+971696451+969234177+967276771+964202574+959596693+955697433+954178663
700+953708508+952341296+950636116+950035925+949451911+946973253+944087131
690+943646899+944886228+944620950+942454780+941362634+943238395+946724082
680+948539302+946167491+940480226+935052129+931382879+926160353+914681822
670+897551989+885556995+891013071+908331189+922584967+927145929+923518196
660+916140955+909361545+906155854+906370936+906627120+903886238+899545566
650+898260832+902164118+906987026+906814015+902809089+901433475+905406674
640+911146009+913134934+909737557+904327442+899742042+895161016+888916049
630+881226598+874415668+871288846+872930709+877679677+881713277+880770884
620+873581927+865683226+865824300+876350163+889368570+894397396+888912647
610+878639565+871316200+872015531+880223943+890143298+895796336+895976359
600+892182904
##END=
