##TITLE=<SNM>
##JCAMP-DX=4.24
##DATA TYPE=INFRARED SPECTRUM
##DATE=2/5/2025
##SAMPLING PROCEDURE=Instrument type and / or accessory
##ORIGIN=Admin
##XUNITS=1/CM
##YUNITS=ABSORBANCE
##RESOLUTION=4
##FIRSTX=4497.3318
##LASTX=599.83466
##DELTAX=-1.4281778
##MAXY=1.6965524
##MINY=0.26432329
##XFACTOR=1
##YFACTOR=1.5800375e-09
##NPOINTS=2730
##FIRSTY=0.28478763
##XYDATA=(X++(Y..Y))
4497+180241049+180661403+181010365+180837251+180187142+179201312+177839209
4487+176349109+175569080+176306104+178507180+181164975+182916781+182907879
4477+181380037+179489124+178598131+179548086+181988216+184177182+184228090
4467+182185039+180123672+179703243+180469597+180980016+180677718+180031250
4457+179664482+179864530+180394678+180649841+180377495+180009653+179994394
4447+180242747+180399526+180183313+179525263+178757306+178368998+178437184
4437+178656641+178741556+178458856+177711420+176810261+176234920+176198064
4427+176721799+177665511+178491525+178613070+177968487+176775970+175138673
4417+173460541+172651012+173244007+174651926+175687117+175625571+174610204
4407+173257116+172130295+171482110+171259993+171348530+171720353+172156230
4397+172145252+171539016+170919180+170813365+171027220+171219950+171566195
4387+172298447+173016930+172995258+172118846+171118247+170706985+170772492
4377+170673448+170123797+169479196+169297444+169784002+170547018+171010490
4367+171152292+171368562+171508252+170821966+169210170+167746854+167482318
4357+168249068+169071649+169476065+169799978+170251718+170403404+169906623
4347+169219054+169160526+169937311+170923254+171419998+171392327+171231380
4337+170972672+170195774+168841309+167695154+167640587+168597766+169637974
4327+170175912+170524516+171042913+171367996+170957941+169954720+169006142
4317+168514585+168455492+168638885+168784441+168566550+167976987+167523965
4307+167687723+168280398+168740040+168946162+169279789+169923957+170545471
4297+170696667+170277558+169595101+169082910+168970248+169219997+169721174
4287+170355156+170898998+171073469+170714133+169818368+168572152+167495578
4277+167289249+168163002+169469576+170365756+170710851+170947680+171302149
4267+171588320+171725747+171989246+172597501+173260285+173357857+172641185
4257+171636701+171218082+171797667+172958912+173874481+174144242+174063986
4247+173990085+173881007+173720739+173786491+174045595+173945137+173273828
4237+172506512+171932133+171251505+170341915+169616076+169380832+169565639
4227+170230838+171606786+173376115+174617598+174798482+174269485+173642745
4217+173224316+173083588+173082909+172844685+172165415+171323180+170738201
4207+170671883+171290757+172548970+173969167+174883926+174918481+174214521
4197+173363553+173016063+173375587+174158728+174949490+175378520+175157629
4187+174248246+172992485+172012823+171808928+172255386+172725403+172944501
4177+173303365+174077415+174958449+175615084+176119297+176611514+176966418
4167+176970284+176664969+176361068+176231940+176038437+175496349+174783845
4157+174351930+174334822+174465741+174481284+174357003+174212051+174162991
4147+174254659+174429527+174606865+174812553+175109645+175409095+175507308
4137+175336911+175084332+175066678+175480977+176193839+176854247+177251287
4127+177387752+177195664+176477049+175287455+174166877+173741883+174097145
4117+174693592+174987270+174984573+175097158+175593450+176337038+177005707
4107+177422024+177597231+177589384+177527688+177554188+177601852+177533799
4097+177494114+177677922+177802598+177453617+176893441+176803452+177299498
4087+177839944+178062344+178167309+178426055+178748931+178933475+179111492
4077+179620346+180367951+180719233+180289580+179482862+178888414+178533398
4067+178164103+177887834+178016283+178493788+178884925+178846107+178431393
4057+178014133+177960698+178320599+178840788+179280890+179628947+179992470
4047+180403902+180747224+180784306+180322306+179476091+178698985+178401252
4037+178566312+178875003+179143369+179461699+179953935+180542479+180975583
4027+181063687+180871636+180676549+180770688+181280182+182091824+182905842
4017+183372897+183247428+182564047+181723774+181210413+181149904+181312813
4007+181492000+181672621+181952209+182428129+183007148+183395795+183520358
3997+183700111+184061163+184131009+183492839+182563066+182207805+182744366
3987+183752622+184774855+185692953+186346796+186356020+185679089+184999594
3977+185138624+186170024+187293262+187559647+186714016+185352818+184345618
3967+184229731+185114650+186789048+188608758+189606923+189269939+188126858
3957+187207271+187077615+187642355+188648914+189970239+191255499+191752488
3947+191172753+190447819+190654940+191442816+191483331+190356962+188956814
3937+188330716+189129098+191605008+195124824+197833017+198047627+196318643
3927+194819603+194751248+195338321+195513339+195641448+196636803+198246807
3917+199002561+197719658+194821319+191866753+190031558+189570709+190702264
3907+194309637+200966601+209211708+215709516+218158869+216620049+211802750
3897+205144730+199816805+198777879+201822228+204970598+204747746+203305801
3887+204598663+208173932+210390701+210672420+211188384+210907608+207403202
3878+203079271+202368804+205824641+210861491+215604437+218839836+218839666
3868+216547262+215321095+215733583+214905117+211406351+207622980+206420635
3858+209302923+217293868+229628284+238334863+233974491+221795930+211004633
3848+205110062+204429190+207819614+213310542+219441112+225824127+231184287
3838+232472716+228896070+223841509+220140903+217696435+215701952+214444588
3828+214189256+214549196+216411476+221843197+229675420+233942728+232529660
3818+229915002+227363946+221882260+214030515+208390654+208216937+213649319
3808+221297450+226437267+229305974+233679191+238630220+238877253+234418083
3798+229714803+225710032+221255804+217141427+214972661+214949707+216547413
3788+219580915+223596230+227452483+230785756+234668510+239255601+242273486
3778+242119593+240814169+241524447+245803280+253415386+262438239+270139844
3768+275585391+279849606+283820709+288510691+295748371+306161791+317424839
3758+326712984+335073582+346614502+364431982+386873502+405411389+413749277
3748+417907281+425479721+435881880+442292131+443586465+446386911+455335770
3738+470870748+489464767+504130066+509959828+509377979+508178672+509468403
3728+512668643+515419483+516112163+515354372+514585830+514618687+516057464
3718+519543348+525430524+534243654+546253629+558822516+566803125+569316797
3708+570580762+574066759+580910794+590101574+598093084+601280084+599687169
3698+596338637+594598260+596742958+603141893+611990143+619407199+620608091
3688+615199060+608768022+605549524+605678576+607489646+609876454+613493087
3678+618924526+623472742+623919842+623584065+626328228+627722868+620919084
3668+609056985+600221410+596621979+595837366+595448323+595888557+599399678
3658+606127939+613073828+618933579+626741602+638685712+651639908+657797600
3648+653109693+642682523+633458962+629330570+630469709+634001728+636876415
3638+638363704+639214672+640367579+643521797+650792938+661661097+670104234
3628+670006831+664684942+660673947+660850267+665903187+674192034+680526801
3618+681365170+680079777+680320076+681315601+682273779+685182417+690282190
3608+693355755+691122973+686478372+684577708+687520146+694109321+701944806
3598+708363697+710487533+707523065+703099147+702184125+705902762+711067873
3588+713535899+711957771+708964784+707613526+708428129+709909910+710368251
3578+709614912+708841126+709067392+710614964+713985036+719850521+727090654
3568+731899578+731102857+726069553+720500121+716774542+716019392+718466746
3558+722786924+726691086+728986338+730157353+730594645+729981486+728586997
3548+726888833+724457398+721275114+718626241+717049321+715795465+714971356
3538+715594323+717222321+718181329+718423062+719521647+722046863+725112581
3528+727719581+729176012+729335508+728503552+726993704+725255780+723964880
3518+723372016+722554546+720433124+717671986+716313485+717307953+719350609
3508+720838124+721672871+721846475+720475601+717826124+716119058+716777334
3498+718783624+719991608+719039842+717101756+717463374+721571244+726386808
3488+728137935+727597809+727840221+728967477+728814093+726652910+723470022
3478+720088406+716831505+714506979+714221713+716389536+720390346+724729310
3468+727789219+728747850+727752174+725825783+724623835+724889861+725584880
3458+725724382+725869542+726594136+727306055+727743347+728814243+730451371
3448+730397350+727272708+723152767+720802438+720092631+719102086+717149665
3438+715235421+714733245+716680686+721144062+726455012+730085377+730765910
3428+728547538+724024785+718901623+715659207+715488018+717265552+719176326
3418+720554141+721455659+721644654+720901877+719444314+717934165+717416145
3408+718583010+720514154+721058430+719466345+717328550+716052740+715645476
3398+716484674+719233968+722386601+723178419+721714744+720984115+722582915
3388+725198515+726894869+726679392+724473167+721072765+718124518+717448436
3378+718972468+720046759+718343314+715010588+713457358+715308906+718619074
3368+720172454+719424924+718985218+720674027+723185662+724816527+726010553
3358+727649415+729192988+730005704+730437488+730427605+729338903+727792538
3348+727270218+727947431+728562175+728086103+726905431+726469649+727392442
3338+727978138+726198567+723018320+721434911+722542399+724859381+727132980
3328+729494324+731795838+732794834+731532377+728594089+725739924+724452042
3318+724682004+725234428+725613248+726560864+728301807+729606061+729214189
3308+727448047+725963248+726019229+727178323+727791935+726792864+724689398
3298+723012133+723464363+726730243+731142542+733829289+734069136+733662023
3288+733795564+733778438+732954178+732310312+732964741+734027036+733926993
3278+732804340+731773657+731104290+730681409+731279554+733509544+736010541
3268+736572999+734665394+731328443+727905709+726211544+727772620+731606768
3258+734445089+734319771+732563060+731310412+730537531+728858682+726478400
3248+725372874+726507523+728679118+730318131+730861049+730120309+728103607
3238+725936841+725424102+727003965+729170354+730509842+731175663+731726352
3228+731739857+730711890+729309705+728385704+727984702+727922383+728579980
3218+730128080+731133111+729598365+725858980+722737732+722217977+723646342
3208+725530030+727171986+728305805+728495555+727585134+726287142+725679265
3198+726196983+726988121+726356629+723604770+720379708+719226197+720631248
3188+722695104+723791200+723791577+722944759+721439287+719614976+717580846
3178+715269749+713076501+711466535+710296803+709640413+710280884+712190526
3168+713806377+713962402+713539671+714181500+715956394+716988058+715430376
3158+711347480+706506792+703141171+702557211+703723472+704016283+702346336
3148+700371583+700046934+701474243+703153017+703182818+700827434+697866210
3138+697125621+699004934+700903711+700392633+697826676+695169504+693349417
3128+691784644+690081425+689079789+689686308+691654498+694010560+695574277
3118+695037471+692091940+688555658+687054939+688551282+691587199+693559764
3108+692731430+689628214+686533071+685404760+686299562+687639956+688000669
3098+687205305+685819115+684435566+683342714+682365825+681186058+680077740
3088+679605667+679465034+678828411+677952621+678038027+679181881+679781459
3078+678513646+675883710+673389805+672128631+672325925+673230159+673450691
3068+672288956+670665937+670099556+670959804+672121086+672227542+671096665
3058+669678259+668714347+667889634+666502991+664647822+663164532+662484828
3048+661960697+660716801+658952847+657629353+657202624+657369287+657428438
3038+656602292+655005001+654070512+654675070+655509742+654894093+653259305
3028+652099004+651592376+650795504+649398374+648183826+647741329+647481715
3018+646686653+645787625+645527031+645461090+644456814+642410612+640414206
3008+639331389+638942383+638465708+637518092+636366467+635438091+634987671
2998+635064476+635375469+635367170+634708441+633684549+632940338+632690193
2988+632398100+631559693+630444962+629565965+628821642+627875497+627074098
2978+627048446+627550622+627438281+625924774+623514804+621375275+619989085
2968+618972623+618139951+617886487+618236184+618429781+617905009+616896017
2958+615821499+614896592+614358579+614239712+613958860+612783771+610568794
2948+607794830+605223667+603592048+603223036+603669872+603875578+602930980
2938+600853053+598556707+596914977+596021306+595444739+594864513+594365506
2928+594433333+595456019+596841718+597103029+595423086+592765197+590858724
2918+590302414+590043216+588766311+586428959+584087193+582624274+582113949
2908+582112704+582015868+581334580+580051677+578578723+577310608+576282037
2898+575255240+574200791+573478309+573260342+573034529+572131012+570554356
2888+568816658+567220310+565796170+564649637+563934059+563632874+563620199
2878+563794859+563939869+563657809+562671187+561045604+559076811+557187313
2868+555872647+555350025+555222331+554870521+554126801+553265798+552495030
2858+551748783+550866429+549759959+548470831+547202867+546242840+545731309
2848+545421862+544651811+542812071+540111252+537624138+536276426+535984559
2838+535955512+535539760+534568001+533171399+531581917+529975195+528403632
2828+526953613+525824811+525130849+524788319+524612414+524340276+523661591
2818+522510683+521247510+520287294+519686622+519291166+518962254+518371352
2808+517025338+514913497+512758161+511330589+510824867+510895447+510868173
2798+510038934+508322549+506561953+505720114+505812197+505948681+505282408
2788+503692246+501731564+500087835+498975933+498037522+496917057+495689683
2778+494539190+493418008+492316631+491475961+490988610+490467573+489396789
2768+487678368+485736057+484195464+483429865+483296550+483296323+482941722
2758+481975056+480505308+479066720+478224089+477950668+477619116+476694662
2748+475259884+473870714+473081235+473008542+473177506+472856931+471620126
2738+469580489+467243665+465220814+463865595+463036922+462356540+461723312
2728+461331138+461149838+460721223+459667793+458188690+456787901+455661173
2718+454634715+453541939+452272768+450650541+448797258+447390924+446969363
2708+447190536+447304876+447069443+446648939+446015523+445083600+444092338
2698+443259364+442326309+440935705+439230412+437673598+436480213+435570509
2688+434909857+434565365+434510138+434564988+434453628+433900336+432870068
2678+431691546+430714770+429900884+428963982+427826277+426717732+425903469
2668+425431510+425050841+424383097+423356865+422374694+421791148+421354574
2658+420507566+419180187+417917203+417213130+417050768+417070761+416881050
2648+416220435+415102761+413821405+412693206+411838616+411213084+410702986
2638+410159692+409479649+408684210+407862100+407119512+406640800+406589005
2628+406748576+406467309+405293578+403594622+402202472+401512055+401241577
2618+400989169+400642678+400221117+399678879+399001213+398286464+397621172
2608+396982964+396322878+395632650+394881347+394035585+393200121+392568251
2598+392175625+391866027+391502448+391040447+390470897+389876411+389418409
2588+389104436+388734104+388208803+387689161+387300495+386874181+386154982
2578+385170170+384232966+383604001+383259698+382984618+382607647+382154096
2568+381789121+381566703+381290528+380769830+380129058+379608963+379153904
2558+378531163+377804305+377326008+377241470+377300771+377180697+376722884
2548+375898209+374887180+374163265+374080537+374353542+374321327+373722352
2538+372867913+372163199+371822857+371913432+372317866+372730411+372893942
2528+372783639+372507993+372149242+371737904+371305516+370904704+370555006
2518+370206101+369821849+369459929+369197222+369028711+368895056+368760044
2508+368632123+368523064+368371906+368059328+367545873+366914154+366255425
2498+365636570+365167289+364953434+364973315+365079959+365112552+364998137
2488+364771305+364488831+364151356+363754655+363344751+362974758+362670744
2478+362402190+362020314+361380560+360628956+360157072+360145868+360331657
2468+360336976+360091395+359817334+359712915+359775574+359857434+359762974
2458+359384607+358878771+358571362+358561818+358597165+358440386+358153196
2448+357925044+357814477+357735634+357590512+357389030+357254395+357266315
2438+357317091+357199696+356839247+356361252+355919509+355574187+355380930
2428+355413296+355578186+355615947+355438458+355241390+355160473+355097173
2418+354983889+354931529+355017991+355149043+355186955+355088119+354930133
2408+354871548+355004939+355197744+355214342+355037834+354890636+354888599
2398+354876490+354667916+354286192+353915520+353712718+353702420+353788052
2388+353782809+353428622+352510581+351009297+349005648+346439729+343181658
2378+339303600+335034311+330529401+325915093+321390076+317089175+313088836
2368+309654257+307160032+305660067+304823340+304481866+305063318+307204338
2358+311044163+316268046+322839868+331122152+340756183+349873403+356173426
2348+358467396+357210711+354180717+351146120+348472425+345676317+342568235
2338+339183149+335531168+331710337+327962539+324747171+322642574+321789455
2328+321655160+321631582+321573375+321703747+322356290+323809401+326035318
2318+328535749+330642647+332075954+333111315+334201564+335577417+337205906
2308+338908257+340432402+341578708+342378070+343090367+343934469+344833874
2298+345544133+346027070+346502199+347076050+347557629+347761298+347814111
2288+348029852+348547985+349166991+349542793+349541624+349348064+349204866
2278+349142395+349040881+348870748+348738565+348725776+348815219+348954834
2268+349067514+349051670+348918921+348866938+349050840+349349649+349528911
2258+349558788+349607225+349781169+350023580+350238340+350399080+350529000
2248+350643341+350733877+350793292+350852518+350978439+351190521+351394266
2238+351471410+351455906+351541161+351853097+352289069+352661513+352920372
2228+353148638+353437412+353850183+354398344+354982267+355441438+355669213
2218+355637299+355398320+355122749+355022933+355176845+355493195+355861037
2208+356251589+356644744+356957435+357143186+357284574+357473380+357691120
2198+357938700+358331327+358886542+359388002+359644107+359731513+359840986
2188+360030057+360250815+360512239+360883213+361355512+361809251+362154535
2178+362440894+362782632+363202495+363586974+363816107+363921431+364058443
2168+364339370+364765948+365284421+365807798+366227020+366478409+366594145
2158+366678231+366826258+367022308+367166223+367272717+367505509+367922279
2148+368361532+368677580+368915842+369199184+369574043+369981797+370301843
2138+370425501+370341491+370176337+370142273+370381478+370836047+371319474
2128+371685619+371891816+372000007+372151430+372422058+372732938+372996437
2118+373209010+373320332+373235265+373019977+372880060+372913521+373066905
2108+373284381+373542939+373785992+373934736+373976986+374013917+374167565
2098+374421709+374631678+374727458+374799963+374922942+375008235+374926262
2088+374688377+374432913+374275342+374215625+374165038+374069220+374016709
2078+374147496+374439665+374721045+374890839+374960666+374938484+374871525
2068+374879220+374956026+374940257+374815128+374757750+374786194+374713765
2058+374519602+374401112+374413598+374397340+374274172+374132332+374043040
2048+374036250+374216795+374696374+375381774+375938762+376060458+375793790
2038+375513014+375508638+375694841+375790697+375672132+375439642+375236764
2028+375125065+375106128+375166297+375280939+375463558+375851319+376589607
2018+377515494+378136461+378109414+377593506+377016637+376692592+376692517
2008+376881474+377053342+377100120+376997851+376717452+376315620+375979089
1998+375863013+376106217+376921499+378205194+379192344+379133306+378187162
1988+377044289+376050311+375202964+374526958+374063411+373789538+373664295
1978+373557123+373246167+372659490+371982956+371543514+371729605+372730260
1968+374014219+374469127+373616650+372257584+371394054+371120256+371002219
1958+370911305+370909570+370780404+370253142+369468492+368879703+368803916
1948+369276819+370307313+371882574+373367222+373448328+371606135+369049685
1938+367276074+366591806+366448381+366357354+366163191+365912028+365679915
1928+365578627+365971292+367133253+368510200+369285231+369755531+370611931
1918+371079779+369739498+367041094+364932800+364505995+365252884+365912066
1908+365624084+364548661+363439852+362743739+362340776+362017447+361901296
1898+362317161+363175221+363842098+364137775+364834303+366209742+366973003
1888+365937076+363869674+362254615+361513045+361254752+361130415+360997327
1878+360863106+360823232+360997666+361910690+364649911+369594074+374621116
1868+375961811+372615392+367667984+364187344+362734195+362367560+362230699
1858+361998246+361642136+361293947+361182625+361568310+362637132+364495621
1848+367483931+371913205+376416493+377555141+374070050+369304206+366618666
1838+366295111+366763411+367130008+368398690+371909961+376689914+379554490
1828+379274657+377916080+376667091+374568114+371561961+369287079+368680862
1818+369041612+369398968+369883866+371368402+373907688+376063250+376377110
1808+375201568+374204497+374767785+377315333+381109870+384319429+385354676
1798+384729220+384830130+387734656+393045002+396864927+395213541+389888671
1788+385897858+385380140+387105125+389317989+391488452+393254217+393898950
1778+393994504+395813836+401249612+409481158+416002166+416406525+411907349
1768+406416382+402331562+401181371+403552372+407433825+409574109+409784908
1758+410099787+410778396+411560518+414311019+420807393+429095750+434242301
1748+434158064+431551743+429671601+429899262+432056560+434749720+436328753
1738+437668053+442245505+451214622+458732475+457786406+451492003+445708679
1728+442090612+440917259+442380178+445810910+450893292+459148603+471996834
1718+486567145+494797596+492827596+486164823+480926341+479735709+483285610
1708+491142183+501026058+509497450+516282712+525151370+537842105+549453153
1698+554905641+555287705+551991232+547114556+545369653+549137595+556919627
1688+567088428+581015854+598790367+611528935+611068933+604851977+602091744
1678+605482187+613812002+623379716+631078228+638145662+646312888+652300447
1668+652076822+649415802+650815422+657265698+664135159+667247353+668621019
1658+673171536+684112049+702067785+721119768+726962469+721455735+719660244
1648+723952054+726322678+720321462+710970923+705170095+704638344+709117036
1638+717523657+724815546+721954289+708792538+695845208+688781018+686444874
1628+685605373+684481513+683131387+680425928+674592809+667874394+664578486
1618+664718214+662832187+655124509+645579542+638783190+635151995+632898993
1608+630352804+627313529+624617238+622584541+620510915+617744269+614758034
1598+612627784+611595932+610710446+609018394+606624834+604280239+602422353
1588+600891343+599377043+597950942+596913242+596428570+597086884+600268866
1578+606257067+611198023+609710546+604515483+602777408+605709698+608233291
1568+606246391+602455777+600785453+602630399+609927607+625615818+645699428
1558+651829431+639889773+626613833+618980583+616043502+615826629+616808724
1548+619261737+625428181+636737743+651868513+667922680+679547573+677924932
1538+665672620+656729873+656796493+662098539+665712532+666429280+669176385
1528+676468048+685955901+695041772+704555956+714639011+721213851+722211413
1518+720793837+718557660+715092222+712471944+714259060+722270941+736214399
1508+752287277+758691003+747615893+732242033+724562194+725633544+732135350
1498+738746631+740332001+737180198+735127885+738590229+746754740+753902299
1488+754396477+749391617+744252838+742199846+742923987+744747997+747369030
1478+752048864+759489535+768652815+776427867+777944656+772071852+765023205
1468+762799401+765814041+769899201+771136912+771442699+775835230+786153907
1458+797578111+799386729+789603048+778608214+772598247+771450922+772596587
1448+772677919+769946356+765838939+762576379+760858146+761015152+764074231
1438+769576967+773061341+770502778+765301378+762689851+762982813+763304293
1428+762383461+761731824+762414922+763934578+766226058+769800290+772874836
1418+771598044+765978969+760126083+756426759+754606220+753806782+753745746
1408+754596638+756169409+757341707+757287988+757142224+758659617+761890338
1398+765452272+768190022+769204409+767777628+765144976+764053407+765564689
1388+767807354+768210318+767068274+767176541+770144556+775314117+781569136
1378+788757361+796975439+804974570+810446900+812817675+814098240+815844690
1368+817822310+820137933+823821714+828216056+830214877+827817696+822547789
1358+817046034+812773992+809946309+807996076+806317981+804870453+803890772
1348+803344082+802938780+802570447+802698179+804068223+806661718+809124312
1338+810000706+809426101+808727611+808856249+809921713+811703699+814002497
1328+816552384+818975443+821054389+823052304+825628220+829227878+833478116
1318+837341235+840026851+841557749+842388950+843033343+844149659+846237357
1308+849012453+851697616+853977024+856035373+857866776+859397448+861049362
1298+863234236+865377387+866261099+865340568+863065611+860026677+856545395
1288+853005944+849749269+846631719+843340413+839989354+836829176+833727242
1278+830504217+827495612+825436433+824900080+825773984+827150668+827942862
1268+827695471+826779996+826058269+826334028+827686568+829356138+830597017
1258+831393965+832098943+832882838+833880023+835418692+837688217+840369079
1248+842902669+845018131+846701507+847843928+848483191+849221064+850744341
1238+853018167+855491173+857886317+860168065+862055676+863392146+864694590
1228+866486686+868441823+869980491+871285953+872977402+875272051+878013497
1218+880932169+883543847+885422480+886881251+888929338+891995962+895183226
1208+897470028+899038725+900780874+903142520+906033051+909199038+912215565
1198+914735424+916955833+919351430+922071072+924812217+927008558+928301118
1188+929269105+931291163+935137458+940036843+944402667+947200548+948613144
1178+949497837+950418443+951570219+953242580+955768549+959030808+962417176
1168+965229317+967038086+968015353+968762280+969471181+969850001+970126439
1158+971027202+972544972+973865674+974749462+976212230+979534318+984645861
1148+989486096+991605481+990943508+990047422+990957918+993306285+996061765
1138+999152985+1002217798+1003899514+1003778497+1003175298+1003089212
1130+1003070275+1002723746+1002595939+1002950390+1003311027+1003848210
1121+1005950545+1010327534+1015165656+1017704905+1017730859+1017609011
1113+1018924508+1021022541+1022931278+1024974914+1027606057+1029746115
1104+1029580810+1027168539+1025305750+1026826990+1031429567+1035968466
1095+1037891311+1037821221+1038183820+1040054305+1042387356+1043915009
1087+1044742815+1045750563+1047435221+1049609230+1051556445+1052466111
1078+1052193747+1051467568+1050775567+1049986089+1049488892+1050363400
1070+1052984131+1056002167+1057227277+1055943243+1053912131+1053599025
1061+1055402211+1057639370+1059710619+1062826133+1067018881+1070082336
1053+1070556144+1070024090+1070869928+1072939745+1073741823+1071598219
1044+1067943636+1065705195+1065430341+1064840269+1062433582+1059552407
1035+1058514858+1060373498+1064432478+1068760502+1071326232+1071301561
1027+1069445939+1067215798+1065253720+1062692969+1058746103+1054738352
1018+1052918190+1053600383+1055002945+1055675632+1056040947+1057419215
1010+1059999582+1062056195+1061849017+1059979815+1057797733+1054528911
1001+1049052204+1043078376+1039675711+1040049250+1043010398+1046145076
993+1047100236+1045044981+1041170847+1037327721+1034432513+1031804614
984+1028111704+1023490341+1019457240+1016664338+1014609007+1013284835
975+1013066491+1012907373+1010797494+1006008714+999622568+993376376+988629469
965+985714720+983948352+982127511+978921763+973652460+967094521+960992207
955+956739856+954508809+953307917+952048176+950559303+948994605+946747639
945+943376661+939987199+938055375+937486957+937131148+936528854+936095108
935+936103936+936287574+936376526+936580912+937165477+937786784+937893089
925+937627213+937502348+937328820+936564389+935616849+935589688+936781149
915+938371046+939526519+940096145+940255036+939833211+938422501+935985182
905+932932214+929832771+927422763+926617591+927480178+928482946+928248683
895+927524164+927817880+928862898+929127491+928099146+926680212+925746177
885+925012680+923460129+921025677+919165151+918947712+919563436+919523525
875+918491408+917336991+916934406+917137811+917153504+916954248+917145733
865+917372225+916455844+914888959+914635607+915860114+916607342+915974643
855+915309878+915761580+916634428+916727680+916002709+915303691+915167509
845+915448776+915667120+915380647+914440350+913164841+912198967+911981755
835+912491249+913674939+915518716+917571707+919078085+919744735+919707238
825+918832504+917006382+915130767+915005072+917758816+922436236+926770824
815+929489637+930882919+931575222+932121157+933096689+934204479+934052076
805+932035298+929666485+928976446+930349508+932532797+934012013+933624894
795+930863605+927084609+925342610+927226223+930622174+932203621+931648028
785+931548514+933534282+936282972+937441538+936348309+934294638+933187980
776+934631509+938605083+942167998+941665747+937334554+933057607+931533047
766+932350743+933994887+935622206+937241075+939308929+941907027+944133245
756+944499767+942322363+938878126+936287197+935161299+934223869+932700440
746+931457223+930974436+930738136+931063766+933032106+936432885+939659306
736+941726406+942966832+943726358+943766798+943005914+941947693+941271988
726+941285191+941606672+941354075+940748310+941629683+944587286+947215034
716+947032451+944520817+941657297+939375247+937775467+936828228+936210693
706+935806825+935781173+935340411+933136676+929465796+925805629+922106381
696+917321148+912341411+909397389+908885480+909241138+909179950+907876601
686+903951163+897342824+891455308+889926976+891884451+892831916+890225595
676+886196794+883671126+881907097+877463186+869104776+861838313+862373309
666+867469837+870358859+870155151+869348622+869369596+869100627+867621788
656+866222017+865779143+864660186+861292981+856674636+852888096+851264625
646+852629539+856966994+861742797+862841911+858837856+852468761+847292409
636+845211351+845754042+845715866+841946000+835432725+830303377+829156128
626+830407041+830277423+827056057+822451443+819795026+821482174+826304226
616+829691878+828630186+825112313+822729919+822066135+821546832+820748677
606+819874170+818277708+816560381+816468109+816856813
##END=
