##TITLE=<SNM>
##JCAMP-DX=4.24
##DATA TYPE=INFRARED SPECTRUM
##DATE=3/5/2025
##SAMPLING PROCEDURE=Instrument type and / or accessory
##ORIGIN=Admin
##XUNITS=1/CM
##YUNITS=ABSORBANCE
##RESOLUTION=4
##FIRSTX=4497.3318
##LASTX=599.83466
##DELTAX=-1.4281778
##MAXY=1.7588933
##MINY=0.19953884
##XFACTOR=1
##YFACTOR=1.638097e-09
##NPOINTS=2730
##FIRSTY=0.22189313
##XYDATA=(X++(Y..Y))
4497+135457871+134627768+134456860+134407293+134070881+133563689+133270105
4487+133449217+133972246+134486197+134903887+135354370+135503154+134595611
4477+132642801+131010193+131169356+133050885+135058566+135686315+134784712
4467+133226686+131883405+131193253+131341556+132408718+134189892+135998284
4457+136986542+136835265+135904925+134702824+133629594+133097196+133310548
4447+133998699+134648126+134753337+133888284+132120882+130276449+129266778
4437+129348329+130223316+131356465+132078928+131969259+131261660+130519157
4427+130053236+129974450+130384672+131021245+131126593+130292614+129128810
4417+128556723+128775315+129404610+130210590+131081583+131583317+131182255
4407+129998347+128879562+128478200+128538529+128407147+127990603+127750425
4397+127950505+128378347+128711111+128815358+128718170+128496930+128250557
4387+128086854+127989020+127691688+126946656+125917263+124980592+124194498
4377+123415435+122810118+122670558+122868946+123090531+123428798+124147977
4367+125044605+125676702+126049091+126417077+126592915+126177808+125355510
4357+124743097+124601244+124751039+124972969+125067756+124916770+124739559
4347+124885378+125316767+125680150+125762720+125561876+125128039+124556926
4337+123940174+123315272+122753928+122317663+121979978+121811372+121997025
4327+122448636+122759523+122761260+122732060+122946022+123386107+123876880
4317+124257792+124515472+124742460+124860498+124630217+124107716+123688325
4307+123542524+123526532+123684068+124208279+124937119+125470691+125681878
4297+125628090+125227520+124518383+123994254+124221205+125166218+126192845
4287+126726153+126680252+126197239+125301758+124037444+122761733+122012380
4277+122029600+122510921+122954309+123252078+123764072+124722029+125762293
4267+126237537+125968468+125473129+125302876+125434705+125647711+126069659
4257+126773328+127318389+127337110+127061155+126836868+126753425+126902628
4247+127320382+127689104+127647105+127216971+126663796+126275524+126353137
4237+126983488+127832413+128486851+128843512+128908235+128543014+127786329
4227+127153859+127184951+127770565+128303727+128516224+128774796+129393722
4217+130054710+130305504+130281998+130390894+130550904+130348622+129763563
4207+129227926+129121096+129464266+129921899+130094790+130006061+130058012
4197+130373638+130627270+130636994+130630481+130854386+131259586+131566943
4187+131515010+131134989+130777383+130764647+131085422+131443984+131535123
4177+131325236+131127239+131331568+132030771+132960583+133761687+134181951
4167+134088747+133498439+132698009+132117162+131898688+131778776+131498036
4157+131142940+130992727+131185885+131621532+132115106+132607470+133169205
4147+133771729+134153378+134005376+133308711+132465799+132007474+132082021
4137+132319079+132311584+132084368+131920101+131972352+132290971+132915527
4127+133616177+133838589+133282667+132340402+131725215+131860409+132665816
4117+133635380+134164149+134102319+133883145+133924107+134189756+134438312
4107+134495966+134279530+133997517+134165777+134892034+135459236+135245629
4097+134663272+134501497+134763899+134858858+134575835+134229008+134037524
4087+133855500+133509637+133142443+133116308+133590706+134246837+134559197
4077+134400688+134186872+134321229+134721972+135015957+134985147+134676435
4067+134284151+134062776+134161138+134414142+134427842+133990294+133341086
4057+132923978+132876002+132915946+132786783+132566453+132433087+132459440
4047+132749732+133355877+133945156+134016592+133577753+133144453+132998397
4037+132872591+132492388+132093829+132186150+132960928+134077476+134943757
4027+135151870+134788596+134397304+134471215+134957775+135455261+135752275
4017+135836046+135536748+134661434+133451282+132486821+132118490+132250163
4007+132606942+132993804+133391627+133960348+134821335+135735873+136241382
3997+136243756+136138317+136180972+136153764+135852820+135485052+135409959
3987+135794792+136518202+137197747+137457520+137301485+137058560+136971578
3977+137069185+137313002+137599309+137750704+137697971+137581489+137595852
3967+137816846+138198722+138649196+139050985+139270096+139230571+138984807
3957+138664097+138375333+138203407+138308309+138894278+139902330+140796028
3947+141022989+140726703+140557888+140830814+141218694+141229437+140795710
3937+140408948+140738819+141928413+143231250+143647358+143046116+142275904
3927+142098083+142456691+142771925+142792256+142942241+143622424+144526156
3917+144954534+144639045+143919138+143248689+142938639+143138310+143805839
3907+144867079+146344208+148096728+149617121+150414613+150309565+149314876
3897+147771433+146450657+146076403+146764072+147895211+148764102+149488230
3887+150429468+151072181+150798700+150449308+151034612+151749789+151362700
3878+150551008+150737025+152042710+153732472+155311611+156178556+155668289
3868+154436478+153795221+153860935+153840376+153478694+153261376+153708912
3858+155351417+158787360+163564946+166360195+164170309+159538832+155959054
3848+154579004+154990045+156202134+157602287+159339525+161547550+163469632
3838+163990868+163234247+162330952+161658238+160805993+159753950+159102449
3828+159151898+159721820+160981158+163301435+165918572+167190189+167249809
3818+167501749+167604432+166294044+164135232+162795426+163116100+165047060
3808+167699546+169790461+171344438+173354320+175511167+176504665+176670787
3798+177246277+178051365+178501066+179139194+180767491+183344730+186492200
3788+190211575+194626242+199485643+204546935+210271408+217434858+226061410
3778+235437706+245246838+255773202+267172844+278891212+289200641+296101362
3768+299642789+301606424+303281259+305290122+308127943+311927569+316623467
3758+322466996+330007593+339768494+351972641+365801228+378810463+389393336
3748+399304696+410898605+423822186+434936303+443239960+451314420+461334757
3738+473925366+488271769+501852345+512353603+520772570+529781071+539833829
3728+549222097+556364515+560868911+562984787+562916490+561002595+557913598
3718+554406702+551358713+549777682+549751921+549207906+545873118+540717476
3708+536515306+534906294+536063749+539145687+542675143+545395254+546981488
3698+547815539+548458744+549409160+551214841+554318974+557839879+559411522
3688+558896507+559377719+562125156+565319274+567211263+568468636+571118411
3678+575345651+577594229+574580006+569883707+568020208+568003907+566710621
3668+564231026+562872608+562991774+562949129+561566914+559556559+558468966
3658+558879551+559973221+560868547+561815106+563564315+566093942+567741378
3648+566568241+562766832+558358860+555571435+555121697+555819991+556483499
3638+557396473+558895889+560264604+561527362+564356050+569282238+573503766
3628+574594888+574906539+576999491+580361678+583667502+586741508+589755804
3618+592375051+594781619+597324199+599339503+600277256+600877779+601980182
3608+603810860+606819152+610994687+614971005+617477163+618893254+620880030
3598+624424877+628207620+629776170+629134894+629270761+631864756+634643012
3588+634232427+630696603+626933510+624988868+625457891+628137394+631955067
3578+635226870+636486790+635397596+633187915+631652186+631495797+631910457
3568+631522432+630047031+629098798+630108160+632070340+632643573+631480150
3558+630601780+630884649+631023209+630162085+628881644+627590577+626257084
3548+625459637+625829251+626801572+626921793+625473027+623175146+620896477
3538+618604345+616359733+615263990+616158588+617788341+617738564+615775584
3528+614554671+616068932+618804834+619369116+616431051+611885647+608344766
3518+606854520+606815841+606874678+605838644+603620886+601336504+600208995
3508+600474871+601302483+601567668+600696938+598998343+597358112+596478358
3498+596137671+595514734+594445407+593699738+593711528+593755155+592981396
3488+591740288+591073396+591119679+590839249+589365449+586892658+583985011
3478+580990583+578516481+577378530+577664782+578564803+579246868+579568598
3468+579983586+580782052+581483947+581342368+580479498+579693440+579100776
3458+578035270+576342678+574782133+573986760+573686098+573081718+571668502
3448+569702430+568241402+568574739+570749415+572702280+572071993+568966076
3438+565548072+563484774+563297893+564890640+567221997+568556182+568010529
3428+565961896+562973726+559681183+557284403+556624533+556955105+556702182
3418+555278632+553315980+551533295+550428492+550590157+552244579+554695284
3408+556850530+558028070+558012024+556950411+555414136+553935315+552464645
3398+550893075+549781830+549703745+550062552+549535566+547788577+545892767
3388+544894612+544651368+544162842+542699850+540598128+539027795+538949928
3378+540277381+541955818+542791143+542308804+540960028+539557401+538606403
3368+538148842+537966146+537885513+538064535+538760136+539699599+540239211
3358+540207410+540009321+540028097+540432642+541297441+542265686+542353304
3348+540847230+538530828+537409068+538642607+540959373+541855319+540337309
3338+537506147+534782762+532988106+532744972+534232889+536454868+537743679
3328+537153817+535041106+532492849+530414561+529027252+528184977+528129233
3318+529271333+530958466+531554514+530423257+528598910+527070167+525929704
3308+525385835+526004879+527538352+528704976+528664733+527882132+527141921
3298+526532629+525774989+524926855+524393611+524554585+525573516+527316030
3288+529248846+530612067+530975713+530705253+530577281+530796437+530872485
3278+530531689+530022350+529489725+528867988+528294719+527980230+527951557
3268+528102743+528174716+528003153+527961818+528427020+528819085+528131925
3258+526210572+523686657+521286602+519770122+519647827+520624804+522018081
3248+523495592+524667383+524617752+522898234+520451241+518723682+518277874
3238+518563436+518489716+517235073+515180399+513759942+513771913+514347512
3228+514153790+513030866+511834659+511276089+511400531+511682636+511331615
3218+509927605+507899493+506037814+504597017+503245876+501807335+500582237
3208+499956171+500079157+500735061+501198334+500653337+499188306+497903389
3198+497705847+498339773+498742571+498255938+497394924+497036953+496982410
3188+496131402+494090337+491711350+489931649+488829283+487948293+487126612
3178+486761656+487093610+487413848+486615819+484603826+482464226+481064910
3168+480121698+478899657+477273835+475650851+474220387+472856111+471568283
3158+470537890+469841561+469486356+469449205+469416603+468829689+467454642
3148+465744658+464515958+464216933+464504933+464625627+464160498+463249198
3138+462177214+461015065+459703113+458327703+457136335+456193270+455272800
3128+454252413+453304544+452570701+451891656+451020126+450033360+449407912
3118+449535265+450119377+450275730+449429853+447954089+446753297+446337436
3108+446404532+446276452+445588019+444521785+443523411+442802813+442077120
3098+440963438+439603092+438561382+438138571+438171501+438375120+438426206
3088+437879608+436520753+434841261+433801043+433876800+434471210+434571491
3078+433924139+433122653+432647008+432356426+431890460+431159528+430381256
3068+429798417+429396637+428890028+427991244+426699887+425396194+424592998
3058+424437591+424579936+424670392+424674431+424512693+423856026+422554953
3048+420878262+419175446+417657692+416497799+415808929+415553932+415645590
3038+415960224+416177088+415994246+415531336+415014575+414150686+412477889
3028+410317876+408684085+408107795+408035714+407558104+406432997+405191307
3018+404409652+404105788+403831179+403225380+402384524+401686230+401396084
3008+401478354+401591480+401253012+400263481+398981329+397950463+397332838
2998+396885939+396353495+395680745+394940097+394226594+393620867+393153519
2988+392740459+392194771+391433710+390646852+390097998+389792278+389453301
2978+388805621+387855387+386904790+386236697+385799767+385265759+384380730
2968+383247035+382264271+381718510+381462167+381133997+380558472+379728422
2958+378661424+377539555+376715837+376368455+376320497+376233934+375888371
2948+375357419+374930969+374722038+374476283+373950243+373230627+372498640
2938+371746094+370903564+370030142+369251907+368649274+368213581+367808308
2928+367243262+366486859+365710189+365040313+364402458+363724941+363148578
2918+362818152+362540923+361945130+361019203+360190645+359784827+359696698
2908+359661185+359544566+359290188+358863047+358340318+357868640+357481960
2898+357048670+356373372+355345198+354080585+352922147+352171894+351789617
2888+351438160+350869147+350204802+349776860+349732760+349859822+349773076
2878+349260136+348481246+347816100+347449688+347181629+346757253+346262978
2868+345970940+345840458+345445919+344529342+343447680+342830820+342863604
2858+343161573+343302280+343165831+342773293+342134455+341319615+340508341
2848+339949699+339826567+340002569+340012029+339533983+338752219+338038461
2838+337469448+336899818+336336845+335923167+335584518+335007973+334068692
2828+333028365+332186490+331584439+331194739+331103009+331249282+331253649
2818+330781570+329924413+329001687+328170838+327474691+327025463+326838363
2808+326690125+326384187+325943473+325406154+324721177+323942178+323259167
2798+322780648+322441926+322079189+321505337+320634608+319620333+318766524
2788+318240302+317942442+317685844+317377068+316942104+316250360+315294340
2778+314300479+313490188+312875656+312371448+311899042+311320314+310494340
2768+309482540+308562907+307956126+307572939+307116653+306449833+305738622
2758+305173321+304707592+304175548+303536801+302893651+302322001+301784081
2748+301235118+300727471+300311937+299897877+299323461+298544062+297702096
2738+297018866+296568183+296122703+295345505+294231968+293241982+292846879
2728+292977798+293053791+292619936+291829858+291149703+290734969+290351073
2718+289827744+289299394+288933164+288624897+288101804+287274102+286398242
2708+285852408+285727875+285687977+285332336+284676651+284098596+283812926
2698+283612199+283186423+282519112+281824530+281181998+280458507+279649107
2688+279047602+278897853+279045037+279122267+278947139+278562406+278000762
2678+277245305+276432339+275857432+275646208+275586680+275417901+275111272
2668+274756758+274363747+273886975+273347472+272866242+272549133+272302760
2658+271881550+271211511+270516455+270042885+269799077+269595003+269239125
2648+268713831+268187191+267819996+267597383+267395347+267148774+266885972
2638+266619277+266286432+265857344+265417176+265041394+264685952+264294324
2628+263887232+263512487+263254743+263223651+263363612+263426160+263290057
2618+263098391+262958612+262762525+262436156+262135731+262033157+262031811
2608+261860030+261427867+260961574+260747239+260836714+261045081+261159026
2598+261097314+260911488+260668262+260346897+259897214+259410908+259122545
2588+259142394+259283046+259288431+259146524+259011730+258905954+258710195
2578+258414500+258159521+258005424+257838574+257571406+257297415+257166606
2568+257207868+257359309+257603371+257977880+258468406+258965719+259374685
2558+259712953+260005609+260129542+259921720+259428556+258873406+258387883
2548+257951063+257562600+257281187+257091522+256896199+256641512+256332172
2538+255947730+255469339+254980377+254645511+254572702+254711280+254875401
2528+254886427+254725107+254527783+254434033+254464270+254517740+254450589
2518+254202578+253885124+253690565+253693204+253792848+253860727+253877137
2508+253882377+253828616+253581733+253124846+252661828+252414945+252385090
2498+252411070+252391403+252341826+252289212+252198918+251985293+251591627
2488+251112162+250760377+250593018+250382449+249933348+249379636+248962065
2478+248680870+248394599+248089425+247824659+247562949+247246204+246918689
2468+246652722+246463985+246353133+246298317+246182644+245869757+245384743
2458+244907697+244572268+244369813+244252703+244211860+244220137+244192538
2448+244058163+243833349+243602877+243446815+243361870+243237210+242954287
2438+242541391+242183220+242042277+242097312+242178927+242133844+241922784
2428+241600672+241272702+241052291+240982429+241004861+241070830+241221070
2418+241463586+241660546+241678503+241601163+241641625+241853249+242063800
2408+242106099+241995939+241862819+241822029+241937175+242206289+242560094
2398+242913552+243189835+243307291+243238211+243079056+242994367+243097650
2388+243374115+243645685+243620688+243019437+241643099+239398578+236388595
2378+232940372+229450632+226227005+223448566+221121994+219050128+216976315
2368+214843082+212899151+211470398+210602216+210107013+210027454+210808036
2358+212911722+216499542+221668866+228769240+237738553+246982802+253899078
2348+256725419+255804113+253506941+252246021+252116830+251637947+250057190
2338+247739405+245220184+242622988+239838164+237087798+235007399+233909818
2328+233316281+232541266+231434006+230399374+229987860+230512645+231806804
2318+233278857+234342562+234861780+235150470+235577521+236289005+237290944
2308+238546515+239847515+240804189+241202986+241283745+241468826+241878556
2298+242269620+242397555+242284156+242144705+242166501+242361660+242590076
2288+242733257+242828917+242979012+243149501+243165110+242949520+242684899
2278+242612363+242704948+242688520+242378925+241854777+241323425+240956376
2268+240811448+240800205+240783267+240748973+240796839+240915241+240928304
2258+240728833+240425133+240178232+240016439+239877770+239717379+239527514
2248+239348092+239248484+239234875+239246992+239274646+239356097+239460745
2238+239504354+239479083+239505973+239764718+240333639+241058149+241659909
2228+242014678+242238291+242523088+243000188+243703413+244556513+245431936
2218+246277085+247139628+248076854+249127769+250347463+251758642+253283983
2208+254805976+256273299+257742040+259353235+261168977+262976823+264482661
2198+265753988+267168022+268884611+270676392+272282056+273674532+274965653
2188+276198501+277312256+278292254+279201135+280016265+280643696+281114756
2178+281540351+281918571+282149989+282122190+281750647+281109280+280447500
2168+279925099+279432517+278744120+277763667+276587946+275354152+274102874
2158+272835350+271577286+270339198+269132221+267973274+266866160+265947418
2148+265454945+265395599+265830145+267603496+271814872+278398867+286148704
2138+294123191+302198323+310468688+318927243+327568713+336370103+345259074
2128+354188362+363228192+372539065+382086159+391479121+400261625+408045575
2118+414373990+419069925+422631947+425785203+428967786+432619791+437573124
2108+444740213+454440786+466186099+479000666+491503401+501868719+508729834
2098+512124223+512892524+511795580+509421505+505890193+500716249+493444949
2088+483875259+471869637+457559838+441223347+423134081+404174740+385717971
2078+368604736+353155385+339697322+328248304+318452908+310190294+303479947
2068+298034578+293531837+289791831+286534746+283595571+281097782+279053696
2058+277342966+276009109+275066880+274474326+274475945+275369380+277186031
2048+280050596+284282821+290084342+297798702+308140351+321622683+338260455
2038+357875044+379894927+402951389+425217282+444928077+460767237+472448801
2028+480617647+485992517+489077949+490281069+489868446+488105883+485199437
2018+481006218+475382100+468556571+460685549+451631055+441380609+430130371
2008+418080721+405508306+392813814+380381961+368521339+357409515+347001297
1998+337164966+327985084+319776140+312705403+306529483+300847783+295519614
1988+290679989+286517208+283151382+280514997+278330806+276379815+274673997
1978+273248264+271998460+270803145+269624604+268494420+267493518+266670837
1968+265962792+265266736+264567314+263945159+263487799+263198890+263012646
1958+262900502+262868537+262855911+262771312+262617943+262489244+262484732
1948+262674251+263071956+263572798+263903642+263747781+263078596+262267796
1938+261722816+261568028+261679280+261850024+261945775+261991804+262072691
1928+262216745+262486187+262970110+263570833+264096327+264594422+265177280
1918+265613226+265610770+265368873+265330267+265636023+266118726+266567208
1908+266882989+267135693+267480037+267951679+268428815+268831650+269231556
1898+269696048+270115749+270322224+270401856+270660346+271131879+271411891
1888+271220389+270810185+270545637+270497662+270585153+270734119+270829925
1878+270773708+270632929+270647811+271113140+272187870+273640456+274757504
1868+274844322+274044074+273173726+272753353+272688439+272698700+272702230
1858+272763104+272893896+273044427+273219373+273530223+274092995+274948479
1848+276175123+277839242+279507782+280188465+279552410+278528821+278022721
1838+278119837+278479972+278952778+279765999+281109935+282590521+283460104
1828+283648313+283778795+284022112+283980940+283631612+283462251+283720631
1818+284177791+284590851+285066005+285858121+286940274+287926749+288490958
1808+288742043+289071669+289818138+291111151+292768721+294284456+295185022
1798+295561659+296089227+297441205+299571890+301354320+301598546+300775392
1788+300343994+300975682+302346762+303957994+305625642+307192991+308390290
1778+309295368+310522722+312662613+315528306+317912459+318716310+318270939
1768+317520577+317127930+317688464+319448080+321691818+323311455+324240766
1758+325194129+326403654+327857550+329974408+333035751+336336809+338648517
1748+339713332+340354790+341314266+342821760+344753265+346673345+348126514
1738+349474962+351760835+355070116+357413699+357044885+355315543+353972408
1728+353373195+353498837+354299923+355480556+357015995+359539181+363484462
1718+367859723+370394043+370199849+368802788+367833888+367983691+369384791
1708+371856600+374774107+377364099+379792899+383065466+387275532+390814011
1698+392577484+392993054+392239781+390957120+390682729+392098710+394797025
1688+398542071+403734827+409810685+413687377+413526658+411978557+411655117
1678+413203291+416243712+419730632+422715600+425487852+428669635+431636737
1668+433398062+434685818+436926099+440221990+443400316+445629609+447590514
1658+450660736+455948679+463917654+472796547+477558887+477957101+479256755
1648+483351002+488238512+491035252+491953211+493173797+495979452+500772466
1638+507458998+514927804+520612651+523180339+524762606+527719921+532667796
1628+539078736+546332752+554262393+562568489+570493036+577919160+585915934
1618+595306057+604837397+611833032+615955843+618823464+621038239+622270505
1608+622662533+623119329+624506747+627090554+630713850+635352113+641271326
1598+648472872+656251145+663593362+669986983+675700612+681268041+686859338
1588+692243670+697163927+701495014+705147129+708186495+711191585+715178892
1578+720714446+726855908+731911305+736543309+743152119+752545226+763177439
1568+772983969+782110290+791976276+803024387+815259353+829805227+847370382
1558+862984346+871179900+875050916+878078638+880330672+880804061+879293802
1548+876805692+874559116+872770355+871097739+869642861+867958238+864210426
1538+858504220+853183565+848959527+844997181+840933243+837844683+836727617
1528+836957798+836905838+836036346+835536104+836224464+837260097+837435262
1518+836729946+835812278+835189995+835017378+835307451+836315212+838288890
1508+840441298+840624613+838243115+835872388+835107762+835526425+836080446
1498+835811768+834407321+832564490+831224156+830617083+830562722+830995430
1488+831635833+831809688+831334407+830759136+830566070+830944053+832045836
1478+833664236+835134833+836093618+836530548+835972524+834272910+832657494
1468+832203972+832729102+833250085+833051851+832788485+833885612+836666706
1458+839009488+837664715+833485142+830119825+828396487+827465647+827001210
1448+826933604+826639746+825620414+824270765+823160977+822382451+821935770
1438+821932859+821981471+821180822+819390678+817334549+815620671+814459432
1428+813780532+813328466+812856242+812494997+812802245+813921930+814673603
1418+813424600+810483987+807682807+806029040+805300000+804652683+803425366
1408+801841607+800594422+799721219+798703779+797716394+797627684+798782447
1398+800538678+801863220+801933737+800571281+798688569+797549089+797416206
1388+797419335+796795379+796338583+797920887+802449698+808880578+815183378
1378+820145990+823975744+827262319+830047562+832219255+834190531+836413019
1368+838674514+840525278+841980520+843194738+843916792+843953324+843707643
1358+843561805+843246844+842313602+840980036+840133540+840369107+841286338
1348+842022073+842324882+842759192+843940807+845911210+848258650+850557404
1338+852601453+854431695+856309749+858510697+860956380+863303019+865630083
1328+868649145+872769117+877242257+880841393+883476651+886507575+891034130
1318+896429378+901296074+905455053+909725812+914038778+917300320+919300632
1308+921419201+924974091+929660529+933830060+935969587+935996877+935209327
1298+934807256+934792920+934713816+934807402+935315576+935325109+933781884
1288+931143207+928577666+926205775+923447531+920433345+917874354+916016677
1278+914551683+913282739+912379116+912090935+912535142+913665525+915251759
1268+916938129+918447733+919766671+921146957+922873497+924882106+926639065
1258+927698495+928338898+929319951+930896288+932301026+932287854+930190972
1248+926607773+922927859+920103828+918006582+915921271+913371377+910443718
1238+907691369+905749275+904701343+903819625+902226987+899774972+897095979
1228+894904273+893361994+892126745+890998399+890332598+890664370+892163277
1218+894572428+897351921+899735020+901062837+901335881+901184513+901172942
1208+901313758+901386386+901692542+903117729+906077554+909771659+912994485
1198+915294259+916925830+918327948+920020940+922298518+924847830+927185372
1188+929227602+931167658+933344227+936294810+940251844+944512705+947926852
1178+950105749+951655378+953257040+954981324+956645716+958154884+959105882
1168+959246333+959592005+961392483+964061580+966055342+967303618+968635510
1158+969737949+970037992+970610134+972851616+976010548+978139159+979113663
1148+980887651+984563345+988655300+990898164+990796282+989872501+990365320
1138+993341010+997195434+999117879+998563930+997561336+997432237+997314563
1128+996440268+996227843+998864046+1004439043+1010530001+1014740212+1016732010
1118+1017163044+1016356574+1015353325+1016136945+1019233219+1022430211
1110+1023256840+1022015332+1021173857+1022639652+1026373418+1030592653
1101+1033035935+1032896866+1031544233+1030781281+1030949095+1031429106
1093+1032376175+1034697780+1038243428+1041237383+1042222657+1042064158
1084+1042865461+1044997493+1046839670+1047672120+1048790278+1051025647
1075+1053075518+1053574232+1053257669+1053452264+1053532242+1052032972
1067+1050206660+1051684389+1057405150+1063118197+1064004645+1060724110
1058+1057921402+1058385548+1061180397+1063865722+1064824361+1064059298
1050+1062788244+1062248632+1063584454+1067450667+1072038716+1073741823
1041+1072033549+1070488286+1071394165+1072934042+1072289055+1069317732
1033+1066004376+1064089863+1064085642+1065175054+1065592771+1064134109
1024+1061414508+1059117281+1057802491+1056536167+1055225961+1054611975
1015+1054132037+1053027197+1052169785+1052989428+1055474772+1057854523
1007+1059195658+1060830722+1063492396+1065338793+1065028999+1064343258
998+1064837751+1064633623+1061671105+1057330630+1053707479+1050675464
990+1047885491+1046109392+1045080964+1043115437+1039678730+1035904721
981+1032645726+1030140587+1029088143+1030106675+1032354270+1033870933
973+1033403657+1031064513+1027271073+1022542354+1017420006+1012092292
964+1006995778+1002939919+999843426+996507146+992379023+988310355+985207531
954+982929590+980804617+978374871+975563722+972756939+970323335+967937399
944+965422727+964014204+965149318+968118458+970617193+971583037+971498911
934+970275232+967315990+963463167+960734251+960059427+960617159+961280121
924+961608765+961472970+960954462+960924043+962340134+964498145+965494408
914+964713117+963091224+961222922+958975108+956460291+954057907+951881848
904+949908825+948338383+947869652+949255542+951726550+953006628+952302403
894+951349004+951287365+951300755+950904579+950527105+949570140+946873171
884+943164875+940626261+940383126+941821776+943669120+945060613+945993854
874+946959698+948029462+948770946+948969471+948477307+946840787+944228235
864+941910196+940893192+941017416+941706577+942353602+941974090+939955366
854+937101062+935047480+934983513+937007549+939963371+942287742+943515278
844+944173728+944426396+943741311+941739616+938956702+936671920+935824405
834+936204862+937022831+937660614+937388880+935813052+934401401+935589130
824+939512179+943369004+945072329+945834263+947569245+949937716+951461584
814+951837092+951730043+951427671+950834498+950027955+949339085+949283778
804+950157855+951449212+952089251+951562665+950377629+949278538+948797799
794+949713066+952721794+956914904+959599865+959011786+956519819+954777633
784+954705733+955661534+957202648+958834729+959003272+956696075+953767979
774+953384684+956055454+958902772+959403960+958280854+957637977+958090479
764+958799580+958852195+957492867+954640455+951863000+950756122+950791999
754+950510440+950422676+952684389+957361002+961071918+960997107+958492623
744+956398725+955467594+955324085+956281706+958133852+958977583+957413326
734+954873838+954207529+956634436+960812991+964217823+965182867+964184639
724+963351897+964056267+965036738+964416639+963024491+963439516+966436892
714+969928687+970982368+968545490+964155675+960029662+957064525+955031683
704+953788210+953202751+952698652+951565067+949314415+945902379+941707668
694+937615495+934566378+932542632+930744774+929014159+928243492+928887752
684+929562576+928042348+923542937+917632966+913123148+911721394+913127805
674+914888112+912671591+903377019+889374105+881391194+888881504+903046993
664+910365778+908912718+903701296+898832853+895252055+892708274+890258297
654+886588571+881611114+876920673+874389336+874268751+874253978+871925751
644+868150649+865918191+866860529+870199429+874205220+877674602+879496475
634+877749486+871519968+863443398+857924655+857295314+860907404+865979393
624+867689560+862050377+851296706+842454200+840457599+845820244+855741028
614+866484147+874806471+876484181+868761579+855348636+842830218+833960058
604+828873078+829458027+837526738+849743511
##END=
