##TITLE=<SNM>
##JCAMP-DX=4.24
##DATA TYPE=INFRARED SPECTRUM
##DATE=3/5/2025
##SAMPLING PROCEDURE=Instrument type and / or accessory
##ORIGIN=Admin
##XUNITS=1/CM
##YUNITS=ABSORBANCE
##RESOLUTION=4
##FIRSTX=4497.3318
##LASTX=599.83466
##DELTAX=-1.4281778
##MAXY=1.7107403
##MINY=0.17840149
##XFACTOR=1
##YFACTOR=1.5932511e-09
##NPOINTS=2730
##FIRSTY=0.19827525
##XYDATA=(X++(Y..Y))
4497+124446959+124975722+125232229+125174925+125254151+125697094+126219946
4487+126551077+126761728+127049753+127505434+127981130+128057167+127378088
4477+126072454+124756916+124213685+124865735+126218730+127127969+126986940
4467+126283741+125806127+125842369+126277783+126794481+126780929+125743680
4457+124120401+123117841+123402237+124351366+124916800+124840305+124592730
4447+124488485+124426187+124217482+123721500+122932780+122195583+121981818
4437+122282722+122552958+122377801+121914442+121599939+121656598+121929668
4427+122065628+121869119+121518982+121270052+120941876+120082131+118740714
4417+117663482+117525296+118190141+118845473+118770914+117965115+117066641
4407+116636942+116664878+116874013+117176619+117540148+117744972+117615680
4397+117280275+117045794+117193229+117839911+118774907+119493277+119542594
4387+118831051+117669664+116566984+115778076+115002365+113844635+112573559
4377+111973239+112381511+113324776+114249447+115134575+115996508+116331044
4367+115785502+114972221+114746616+114994294+114902965+114185241+113341049
4357+112883329+112918159+113400252+114210829+114936027+115132367+114981976
4347+115133686+115688599+115963109+115521598+114837318+114589314+114800254
4337+115008341+114958623+114791098+114690014+114662302+114661161+114681952
4327+114694419+114630362+114489006+114374679+114429317+114676256+114860345
4317+114687591+114351597+114470535+115339192+116566067+117614549+118356955
4307+118827235+118820399+118216178+117476962+117319631+117860262+118390540
4297+118140356+117172130+116343174+116333906+116946066+117583133+118116180
4287+118838468+119770359+120391153+120138200+119052018+117745299+116787548
4277+116397008+116605264+117286476+118116526+118828218+119336994+119532895
4267+119340941+118984987+118750862+118595963+118376596+118254964+118520337
4257+119191083+120099274+121128574+122098586+122737094+123021022+123126436
4247+122937166+122268702+121577699+121546638+122060727+122502295+122743743
4237+122969049+123042300+122816171+122505147+122259565+121944024+121599733
4227+121594505+122158219+123030057+123629479+123621062+123300854+123215053
4217+123438086+123665814+123880730+124288731+124734704+124811742+124423185
4207+123831048+123424749+123619575+124470631+125374614+125732213+125739172
4197+125943060+126292598+126209518+125472864+124622911+124392003+124895355
4187+125610554+126154459+126691330+127396054+127993026+128138470+127901791
4177+127624540+127529405+127618003+127823247+128106446+128428188+128717980
4167+128887488+128836264+128502710+128014930+127705226+127842626+128382004
4157+129012234+129398163+129357451+128931652+128402243+128168062+128460623
4147+129152038+129867892+130253596+130165447+129754631+129362305+129208407
4137+129272538+129543578+130091468+130746033+131085339+131008900+131006926
4127+131565936+132491991+133029620+132640839+131648351+130994029+131227032
4117+131920655+132348511+132432143+132589249+132988814+133487518+133970424
4107+134279362+134142111+133606689+133233321+133518297+134359673+135208251
4097+135570574+135442769+135287898+135366087+135230585+134321112+132929303
4087+132013517+132141256+133079180+134261096+135223328+135691466+135601007
4077+135120804+134610475+134457147+134778945+135288787+135583191+135553402
4067+135431284+135456331+135576531+135542095+135247261+134867776+134684894
4057+134909957+135575250+136418506+137053861+137390305+137613338+137762981
4047+137783211+137867011+138172039+138376489+138092130+137458954+136835186
4037+136275008+135816530+135880073+136807278+138259683+139521499+140196604
4027+140327289+140169238+140118902+140455504+140919154+140942891+140421582
4017+139838939+139567767+139505338+139440758+139342704+139250047+139226956
4007+139398727+139771122+140174213+140591287+141221264+141983685+142386392
3997+142195009+141825774+141750850+141856582+141736363+141422253+141461974
3987+142197338+143200216+143625472+143068941+141940990+141063896+141014458
3977+141736718+142696761+143438989+143900179+144190664+144363333+144477679
3967+144633653+144888617+145294261+145925772+146678532+147143594+146980764
3957+146412205+146041689+146178678+146685322+147374857+147984848+147963122
3947+147151310+146392527+146503740+147090545+147214768+146815642+146556975
3937+146801641+147580354+148999548+150880212+152232431+152050812+150705140
3927+149545043+149249077+149352733+149366388+149667853+150817736+152444896
3917+153286646+152502537+150722882+149324376+149007853+149573166+150904202
3907+153501356+157546557+161809076+164391275+164701541+163300585+160514142
3897+157038089+154642897+154748245+156823267+158566036+158507058+158159381
3887+159359199+161283886+162141021+162584245+163828431+164104803+161682871
3878+159080639+159468849+162469730+165824142+168485166+169950038+169294546
3868+167505005+166904115+167565929+167211481+164702139+161707394+160475085
3858+162294891+167744883+175886312+181396946+178576179+170781135+163944629
3848+160623624+161166005+164583884+169181473+173742155+177781389+180311943
3838+179940417+177252626+174577873+172900863+171430959+169650678+168282774
3828+168009526+168876575+171483185+176622892+182365192+184238289+181981246
3818+179604712+177905013+174860155+170984051+168904353+169975384+173611293
3808+177610740+180053940+182132946+185679967+188640108+187570741+184205237
3798+182160106+181158921+179463038+177520019+176782953+177428195+178842263
3788+180833429+183382426+186081421+188845979+192369431+196760887+200641910
3778+202917136+204485149+206994603+211416661+217673489+224242023+229265719
3768+233013598+237021444+241663870+247088871+254493945+264201219+273941283
3758+281509262+288423752+298125638+312394137+329624590+344628116+354219322
3748+362154020+372544394+383901087+391135083+394716671+400124463+410203692
3738+424629971+441248217+456674334+467877081+474221712+477311874+479195952
3728+481229410+483835403+486751193+489488048+491515895+492728376+494149833
3718+497301311+503354662+513326560+526906795+539861710+546778538+548884499
3708+551414248+556471277+563545043+571320483+577809594+581964988+584665705
3698+586910422+589348702+593067962+599235677+607920684+617021175+622624251
3688+622839362+619809170+615875809+612260887+610525367+612423886+618686400
3678+627511660+632986717+630356669+624977010+623705233+625080675+624008185
3668+620229854+617389596+617266439+619232671+622114193+625582802+630230221
3658+636020351+641310000+645136965+649426102+656769674+666640039+672921521
3648+669712056+660739099+653097888+649896878+650770942+654136858+659000773
3638+665082781+671417386+676489305+680289409+684694520+690805408+695597420
3628+694180677+688211051+683570253+683269097+687048177+693208822+699426331
3618+702933285+702256152+698549349+694816734+694178507+697690250+703618126
3608+709071409+712432013+714072771+714919750+715131868+714026981+711691730
3598+710098183+711124658+714384477+717998950+721232881+724626929+727625248
3588+728427558+726434540+722849173+719065155+716131931+715010583+716370163
3578+720140114+725579032+730947169+733869319+733879345+733136144+732875017
3568+731390037+727648816+724429401+724344853+726293202+727516383+727073215
3558+726247262+725921564+725404249+724443243+724802760+728368673+733923938
3548+737250423+735133202+728940010+723152499+721036923+722578693+725563768
3538+727863105+728381543+726773780+723978078+722428602+723548528+725528303
3528+726004990+726083029+728156929+731233360+732182021+730185936+726974301
3518+724332208+723326159+724211521+725919694+726965697+727255106+727747656
3508+728310387+727471265+724628201+721558653+720771831+722616628+725290371
3498+727365543+728555951+728371516+726399149+723997756+723514485+725737130
3488+729488376+733356418+736121817+735779659+730723752+722645284+716064816
3478+714016057+715753185+718532726+720670673+722551159+724931378+726992483
3468+726998020+724944846+722681049+721567033+721892581+723406517+725167739
3458+726327396+727543169+729739551+731899720+732425415+731649368+730862246
3448+730455592+730497642+731374623+732788299+733528133+732994881+731916630
3438+731148737+730380546+729053888+728073652+728680155+730039435+730149498
3428+728819697+727715033+727847692+728655090+728995452+728043948+726097320
3418+724972679+726583659+730740811+735004584+736945302+736122416+734038191
3408+732516323+731887374+730879530+728761710+726669479+725963464+726531434
3398+727618589+728703499+728893396+727648742+726479433+727552970+730413243
3388+732010082+730510286+727602726+726250479+727442459+729509849+730143587
3378+729167841+728454942+728931779+729464657+729224406+728970387+729534540
3368+730787649+731958081+732777525+734096327+736520092+738667466+738130697
3358+734813340+731678548+731021167+731685806+731205228+729309104+727646647
3348+727203928+727689893+728489061+729118459+729722866+731421536+734737846
3338+737765419+737605451+734087573+730674669+730796179+734124160+737200218
3328+737400440+735208098+732496495+730476617+729659492+730208008+731669420
3318+732962259+733525963+733835499+734058841+733414853+731760702+730912975
3308+732798026+736722858+739724543+739560834+736963408+734423596+733334869
3298+733366968+733880542+734431602+734411325+733850239+734047543+735848869
3288+738001032+738801396+738537651+738568328+739048681+739144078+738397286
3278+736736774+734177059+731477578+730144110+730762883+732265372+733683462
3268+735311801+737288433+738648087+739074868+740024801+742321669+744000586
3258+742571722+738519320+734536127+732114757+730942754+730334082+729919197
3248+729670865+729956159+731372753+733840138+736206739+737099883+736016169
3238+733532697+730832318+729319953+729793198+731315440+732134210+732224520
3228+732977597+733869468+732443597+728746895+726355753+727790977+731591979
3218+734309942+734156857+732303531+731302346+732452126+734122290+733545043
3208+730613615+727797337+726253397+724860522+723352272+723607188+726965772
3198+731811057+734480161+732997051+729351004+726718188+725768031+725122846
3188+723962665+722503947+720951852+719424896+718292474+718003589+718726289
3178+719974235+720667605+720247109+719493882+719559575+720505617+721368233
3168+721463031+720638724+718418249+714399442+709855612+707492677+708622181
3158+711725998+714537487+716188122+716842585+716648049+715428685+712942818
3148+709492055+706021539+703173686+700827736+698821400+697416478+697018653
3138+697764622+699292476+700977603+702414773+703235489+702694231+700509371
3128+697797319+695909800+694808728+693703167+692803364+692857161+693321054
3118+692883573+691806444+691855527+693422437+694588154+693975068+692778374
3108+692835837+694100693+694798777+693462840+690515999+687791827+686411372
3098+685803148+685107160+684377726+683857492+683411407+683250616+683915255
3088+684991037+684991710+683170856+680469355+678220373+676704865+675511164
3078+674845254+675405517+676955741+677909265+676852413+674076838+671204369
3068+669663273+669631998+670093945+669855040+668863507+668325017+669023475
3058+670081899+670193831+669456466+668790406+668146044+666652534+664335465
3048+662568183+662546934+663818374+664728726+664356564+663379098+662773269
3038+662552396+662085959+660850583+658770548+656278247+653862413+651660494
3028+649897402+649185551+649771029+650888262+651315268+650359873+648183319
3018+645552299+643508851+642869727+643474658+643989654+643196172+641657395
3008+640961107+641315985+641423728+640617153+639498274+638556123+637530920
2998+636032247+634064818+632230646+631560695+632541080+634299159+635289719
2988+634740979+632965093+630508332+627855464+625886090+625484224+626301648
2978+626720760+625547523+623307557+621502641+621015740+621510646+622078167
2968+622111724+621445365+620124692+618611691+617823934+618278848+619413066
2958+620166293+619859113+618201296+615191717+611487533+608274477+606277382
2948+605352702+605311924+606284415+607762362+608326628+607274040+605584087
2938+604269961+602900617+600821891+598718886+597818971+598410360+599801140
2928+600934759+600839287+599246863+596818160+594449838+592730554+591948596
2918+591902207+591827872+591039217+589483380+587648946+586251993+585712531
2908+585586981+584979019+583746748+582711781+582428844+582216463+580786215
2898+577838513+574666609+572898729+572931538+573728685+573856480+572689341
2888+570756068+568947859+567574774+566380886+565190889+564189667+563704749
2878+563813203+564093708+563920721+563092860+561953853+560893035+559953578
2868+558894294+557513465+555937464+554580690+553822824+553739697+554025889
2858+554130639+553556235+552107057+550026124+547970667+546515990+545568938
2848+544713467+544066748+544003113+544210330+544009772+543359162+542657188
2838+541928726+541051745+540311761+539834251+538917240+536827552+534004129
2828+531754661+530962602+531472173+532348706+532484881+531359567+529401116
2818+527408847+525766779+524497284+523704663+523402572+523126369+522352603
2808+521242440+520409454+520017352+519659444+519056421+518342138+517640276
2798+516806129+515714373+514484384+513275457+512066979+510809231+509668915
2788+508878764+508352171+507707023+506741752+505642663+504590861+503449685
2778+502046634+500524841+499175063+498105304+497268277+496560055+495728265
2768+494498837+492958227+491554914+490643552+490171130+489719919+488801075
2758+487312765+485699615+484502174+483851714+483447079+482887116+482017691
2748+481032293+480126618+479103210+477605585+475695357+473886288+472603175
2738+471804457+471096459+470095985+468728586+467250863+465960082+464886507
2728+463885172+462972089+462289157+461742324+461007092+459934864+458674796
2718+457420490+456269849+455224407+454184614+453097796+452095076+451280870
2708+450542906+449754102+448926876+448094301+447270742+446430871+445393024
2698+444045228+442729082+441935564+441640842+441345073+440625890+439402747
2688+437948294+436762823+436093658+435603129+434785293+433515948+432020343
2678+430644190+429730247+429366128+429273874+429175072+429004292+428618214
2668+427807973+426809705+426201594+426015065+425544588+424328216+422748137
2658+421396751+420346408+419329098+418288295+417449585+416989171+416787640
2648+416508294+415920273+415088071+414203346+413355395+412511521+411563759
2638+410400061+409115827+408105738+407699195+407682922+407433841+406638826
2628+405679017+405148459+405136525+405177789+404837127+404127072+403326071
2618+402591662+401909964+401297214+400814504+400394830+399841152+399033230
2608+398075105+397227865+396630865+396068844+395228113+394215443+393456342
2598+393048715+392689422+392230206+391792912+391382891+390895579+390443359
2588+390258026+390343996+390518816+390674145+390762771+390643281+390148001
2578+389279100+388252476+387366216+386809807+386528927+386283176+385868965
2568+385260517+384590678+384096371+383961954+384074074+384066442+383718485
2558+383156128+382632228+382309187+382227182+382275106+382221384+381933134
2548+381554987+381364604+381448179+381597598+381562394+381317429+381019453
2538+380819605+380804341+380970931+381149792+381072726+380641530+380069483
2528+379657890+379462943+379272971+378920899+378519632+378340397+378506052
2518+378823931+378949556+378758312+378449225+378197638+377907817+377459824
2508+376968435+376603381+376354749+376140236+375976078+375912966+375884048
2498+375712520+375294942+374747623+374313360+374127092+374121592+374119310
2488+373969368+373679697+373433909+373372742+373408993+373398518+373346630
2478+373239710+372879407+372180613+371467378+371151444+371211788+371259187
2468+371072508+370829039+370785343+370940336+371085377+371038277+370750027
2458+370304952+369907651+369764181+369859353+369894183+369573723+368965686
2448+368448558+368285971+368395959+368537222+368552523+368411484+368156643
2438+367852232+367552871+367318680+367184525+367077830+366884005+366588723
2428+366236576+365847991+365504822+365354095+365413465+365526146+365548780
2418+365457086+365304263+365180883+365175496+365308790+365483910+365502091
2408+365225028+364795852+364582087+364781636+365170520+365350915+365173962
2398+364795440+364411457+364162863+364207569+364559304+364900826+364866296
2388+364416470+363705106+362798120+361679391+360214836+358032820+354828743
2378+350873346+346888770+343339242+340056939+336628809+332979245+329409853
2368+326207272+323547932+321712638+320971906+321340701+322800504+325511732
2358+329494663+334430444+340085222+346643206+354118426+361526306+367242175
2348+370091487+370020743+368230379+366323069+364717888+362540435+359067637
2338+354538810+349753419+345356876+341627066+338695077+336616688+335248990
2328+334335758+333685223+333176475+332819577+332879172+333644931+334981878
2318+336373257+337507474+338582359+339881633+341291118+342517965+343583908
2308+344697662+345809134+346694683+347335079+347880864+348390173+348823277
2298+349163228+349448036+349773584+350205041+350627782+350861076+350952732
2288+351121753+351395263+351574273+351564808+351480522+351419730+351369038
2278+351319244+351271957+351151457+350888086+350528532+350122252+349642983
2268+349163415+348906479+348961921+349144635+349264836+349353200+349502431
2258+349657947+349703364+349655628+349643806+349740176+349896515+350011927
2248+350020981+349966960+349993634+350180799+350414766+350539269+350584910
2238+350699835+350898636+351051272+351106752+351153665+351248239+351359087
2228+351520551+351846586+352313958+352702917+352833106+352749231+352659857
2218+352783948+353200068+353754906+354210755+354514867+354805323+355175091
2208+355588554+356001493+356405529+356772603+357070729+357322503+357597060
2198+357964807+358465849+359077177+359698307+360213939+360603459+360971655
2188+361448118+362078600+362812000+363528228+364078689+364405546+364642880
2178+365000002+365544328+366182779+366816853+367444418+368167379+369116863
2168+370279176+371438983+372429132+373371433+374548673+376122953+378109648
2158+380540783+383493497+386938537+390638081+394242303+397504704+400406128
2148+403080545+405674379+408286169+410946258+413587004+416096739+418474975
2138+420896233+423570911+426538066+429620933+432644728+435692615+439038217
2128+442816511+446860533+450807475+454269985+457018213+459060351+460413346
2118+460877576+460266846+458732371+456649081+454300961+451760999+448965035
2108+445898742+442728446+439666567+436802853+434190126+431915630+429936342
2098+427979351+425657531+422631042+418804451+414458674+410051618+405868241
2088+401943895+398240722+394792952+391716669+389109218+386948002+385120863
2078+383525895+382102567+380820316+379665036+378589253+377521477+376509667
2068+375774547+375483230+375494228+375439309+375073882+374461207+373812318
2058+373253552+372793325+372437400+372250496+372267780+372378141+372379301
2048+372198907+372020495+372141743+372701295+373582130+374632622+375919775
2038+377623234+379748162+382129166+384647318+387267938+389923649+392451528
2028+394587642+396040262+396632847+396351781+395326615+393829289+392116777
2018+390203668+387979490+385511131+383024592+380712161+378702047+377019463
2008+375531041+374128214+372883373+371839240+370837531+369717118+368485932
1998+367270832+366324117+365956818+366156068+366381879+366027861+364992932
1988+363620034+362330711+361452570+361089199+361014228+360868963+360524223
1978+360160591+359985471+359940017+359749185+359309535+358919678+358935353
1968+359242420+359321506+358891283+358217142+357682805+357374279+357192276
1958+357069344+356924378+356624344+356122854+355539583+355089271+354966900
1948+355260462+355965766+356975556+357841277+357814603+356681021+355219310
1938+354287859+353979707+353942072+353972599+354055912+354175065+354291001
1928+354460285+354938880+355906059+356995795+357644946+357975656+358444412
1918+358709280+358011645+356621015+355642800+355598019+355999922+356069020
1908+355553575+354859569+354485836+354504541+354638621+354670346+354688078
1898+354969519+355547477+356020311+356165352+356420643+357100021+357591560
1888+357147047+356019825+355009960+354509779+354435070+354526614+354554335
1878+354490999+354472705+354646141+355339025+357129314+360101594+362915253
1868+363467996+361365964+358467869+356540881+355881218+355852449+355807556
1858+355529670+355218300+355171911+355471010+356041036+356844469+357963573
1848+359771333+362614883+365540662+366149745+363698970+360576822+358987055
1838+358928844+359250014+359462769+360407801+362986633+366395197+368423306
1828+368286944+367330427+366335639+364869476+363093515+362000262+362009428
1818+362618586+363244168+363927587+365131314+366884529+368365432+368749565
1808+368321998+368161768+369063216+371105990+373732259+375937957+376907867
1798+376941873+377462593+379782730+383584592+386296345+385555501+382777718
1788+381170555+381921163+384065133+386423317+388712403+390828315+392433458
1778+393838941+396278531+400771519+406696215+411255120+412002287+410008184
1768+407718050+406423678+406893818+409433219+412777773+414930498+415866027
1758+416973384+418509280+420266424+423215435+428277065+434147553+437849567
1748+438301825+437340295+437054776+438305304+440852337+443559301+445275330
1738+446862815+450823898+457644618+463174668+463249789+460317089+457935149
1728+456791205+456940548+458611348+461542402+465743399+472292704+481804263
1718+491810055+497023985+495707278+491767145+488921126+488661234+491407404
1708+496864279+503551143+509499407+514837990+521719427+530435148+537570828
1698+540908275+541677252+540208732+537503714+536835371+539917751+545754794
1688+553299747+563273628+575163311+583222250+583499501+581168776+581456540
1678+585538122+592385328+599636982+605596058+611396139+618269009+624114282
1668+626326564+627111665+630303771+636229102+642048786+645838565+649204706
1658+654787580+664186645+677798380+691958706+697655907+696171749+697449400
1648+703353482+708599810+708484660+705969089+705749488+708970924+715258541
1638+723934906+732051308+733746686+728218058+722213565+720030576+720966442
1628+722398449+722923845+722976519+722354229+720033568+717105807+716088759
1618+717159379+717089421+713158005+707148200+701738163+697544872+694142593
1608+691136718+688441950+686125105+684159023+682421370+680938934+679971493
1598+679633300+679501315+678943297+677831975+676537041+675309670+674081701
1588+672701097+671140098+669604089+668437174+668013610+668953068+671981839
1578+676740854+680431570+679963936+677405493+677232506+680399322+684339716
1568+686780017+688932180+692760941+698686572+707402143+720681821+736930262
1558+746502240+746667595+746724983+751024521+758376173+766682771+774762735
1548+782779923+792063315+803532015+816347949+828460937+836185349+834692513
1538+827136673+822273581+822726549+825612112+827316843+827861094+829642367
1528+833262601+837506246+841912404+847193673+852745871+856532358+858385086
1518+859580058+859824051+858926344+858909060+861936558+868375090+877398477
1508+886721973+890481823+885089968+877184488+873129093+873899679+877961808
1498+882233586+883615014+882545891+882598341+885704626+890368544+893292864
1488+892789091+890358443+888186303+887161474+886916434+886927807+887686570
1478+890271351+894947838+900721582+905457553+906338126+903068356+899552273
1468+899288752+902174913+905095791+905352129+904617533+906758847+913202391
1458+920831706+923038863+918335140+912221109+908123814+906417661+906641377
1448+907395053+906819153+904690484+902571392+901925833+903417771+907102651
1438+911771432+914431932+913322031+910912856+909973997+910218963+909782006
1428+908222353+907007179+907030673+907785621+909140262+911760658+914742066
1418+915273972+913009352+910699840+909890871+909969508+909829592+909031248
1408+907859170+906614890+905070576+903267156+902346254+903262966+905356918
1398+907163182+907880270+907035087+904154762+900097572+896810068+895038672
1388+893591925+891086829+888131982+886746514+888054767+891549450+895870087
1378+899848341+903041345+905450370+907169317+908658936+910579901+912842575
1368+914700690+916046952+917603985+919542234+920946407+921251604+921346627
1358+922315863+923895717+924848942+924737982+924526013+925142392+926613979
1348+928761653+931465699+934140788+936045367+937104315+937744412+938235315
1338+938545674+938471077+938023870+937929969+939051168+941008047+942284500
1328+942212073+941905829+942737095+944744703+946899859+948356557+948973160
1318+948903426+948378629+947822332+947517584+947295888+947134424+947603928
1308+948946748+950314857+950800822+950633372+950609130+950829479+950558326
1298+949202936+947238874+945894034+945777313+946248239+946296050+945377841
1288+943269299+940109142+936803907+934406255+932807546+930744121+927406338
1278+923388054+919793409+917144432+915362037+914229540+913594680+913181292
1268+912353019+910518772+907924863+905323473+902709063+899417819+895557259
1258+892197254+889961141+888277809+886175851+883325605+880324069+878189938
1248+877416584+877540713+877886986+878447249+879586330+881249610+883016069
1238+884668275+886203161+887545831+888546493+888989585+888679825+887920013
1228+887635767+888671519+891215597+894789890+898356926+900725173+901382928
1218+900848629+900077819+899842356+900538045+902133163+904426140+907394230
1208+910896994+914280568+916917574+918899817+920624974+922120580+923374063
1198+924892788+927156434+929830626+932320832+934645459+937036526+939111174
1188+940269185+940642095+941022787+942217236+944737819+948557602+952936001
1178+956743737+959176929+960209465+960356414+960233707+960432433+961361789
1168+962762670+963772385+964135718+964987036+967672302+972015385+976266214
1158+978742279+979536059+980411843+982591466+985141604+986449931+986789396
1148+987941197+990625340+993849319+996464477+998223379+999534849+1000757505
1138+1002016001+1003533529+1005472900+1007224245+1007454395+1005722055
1130+1003671126+1003697912+1006473936+1010243962+1012923616+1014415330
1121+1015853697+1017135687+1016993751+1015601324+1015106830+1017049867
1113+1020525022+1023384247+1024751683+1025460317+1026072805+1026027762
1104+1025485008+1026127200+1028273826+1029074490+1026405386+1022963377
1095+1023206546+1028013971+1034490662+1039671970+1042688844+1043911500
1087+1043873416+1043153410+1042679790+1043108592+1043978840+1045071457
1078+1047472176+1051294054+1054256009+1054670894+1054124623+1055205717
1070+1058244364+1061318551+1062305670+1061092965+1059738024+1059459464
1061+1059125611+1058022893+1057549348+1059318351+1063423652+1068452473
1053+1072360844+1073741823+1072477790+1069184077+1064946267+1061960594
1044+1062344727+1065380231+1067871635+1067771149+1065891262+1064194985
1035+1063844148+1064453718+1064549789+1063477299+1062339040+1062046115
1027+1061881582+1061494232+1062368071+1064963701+1066685117+1065392278
1018+1062693544+1061551620+1062683294+1064489557+1065185247+1064323229
1010+1062799940+1061284956+1059148057+1056147494+1053725151+1053096127
1001+1053486022+1053480635+1053158005+1053589575+1054725214+1054825475
993+1052496135+1048766736+1045855959+1044040492+1041268733+1036367782
984+1031127440+1028119320+1027827965+1028729264+1029409615+1029525289
975+1029137490+1028375059+1026910580+1023439989+1017310170+1010194206
967+1004258324+999679403+995778066+993060851+992184618+991837372+989380760
957+983656698+976405606+970669049+967723405+966139211+964080724+961724149
947+960544515+960944660+961469382+960331498+957418925+954195320+951847050
937+950417288+949838395+950646391+952924254+955429050+956497874+955557593
927+953487061+951796321+951489628+952383968+953329262+953116620+951471821
917+949449922+948641252+949634806+951271449+951856852+951093823+949977039
907+949057184+947968757+946408207+944635763+943196872+942709112+943252988
897+943789009+943344420+942554530+942466241+942496544+941286382+938760112
887+935864748+933241211+931444000+931311492+932900624+935082341+936971581
877+938488586+939315437+938955770+937760498+936324451+934038507+930079856
867+925739167+923756774+925108572+927794885+929192549+928686682+927396312
857+926486858+926512521+927569523+929221730+930593805+931034652+930849469
847+930790809+930816174+930216256+928904487+927852423+927941984+929168756
837+931029415+932840766+933880185+933971842+933402451+932079608+929926024
827+928183283+928624131+931129526+933796610+935382899+936164782+937001136
817+938661199+941631459+945532048+948854568+950349200+950141197+948716373
807+946040460+942481580+939525760+938431796+938667633+938900178+938954050
797+939318430+939449068+938223568+935827038+934008803+934357097+937029344
787+941059973+945062020+947642760+948067447+946963008+945802902+945637023
777+946606035+947835650+947613356+945418769+943104917+942409976+942778172
767+943019171+943523767+945308781+947827644+949065190+947810959+945015706
757+942638405+941795767+942283303+943397468+944770142+946034325+946515725
747+946081612+945488652+945544319+946512209+948290190+950549946+952660583
737+953998689+954746155+955768739+957041302+957516193+956613473+954429810
727+950970742+947099557+945634180+948364039+952296053+951855655+945784346
717+938828724+935977504+937714857+940331362+940178801+937667645+935907546
707+936215736+937040642+936762905+935211109+932862539+930766343+930175852
697+930722647+929875220+925570071+919245791+914798781+914158908+914710043
687+912544562+907736463+903745414+902716096+903460719+903516611+901744091
677+899396570+898491530+898291308+894847428+885240808+871859598+863724566
667+868493383+879931032+888277959+890895361+888564076+882675033+875724049
657+870567657+868586910+869012419+869868077+869473244+867470499+864678988
647+861991103+859811256+857965487+855597913+851898668+847100596+842306489
637+838844876+838332424+842042519+849169707+856535575+859483913+854646559
627+844501225+835270807+830953462+831977169+836978307+844113875+849706251
617+848997094+841661678+833091260+828384320+827475913+827310707+826652279
607+826526429+827518337+829184235+831111635+832413004+830913882
##END=
