##TITLE=<SNM>
##JCAMP-DX=4.24
##DATA TYPE=INFRARED SPECTRUM
##DATE=2/5/2025
##SAMPLING PROCEDURE=Instrument type and / or accessory
##ORIGIN=Admin
##XUNITS=1/CM
##YUNITS=ABSORBANCE
##RESOLUTION=4
##FIRSTX=4497.3318
##LASTX=599.83466
##DELTAX=-1.4281778
##MAXY=1.8499128
##MINY=0.39253822
##XFACTOR=1
##YFACTOR=1.7228655e-09
##NPOINTS=2730
##FIRSTY=0.41200057
##XYDATA=(X++(Y..Y))
4497+239136811+239548870+240614018+241455278+241358183+240228236+238757308
4487+237765988+237377144+237325163+237768358+238940980+240309952+240999957
4477+240857040+240477035+240437716+240928931+241773788+242417087+242118972
4467+240567763+238481317+237372888+238215376+240169353+241155346+240095888
4457+238114787+237135160+237728849+238645165+238416743+237172005+236388799
4447+236906064+237936599+238299911+237824473+237074894+236494853+236442561
4437+237375224+239186319+240865481+241543688+241358356+240754150+239832109
4427+238911971+238653035+239117489+239619290+239716627+239573450+239328388
4417+238928871+238522780+238288477+238017174+237440178+236819055+236674771
4407+237020993+237357925+237443862+237535854+237685828+237475553+236793886
4397+236170825+236032215+236312289+236932392+237897108+238789742+238904463
4387+238016015+236529121+234976460+233803821+233375312+233682180+234151962
4377+234169779+233748155+233315149+232968391+232406825+231549444+230803497
4367+230646465+231191062+232089924+232644760+232233031+230982152+229883532
4357+229903926+231007684+232305544+233077231+233235508+232903679+232184198
4347+231342074+230665528+230248263+230241482+230917077+232147146+233154225
4337+233076677+231867037+230679539+230974593+232786415+234365802+234237657
4327+232954916+231900232+231295162+230500815+229546928+229131514+229421655
4317+229984536+230670077+231479335+231938755+231745224+231571257+232142804
4307+233034591+233376990+233205669+233175986+233405428+233348742+232593869
4297+231352730+230277704+230005760+230709430+231878454+232736769+233023658
4287+233127309+233380743+233524577+232998628+231584749+229719753+228257855
4277+227840313+228497175+229898599+231644722+233091242+233464933+232706705
4267+231758319+231531748+231966398+232339120+232159531+231668023+231566137
4257+232191533+233139158+233880901+234336447+234579952+234572998+234428767
4247+234332624+234105084+233476765+232767525+232582660+232887903+233077853
4237+232893732+232638723+232556246+232607604+232760917+232923969+232794095
4227+232358961+232189561+232677765+233382214+233626480+233392852+233181417
4217+233221877+233251630+233119369+233188440+233650819+233837102+233072197
4207+231930331+231639342+232470655+233608784+234355786+234663312+234723406
4197+234672670+234459644+233813940+232696378+231686514+231468212+231985201
4187+232568459+232760122+232560467+232179389+231974338+232277885+233012190
4177+233777873+234335824+234634770+234535254+234016726+233568895+233837621
4167+234743783+235348767+234883621+233637274+232562750+232372973+233179393
4157+234458468+235238249+234892010+233808110+232912691+232741976+233213817
4147+233920514+234404186+234418353+234088444+233719907+233517485+233614873
4137+234122815+234908599+235591684+236009157+236395389+236845798+236987746
4127+236540520+235780805+235072291+234419184+233847412+233667010+233938832
4117+234156304+233818386+233000444+232173197+231699176+231571015+231546486
4107+231596564+232056850+233086866+234314444+235294295+235906337+236144861
4097+235998155+235635154+235298343+235049250+234881718+234866236+234985922
4087+235032869+234802873+234347206+234029561+234285711+235186666+236217340
4077+236618812+236066915+235013772+234241791+234064088+234125081+233965489
4067+233515444+233037341+232916773+233456146+234536378+235580648+236114157
4057+236223792+236197931+235996841+235467415+234824202+234506937+234703789
4047+235313185+236105525+236608934+236225280+234933162+233593078+233139141
4037+233614752+234274139+234606470+234960026+235915297+237170154+237535300
4027+236343997+234497354+233588009+234143728+235245947+235838649+235825918
4017+235713498+235733096+235709657+235476738+235118737+234957345+235356620
4007+236288037+237148463+237418002+237385412+237697055+238321915+238557947
3997+238092818+237500375+237489962+238077735+238755059+239224530+239675579
3987+240344721+241077591+241481536+241329486+240715455+240049131+239953680
3977+240771725+242060988+242960559+243081145+242637119+241892643+241078006
3967+240708743+241338948+242851235+244281980+244578037+243590487+242188666
3957+241352527+241385203+242018729+243065386+244689471+246807988+248539339
3947+249100403+249044946+249328081+249583505+248763073+247022035+245470325
3937+244803725+245415559+247752604+251323799+254067280+254268855+252857260
3927+252153261+252869939+253528392+252924480+252094932+252715726+254606393
3917+255699322+254337701+251125303+248059524+246534938+246742065+248582896
3907+252419842+258354046+264964330+269695571+271048388+269276006+265170472
3897+260098302+256389136+255969173+258524761+261095884+261123353+260258845
3887+261492149+264306621+265831415+266007302+266816179+267153769+264737967
3878+261476650+260999983+263791206+268007950+272443013+275838114+276061917
3868+273780330+272420716+273022863+272994892+270241534+266271842+264280328
3858+266846053+275356759+288037937+295635026+289636611+276876295+266384228
3848+261061426+260947500+264793269+270522075+276367713+281539122+285146298
3838+285691655+283218337+279941763+277348620+275122681+273001327+271873265
3828+272328102+273815446+276327114+280744291+285797693+287735981+286498439
3818+285661920+284994576+281242633+275082654+270523424+270101160+273827105
3808+279266929+283375767+286702574+291735651+296887997+297625139+294520439
3798+291598407+289412255+286633745+283930794+283275005+285355207+289195561
3788+293466638+297439565+301004291+304808873+310012768+316581726+322351200
3778+325725405+328414362+333266725+341519827+352675623+364936179+376174348
3768+385943250+394994107+403323840+411145320+419693944+428810638+435564859
3758+437794274+437875402+440388991+448269665+460310571+470673697+475885964
3748+480041663+487231139+495680403+500215968+501112425+503754574+512023487
3738+526991336+545589991+560028034+564323259+561269139+558053489+558815920
3728+563804558+571197183+578375969+583700190+586608072+586374132+583187336
3718+579492632+578478063+581689596+587741652+592123195+590401617+583638055
3708+576391633+571811543+570843298+572122632+572662818+571371825+570971062
3698+573973703+579573241+585732787+592216189+599827843+606584694+606948577
3688+599337546+590156053+585101337+585172951+589272535+595741683+603132060
3678+610052135+613034399+609420685+604329781+603402256+604021875+599738724
3668+591213037+584238646+580955810+579947918+579793515+580908136+583945892
3658+586727567+585337975+580919968+580242436+587573445+599543947+605275365
3648+598315850+585942371+576395612+571221885+568268163+565505204+563323255
3638+563620610+566607890+570145285+573050538+577095597+583614668+589088898
3628+588253814+582562804+577294560+575599795+578462252+584622318+590538895
3618+593687705+595355105+597548021+599946854+601453728+602234564+602466774
3608+601042171+598016593+596267061+598431609+603543686+607901288+610102092
3598+612708434+617282539+621473041+622676367+622149882+623088132+626503056
3588+630529019+632870422+632834234+631011636+628780871+627614840+627638158
3578+627878879+628119461+628901059+630263320+632373413+636398130+642968438
3568+649958744+653320044+651893365+648231700+644338725+640784586+638485874
3558+638369631+639825786+641407041+642416974+642825694+643008846+643927445
3548+645863450+646910539+644675000+639643118+634888697+632854093+633136882
3538+633294295+631614095+628446049+625351209+623852847+624687100+627425322
3528+630784200+633557987+634849949+633795318+630232737+625464962+621566174
3518+619788413+619846604+620765064+621883422+622564276+621797416+619470127
3508+617365985+617384252+618949869+619356998+617319142+614763103+614056718
3498+615340238+617275689+618868499+619817612+619994399+619274866+617645869
3488+615551897+613952237+613381953+613351508+613048930+612148182+610989901
3478+610245874+609846910+608342597+604856405+601299982+600439781+602410383
3468+604867061+606044093+606023682+605138433+603090268+600191865+598011403
3458+597792686+598825452+599067072+597412612+594862247+593059507+592319632
3448+591584947+590052126+588277617+587524734+588463606+590378369+591726514
3438+591737447+590872749+589461154+587238554+584759111+583640961+584807062
3428+587372579+589359994+589397427+587958293+586526702+585485632+584134373
3418+582698422+582255936+582738346+582831963+581790963+580032125+578163791
3408+576621768+575873105+576011974+576399072+576133961+574822556+572973907
3398+571713566+571866862+573056108+573845074+573221201+571752210+570861807
3388+571239806+572319139+572975222+572558095+571521281+570961168+571297754
3378+571717476+571359716+570321656+568897295+567043180+565414113+565359347
3368+566920225+568427824+568758461+568358770+567636436+566056288+563518309
3358+561293529+560698682+561363240+561541030+560456992+559472557+559948497
3348+561016828+560911172+559649482+558612183+558269438+558151569+558338077
3338+559223498+560146284+559670205+557625118+555907000+556399928+558641555
3328+560316601+559881000+557979764+556511604+556953052+559061900+560908162
3318+560865297+559392674+557940670+556952568+556132568+555821582+556686177
3308+558260478+558938945+557844943+556079982+555350070+555965122+557033800
3298+557898082+558355202+558145791+557253070+556302159+555944641+556105687
3288+556373012+556595881+556692473+556495448+556033519+555534434+555030055
3278+554396460+553913220+554245897+555641578+557620379+559550675+560911691
3268+561076057+559793056+557923684+556764710+556581143+556740735+557185020
3258+558230345+558939913+557712820+554916165+553010570+553496612+555268596
3248+556196017+555355744+553572655+552270937+552007625+552274535+552607074
3238+553018077+553137054+552087958+549878331+547909495+547421930+548144957
3228+548729287+548092786+546508071+545452159+546033999+547701295+548800417
3218+548303788+546675067+545108307+544362309+544427523+544992618+545728341
3208+546093227+545510246+544051912+542470553+541331092+540437644+539232692
3198+537561279+535777013+534216862+533062144+532558181+532784647+533371192
3188+533946977+534458517+534590224+533700825+531853282+530035943+528995911
3178+528570274+528219987+527546675+526270766+524381259+522566479+521855319
3168+522330533+522724030+521869538+520030403+518234201+517031048+516351509
3158+515854708+515101721+513875319+512496971+511636632+511724783+512473964
3148+513018509+512762531+511988994+511346612+511067835+511059567+511275586
3138+511461852+510956574+509377395+507242911+505450377+504414601+503916795
3128+503367165+502121044+500094258+498155175+497364720+497805130+498569326
3118+498791607+498289719+497366208+496425467+495666599+494813421+493375706
3108+491460251+489872319+489120128+488929883+489027375+489526945+490198734
3098+490341582+489744451+488944241+488392984+488075945+487859718+487651691
3088+487371600+487079054+486941569+486926727+486707595+486023178+485030024
3078+484080254+483284160+482579815+482002266+481553518+481104148+480648308
3068+480264740+479753061+478766861+477375782+476179998+475847909+476541459
3058+477641204+478189554+477755302+476699564+475623621+474780684+474054648
3048+473333282+472725738+472380087+472236374+472130337+471993854+471814023
3038+471523242+471055812+470456225+469843561+469217438+468327554+466923950
3028+465183172+463689203+462937497+462973580+463443605+463832501+463703838
3018+462938188+461861450+460966584+460380559+459771838+458847980+457664409
3008+456394416+455210187+454425441+454253913+454376003+454174791+453427824
2998+452454771+451610173+450973326+450565748+450473099+450559071+450392317
2988+449698247+448678005+447800264+447406420+447332661+446878447+445646787
2978+444377175+444170878+444876018+445056264+443760359+441649747+440024485
2968+439287517+438863886+438312664+437817800+437608527+437586904+437557290
2958+437324630+436695982+435688713+434504761+433338315+432475589+432177784
2948+432161247+431791068+430975081+430187429+429654301+429203028+428764590
2938+428435476+428155558+427720199+427080999+426432251+425947835+425584643
2928+425276599+425098774+424975854+424488116+423340109+421814900+420477168
2918+419639732+419269829+419154658+419012052+418670380+418269617+418118293
2908+418252008+418256575+417660828+416459231+415118143+414113676+413599438
2898+413447146+413405803+413236316+412846728+412335050+411870907+411525533
2888+411243435+410975660+410726879+410428106+409946180+409323760+408793676
2878+408434533+408094902+407743785+407493481+407193670+406479950+405334573
2868+404211199+403533528+403312839+403287860+403271704+403234167+403044995
2858+402390365+401204856+399910230+398881685+398026501+397220236+396697071
2848+396601863+396610027+396422862+396203522+396107033+395819815+395032785
2838+394010086+393249142+392888788+392753482+392640526+392349917+391735315
2828+390831835+389784711+388799826+388196744+388137066+388294617+388200584
2818+387812311+387386500+387029952+386661156+386191512+385596146+384925706
2808+384233504+383468789+382594923+381783849+381270926+381015017+380680852
2798+380013699+379180310+378636907+378580481+378647909+378316719+377542283
2788+376799087+376438248+376229148+375736844+374976973+374329158+373907499
2778+373490477+372996927+372552711+372176235+371799136+371426950+371000898
2768+370366195+369556644+368802896+368175908+367522835+366777598+366100584
2758+365675328+365507190+365452839+365340055+364995166+364300716+363400418
2748+362697873+362416190+362293235+361945612+361380656+360910770+360660328
2738+360380859+359801373+359018287+358363069+357940822+357535735+356991779
2728+356464947+356212395+356250554+356289544+356012429+355399418+354689088
2718+354037711+353392664+352695827+351992659+351327339+350739272+350347850
2708+350215520+350142937+349839251+349291558+348753829+348383546+348095290
2698+347762267+347349049+346849791+346296252+345810348+345455563+345094655
2688+344591765+344063861+343724541+343583734+343474480+343260052+342895789
2678+342412479+341915747+341499969+341150132+340808356+340452084+340043330
2668+339541442+339030110+338680792+338504697+338263250+337759737+337138596
2658+336715415+336556272+336434563+336164954+335748693+335226912+334616116
2648+333988160+333473679+333177051+333087689+333043406+332845446+332461774
2638+332052778+331779052+331634475+331462705+331131584+330684393+330256922
2628+329864151+329404160+328873731+328418859+328136900+327953748+327745928
2618+327493480+327242761+326991039+326725374+326514752+326444972+326494652
2608+326531531+326386712+325977992+325438740+325024831+324815835+324646141
2598+324381791+324115020+324011508+324040326+323947124+323539200+322917540
2588+322333591+321928123+321723417+321708299+321780709+321718470+321334071
2578+320651903+319892689+319266082+318828163+318595157+318637607+318885766
2568+319033215+318858434+318480298+318149177+317950076+317786851+317536789
2558+317184807+316840990+316632271+316599093+316665484+316658737+316447527
2548+316105717+315818153+315635658+315467901+315250878+314986598+314717197
2538+314525050+314420950+314246031+313873291+313453362+313244920+313272320
2528+313365868+313449764+313553311+313620324+313541341+313325737+313076471
2518+312866264+312737013+312708471+312736840+312773685+312844054+312958048
2508+313011638+312897401+312650038+312393403+312203401+312096671+312084701
2498+312155104+312238239+312245989+312112067+311793228+311321750+310852695
2488+310555513+310448818+310406092+310306455+310153228+310061133+310101749
2478+310170457+310121642+310007094+309981527+309996473+309850546+309553780
2468+309391039+309569209+309970491+310297322+310350392+310126831+309725065
2458+309238746+308751666+308356646+308107865+307981935+307936925+307971314
2448+308084028+308213453+308259846+308171833+308000720+307850538+307765258
2438+307683300+307529035+307352491+307315923+307490495+307739969+307905166
2428+308013521+308141700+308187194+308006117+307680256+307431232+307364980
2418+307457940+307675793+307979305+308303783+308587161+308749625+308697592
2408+308455315+308216047+308150695+308244970+308402521+308604286+308875901
2398+309172287+309374675+309409409+309351668+309352741+309441653+309485141
2388+309346202+308925270+308041924+306457417+304025095+300699429+296470040
2378+291439092+285933829+280436783+275344685+270754372+266490698+262372156
2368+258427736+254904699+252141152+250368199+249649307+250123812+252149144
2358+255944212+261314791+268147875+276832963+287208856+297252538+304003092
2348+305642849+302591912+297492947+293561501+291935651+291486558+290931496
2338+289965708+288855861+287749508+286561335+285313484+284259908+283632730
2328+283457397+283624808+284031244+284679889+285669894+287049886+288727889
2318+290519870+292210795+293648199+294872214+296079034+297392826+298732357
2308+299921187+300871441+301634461+302309468+302948115+303529158+303973201
2298+304192229+304197004+304170434+304350300+304801504+305355735+305800573
2288+306075025+306245031+306349961+306344980+306180336+305862950+305422402
2278+304884500+304315254+303828000+303493282+303277609+303091205+302857126
2268+302549497+302229309+302033183+302064527+302287638+302551365+302732684
2258+302861797+303058131+303307673+303409905+303237581+302932719+302732684
2248+302709643+302773300+302829519+302856158+302891688+302991637+303144863
2238+303245089+303227652+303200390+303324591+303608522+303946908+304280035
2228+304556804+304645682+304461907+304105289+303750366+303499648+303403470
2218+303479582+303640939+303720821+303632774+303449379+303303176+303253807
2208+303260726+303255571+303228379+303235713+303310614+303394683+303414818
2198+303397416+303425300+303513486+303619593+303744485+303911792+304059449
2188+304050004+303818556+303475326+303233914+303226510+303393921+303570466
2178+303652390+303644121+303577454+303480585+303439070+303583820+303943863
2168+304360955+304633366+304730028+304780227+304867063+304930202+304891488
2158+304778151+304676058+304621223+304583063+304538676+304553103+304755871
2148+305164072+305553522+305651429+305482115+305348608+305416313+305525049
2138+305508097+305471321+305588464+305827870+306077066+306352349+306684161
2128+306953700+307040986+307022685+307080807+307306478+307672575+308085585
2118+308409129+308543224+308525303+308491641+308553326+308765228+309150284
2108+309659125+310149630+310494693+310712442+310934342+311219657+311463906
2098+311571224+311638237+311828101+312150088+312509439+312845472+313090655
2088+313179568+313191227+313269483+313376247+313356216+313232223+313204339
2078+313344038+313472183+313415722+313289895+313380883+313789119+314376182
2068+315002374+315545431+315790649+315632544+315287793+315055271+315032023
2058+315187152+315452090+315640328+315549202+315245378+315063747+315241537
2048+315670877+316090217+316444344+316891570+317450057+317842586+317809062
2038+317451095+317135404+317089737+317195498+317213765+317100704+316975120
2028+316913573+316956334+317159552+317492057+317874968+318372185+319040307
2018+319590145+319594054+319061341+318439059+318088150+318073688+318317730
2008+318661513+318893999+318934685+318920258+319040272+319352676+319742022
1998+320071240+320480686+321352961+322684881+323743698+323820191+323099966
1988+322298406+321816723+321630250+321583233+321533795+321461939+321486814
1978+321651595+321834852+321947670+322021014+322158914+322597837+323537297
1968+324646210+325140071+324718032+323946467+323427904+323207284+323179503
1958+323441777+323969958+324425002+324533876+324407289+324371862+324636558
1948+325239224+326297626+327956827+329730506+330399078+329391083+327696179
1938+326587820+326306829+326398198+326531047+326674068+326895968+327195364
1928+327578275+328346657+329810769+331522764+332666169+333345500+334154533
1918+334599821+333654652+331745079+330431495+330542030+331641705+332715711
1908+333025554+332607667+332023267+331670732+331559193+331633126+332007042
1898+332804900+333793383+334422758+334655763+335307937+336770769+337994091
1888+337795959+336576096+335519527+335113610+335214977+335598476+336021449
1878+336312265+336521607+336854665+337806614+340246237+344455456+348694877
1868+349906783+347335557+343582558+341204621+340619772+340909550+341200124
1858+341196837+341063123+341114775+341522007+342335157+343671540+345672758
1848+348509303+352259811+355896704+356929229+354402839+350806389+348726498
1838+348392506+348638347+348943693+350204726+353333816+357364691+359838183
1828+359992482+359421783+358775352+357126427+354661550+353047497+353036565
1818+353687735+353968518+354200071+355390561+357555109+359381236+359753837
1808+359053506+358579330+359513186+362363777+366315323+369261399+369699457
1798+368551035+368195628+370340975+374677196+378117791+377142247+372810176
1788+369380687+369031577+370741322+372625779+374105978+375325668+376084294
1778+376675889+378532980+382964515+389302301+394209880+394708204+391843671
1768+388069326+384667376+382973371+384103734+386950934+388937380+389556445
1758+390059128+390490993+390800352+392783961+397907697+404317893+407857295
1748+407070265+404391929+402352932+401812712+402569054+403779057+404467453
1738+405321599+408762021+415355923+420469211+419055125+413703988+408635364
1728+404942148+402995972+403131589+404848600+407934479+413646108+422947927
1718+433166199+437774035+434200107+427178076+421439185+418848793+419853571
1708+424029266+429555494+434109153+438012369+443992499+452301129+458380655
1698+459270470+456739583+451512646+444930853+440882818+441323781+445037375
1688+450786264+459501399+470683038+477098285+473204100+465282706+460269090
1678+460170041+464109305+469103340+472508404+475345987+479234291+481737778
1668+479622945+475665517+474801304+477648573+480624748+480855712+480144483
1658+482211158+489462423+502413520+516448171+520153289+514631523+511962355
1648+514614329+516753829+513070991+506782643+503223106+503988444+509057691
1638+518048212+527948718+531601145+526502423+519828914+517320550+519200370
1628+523057365+526963556+530591351+533072592+532774788+530992286+531486389
1618+535543489+539604740+539367894+536556951+535214894+536292809+538308696
1608+539772532+540632905+541651418+543085016+544483085+545513568+546521978
1598+548062168+550096495+551946563+553126502+553936503+554902534+555998265
1588+556851996+557436811+558118599+559168836+560691001+563136643+567406302
1578+573596258+578967911+579572480+577178801+577237926+581100699+584957348
1568+585015538+582986331+582439365+585011179+592154608+605806486+622664605
1558+628710295+620787206+611576653+606556394+605173514+605991023+607639394
1548+610070056+615142832+624344390+636876042+650551654+661269426+661873961
1538+653575156+646958974+646582083+649619839+651464994+652156711+655507355
1528+662940631+672197890+680795882+688834315+696322668+701226060+703496334
1518+705583801+707576336+708009619+707956549+710451490+717490438+729023298
1508+741482298+745332789+736042941+724794463+720083287+721874818+727332096
1498+732894892+735368315+734620967+734147276+737051560+743016848+748268002
1488+749119553+746249658+743095589+742223972+744108221+747640150+751897769
1478+757119446+763512068+770268365+775779059+777839887+775784110+772736044
1468+772368909+775413723+779484177+781842394+783486060+788053593+797386063
1458+808157667+811467142+804600760+795913440+791157635+790473460+791666822
1448+792185074+790990189+789026508+787474729+786934612+788317077+792700004
1438+799334315+804222070+803832516+800460976+798196307+797900024+798097846
1428+797887847+798040070+799286295+801277792+803829126+807416062+810872018
1418+810678971+806020727+800547604+797320192+796540047+796665977+796403046
1408+796061927+796661272+798079095+799371748+800655060+802800303+805758073
1398+808796452+811562974+813505413+813618820+812284582+811489284+812375985
1388+813816779+813639024+811791655+811070462+813818094+819666448+826674674
1378+833557663+839933055+844861080+846943150+846584387+846161414+847176813
1368+849205259+851626926+854595489+857738003+859509952+859049684+857475418
1358+856257769+855587432+854756639+853440321+852207450+851771469+852034677
1348+852170155+851699232+851275843+852158393+854791442+858015811+859878195
1338+859411007+857345543+854966361+853094359+852151266+852296570+853223818
1328+854246275+854869491+855107098+855276689+855848219+857268394+859394816
1318+861396139+862815622+864275098+866499220+869176830+871389604+872798363
1308+873836941+875046287+876637921+878392780+879784448+880452916+880615311
1298+880751758+880995385+881080630+880659248+879533072+877877020+876188378
1288+874754779+873335850+871530342+869256816+866760422+864309141+862072149
1278+860266364+859165720+858816782+858967968+859378694+859906771+860358598
1268+860679443+861202884+862324563+863951693+865536269+866627157+867289191
1258+868032940+869237788+870679136+871810018+872380440+872600542+872943252
1248+873974565+876025360+878779773+881490803+883759277+885783710+887807105
1238+889749337+891479287+893067807+894628512+896202917+897841325+899480425
1228+900846146+901848399+903116281+905507226+908832892+911864560+913787902
1218+914841772+915618804+916692324+918732326+922048651+925919069+928869573
1208+929928079+929640792+929659959+931070447+933436690+935951006+938791356
1198+942417663+946135996+948417894+948726354+948332165+948919816+950952829
1188+953641163+956396268+959459764+962260259+963049399+961782070+961241469
1178+963324301+966309817+967799599+968499896+970610958+974001180+976387697
1168+976802990+976782163+977983068+980456905+983304382+985709512+987224411
1158+988019848+988856731+990566130+993194544+995195520+994511345+991213979
1148+988139482+987763767+989550108+991674386+993653428+995822335+997862197
1138+999673310+1002043982+1004701802+1005803346+1004854164+1003882425
1130+1004797564+1007167198+1008951672+1008887599+1007892681+1008092993
1121+1010568630+1013726712+1014428531+1011945283+1009447574+1010037232
1113+1013098237+1016208991+1018881204+1022512354+1027336590+1030979988
1104+1031166323+1029392367+1029302486+1031452365+1032610232+1030642467
1095+1027352366+1025606779+1026204187+1028340089+1031209707+1034385502
1087+1037534935+1039957363+1040604451+1039649249+1038896573+1039277270
1078+1039738023+1040239599+1043231688+1049857765+1057043539+1060605498
1070+1059704335+1056698407+1054020314+1052193840+1050227668+1047576490
1061+1045368213+1045514762+1048767845+1053616576+1057359403+1059159237
1053+1060819579+1063525004+1066090176+1067070771+1066545808+1065344350
1044+1064685292+1066023751+1068942081+1070731744+1069762219+1067156570
1035+1064766386+1063409660+1062236917+1059669601+1056368913+1055950714
1027+1060924060+1068830197+1073741823+1072381499+1067187983+1062152226
1018+1058867314+1057183308+1056248241+1054491999+1051601899+1049790994
1010+1050803349+1053710747+1056828143+1058824069+1057996389+1054336316
1001+1051363116+1052556201+1057014963+1060585293+1060744713+1058885442
993+1057668347+1057545392+1056711070+1053929464+1050135434+1047096017
984+1045833324+1046284528+1047256613+1046926150+1044259058+1040115122
975+1036543338+1034837883+1034582632+1034600898+1033931185+1031998432
967+1029295152+1027330571+1027207823+1028490997+1029349191+1027787725
958+1023100490+1016559105+1010712481+1007302816+1005870878+1004573865
950+1001867472+997227149+990901783+984118985+979145708+977410915+977840808
940+978345013+978659908+980006255+982102440+982998067+981987857+979944881
930+977037138+973105899+969719621+969100417+971188853+973405503+973162637
920+969970443+965720228+963404080+964500226+967198732+968443504+967744453
910+967008937+966584857+964255562+959282562+955030478+955552743+961040050
900+967502072+970631231+969905195+967990501+966377279+964017471+960894400
890+959608804+961612549+964577030+965377933+964065075+962761074+962247666
880+961552420+959795762+957302066+955218059+954521568+955484381+957568111
870+959549230+960068242+958443673+955041203+951091144+948222010+947330050
860+947919086+949002155+949932517+950187283+949449207+948027233+946716521
850+945999687+945651511+945593251+946258605+947464906+947688467+945412589
840+941333694+938384020+939085839+942979921+946735272+947654148+946809654
830+947184539+949315874+950780401+950145768+949148151+949721964+951015240
820+950961408+949545800+948655293+949276226+950417971+950554003+949315043
810+947978729+948406616+951031085+954168894+955765856+954889395+951517923
800+947125241+945238155+948340260+953936130+956742715+955297699+953005838
790+953255484+956399589+960088516+961128824+958085671+952762557+948383436
780+947226953+949803957+954421515+957944380+958476055+957019969+956100678
770+957400320+959939959+960982413+959646929+957862041+957177658+956968005
760+956055288+954192973+951599501+948745935+947109949+948416787+952570894
750+956725140+957933171+957048268+957330366+959894016+963037014+965390041
740+967304735+968533385+967824924+965318911+963099148+962721565+963752118
730+965034807+965983989+966057195+964257361+960437246+956041588+952656554
720+950913112+950918509+952510558+955271614+958580259+961470081+963321464
710+964464938+964982013+964147276+962042234+959971096+958703006+958088785
700+958151473+959013334+959732728+957867576+951561307+942901595+936840751
690+935644206+936102468+933712353+928519113+924254921+923108264+923906883
680+924468311+923908059+922287019+919823283+917192309+914183337+908025347
670+897248346+889280420+894790492+908747993+919116828+922900064+922513762
660+919252168+913606964+907476028+902377513+898171235+895405267+895323965
650+896755765+897207592+897340718+899558059+903025570+903796028+899696582
640+891879150+882365465+874817122+872339132+872913776+871518787+867127073
630+863679282+864245276+868882969+876806751+886470445+893173395+892149208
620+885176408+877010730+869368701+861981507+856080152+854211333+857615255
610+864958166+873343392+881343631+885619101+879177007+862816175+848474725
600+843576453
##END=
