##TITLE=<SNM>
##JCAMP-DX=4.24
##DATA TYPE=INFRARED SPECTRUM
##DATE=2/5/2025
##SAMPLING PROCEDURE=Instrument type and / or accessory
##ORIGIN=Admin
##XUNITS=1/CM
##YUNITS=ABSORBANCE
##RESOLUTION=4
##FIRSTX=4497.3318
##LASTX=599.83466
##DELTAX=-1.4281778
##MAXY=1.7136741
##MINY=0.22725086
##XFACTOR=1
##YFACTOR=1.5959833e-09
##NPOINTS=2730
##FIRSTY=0.24693878
##XYDATA=(X++(Y..Y))
4497+154725161+154879608+154778987+154467263+154196463+154209786+154275339
4487+153863713+153238260+153496017+154896713+156196974+156323010+155720421
4477+155452618+155738590+155868043+155287461+154342488+153756594+153754054
4467+154058952+154420459+154743265+155034793+155507881+156246477+156747865
4457+156469287+155644944+154839432+154126242+153437065+153068314+153177254
4447+153440716+153657382+153960889+154225509+154017414+153270676+152456893
4437+152080569+152318383+152902065+153130468+152423636+151094328+150124295
4427+150014207+150282598+150195235+149581013+148813063+148300555+148105410
4417+147969598+147781278+147900432+148622866+149471961+149598800+148809338
4407+147706911+146983367+146910139+147259396+147468378+147107432+146278476
4397+145406040+144851759+144883607+145638168+146828667+147731616+147809064
4387+147353789+147149793+147341726+147163835+146182234+145101132+144675520
4377+144618744+144299290+143786297+143551610+143690073+143887142+143853567
4367+143607033+143438711+143599498+143962862+144044502+143500100+142735315
4357+142760748+144035576+145684683+146413783+146064854+145654348+145951768
4347+146607379+146776121+146200160+145319340+144525760+143837359+143272668
4337+142952999+142769963+142517696+142389242+142768675+143481081+143839394
4327+143633315+143461875+143729455+143920278+143462893+142817029+142885981
4317+143724236+144609669+145017382+144891365+144381994+143908887+144087460
4307+145043366+146087159+146518914+146513163+146757064+147335228+147497966
4297+146688207+145372381+144543033+144730560+145723225+146870066+147472841
4287+147241115+146511884+145846964+145496195+145383072+145408337+145625703
4277+146207686+147183395+148213659+148818693+148799889+148322291+147699237
4267+147156151+146715628+146303135+145884282+145444096+145078248+145098341
4257+145657812+146448674+147165254+147848623+148464796+148743290+148589712
4247+148128163+147478116+146924163+146870897+147338094+147946994+148368956
4237+148411288+148033947+147581847+147524240+147784126+147791912+147302120
4227+146802739+147038322+148170402+149422608+149843430+149493958+149347849
4217+149875025+150462815+150451853+150000332+149611843+149430161+149329708
4207+149346504+149789062+150877008+152197931+152814235+152274781+151225714
4197+150614722+150595311+150600446+150204478+149548690+149051681+148894096
4187+148823100+148537865+148205751+148275804+148748808+149103891+149098672
4177+149141369+149627221+150367590+150960123+151378097+151893864+152569988
4167+153125053+153364781+153465794+153629569+153745857+153646253+153416142
4157+153246093+153203481+153262983+153384304+153567592+153881276+154249925
4147+154285208+153685430+152761511+152200396+152343816+152994433+153837683
4137+154700559+155399184+155723381+155711365+155662244+155754836+155849519
4127+155734678+155353425+154725590+153916363+153191464+152942325+153322644
4117+154124010+155009994+155641956+155686016+155085211+154332479+154101182
4107+154479112+154828060+154684957+154527821+155043597+155935659+156333065
4097+156149898+156048661+156274440+156513328+156634238+156771636+156953384
4087+157101463+157157035+157131490+157173654+157366008+157496666+157419377
4077+157422701+157772545+158220799+158402602+158349477+158266903+158126554
4067+157865277+157742948+158025905+158446335+158503158+158308937+158539030
4057+159416844+160297553+160448135+159893033+159303460+159212166+159544943
4047+159962871+160345637+160599165+160350286+159431353+158409511+158048500
4037+158455597+159197358+159964962+160682634+161217737+161433582+161435412
4027+161488743+161765314+162303535+163059301+163815683+164186554+163957152
4017+163414673+163087740+163132034+163250833+163244634+163289375+163552296
4007+163884307+164060247+164081386+164132793+164373661+164755829+164999367
3997+164894161+164628029+164573913+164801448+165078597+165244566+165339352
3987+165514974+165966402+166739852+167505869+167732880+167238934+166554986
3977+166577991+167620019+168853000+169104959+168230786+167173540+166729880
3967+166938797+167642053+168824225+170177518+171011226+170950519+170310827
3957+169607496+169098816+168946423+169537770+171303651+173894239+175787845
3947+175767491+174713270+174435672+175037439+174958880+173514610+171772575
3937+171066761+172161970+175202044+179069347+181291772+180383370+178066066
3927+177273626+178667048+180308303+180608944+180476251+181523806+183447831
3917+184107093+181981863+177990420+174354873+172511385+172750124+175329807
3907+180989749+189668478+198896538+204814508+205774990+202693816+196511412
3897+188946473+183598357+183379412+187513239+191291190+190954379+189157613
3887+190327515+193781969+195582134+195546580+196049752+195536609+191649793
3878+187717787+188245533+192829686+198370174+203287086+206236968+205198768
3868+202128966+201393032+202871306+202197049+197589330+192464865+190821537
3858+194770106+205206966+220123557+229207385+222490775+208059727+196502300
3848+191046756+191649662+196788226+203988195+211316935+217983986+222472494
3838+222170695+217313800+211629956+207323214+203875763+201023356+199823015
3828+200549651+202452631+206468891+214584189+224209300+227682409+223923860
3818+219364990+215349777+208774281+200837705+196132400+197248113+203667611
3808+211504901+216284377+219286656+224494517+229840877+229291994+223816749
3798+218599291+213974841+208461279+203633047+201773669+202705356+205020998
3788+208203979+212037576+215444805+218040155+221292620+225746563+228943325
3778+228905586+227761845+229149423+234856272+244137664+253830447+260502596
3768+264079229+266570065+268906080+272397787+279564200+290833909+302593400
3758+311246042+318430606+328799569+345272620+366087182+383359190+391862427
3748+397498038+406312745+416121210+420621557+421009029+424451382+435011299
3738+452939152+474509984+491333197+496705776+493782989+491066878+493071423
3728+498382230+502999584+505071054+506725735+510093843+514558561+519034521
3718+524067917+531124045+541488975+554838090+566920406+572124925+571248137
3708+569898130+572052099+579002237+588995456+597138222+599946728+599051081
3698+597559866+597528943+600943063+609215945+621024323+630902701+632133348
3688+625029192+616858901+612153185+610935908+612040473+614849502+620289080
3678+629642700+639353503+640996308+635691813+633198923+634674340+631981422
3668+622409212+612776277+608069066+608178231+611053849+615397713+621052147
3658+627613432+633653507+639088491+647160449+660848596+677773878+687639371
3648+682867439+670180481+658985895+652674757+650641381+651079458+652822053
3638+656122526+661379517+667418397+672803710+678327281+684677258+687420594
3628+681939748+673818942+670388726+673460712+682377601+694525199+703615002
3618+705336160+704286868+706260490+710064546+711234094+709242098+706601838
3608+703910862+700570054+698010688+698794818+703590204+709679875+713137877
3598+713527029+713935826+715659747+716525368+715847003+716524995+720348247
3588+724491336+725077081+722770476+720952217+721747551+725242900+729462027
3578+731664284+730969263+728790534+726815269+725806909+726473024+729229805
3568+732517506+733077183+729776336+725449278+723026077+722601371+722424198
3558+721495088+720984186+722570448+725775239+728377480+729644353+730907865
3548+732484193+732559932+730041721+726374952+723835379+723759565+725643704
3538+727001405+725521506+722225140+720727764+723181140+728508641+734005098
3528+737608080+738891161+738481767+736689427+733212976+729091398+727284268
3518+729319586+732835401+734152393+732586000+730474644+729657200+729669375
3508+729342965+728928716+729578922+730787310+730321298+727533893+724085079
3498+721677041+721245836+722909257+725610391+728193659+731197526+735819922
3488+741048379+743787532+742326681+738094034+733841520+731409057+730807627
3478+730566591+729136887+726429553+723891250+722692347+722446158+722157618
3468+721787736+722298415+724594412+728486308+732436912+734546326+734022427
3458+731987034+730562259+730615889+730740851+729178864+726524114+725525315
3448+727607765+730814125+732480458+732890973+734186976+736409327+737020243
3438+734622588+730977255+728446272+727323034+726449645+725036896+723003071
3428+720486280+718131648+717310843+719256753+723819320+728860745+731354681
3418+729996681+726515226+723784662+722979394+723132141+723638712+725348367
3408+727965322+729150630+727829081+726017171+726012092+727672076+729416688
3398+730306957+730511393+730787235+731422203+731390459+729557111+726677086
3388+724775768+725057810+726974739+728871128+729630983+729445146+728841699
3378+727895558+726876891+726872409+728805024+731855947+733548722+732390677
3368+729954405+729021037+730631350+733587563+736341505+738408643+739796893
3358+740446949+740616204+741061301+741996387+742222110+740776869+738581408
3348+737363086+737909393+739557949+741166171+742862605+745649861+748582918
3338+748585458+744510190+739303469+736181587+735144769+734669943+734381403
3328+734927934+736630419+738807430+740216594+740255435+739484973+738800409
3318+738362781+737809528+737123619+736444432+735575226+734693173+735098384
3308+737614578+740565263+741083933+738684634+736099424+736329405+740124423
3298+745972312+751434037+754319514+753543301+750003212+746264811+744074504
3288+742588032+740218985+737761574+737754553+740501475+743480169+745414726
3278+747721629+750712200+751772920+749307443+745575989+743564199+743601247
3268+744053814+743513259+741631510+738930077+736401484+734934134+734986568
3258+736536978+739027925+741624414+743800156+745384476+746194076+746481496
3248+747409486+749402229+750412830+748233204+744187590+741876653+742958810
3238+745963946+748027499+747032434+743729122+741645926+743055986+745802235
3228+746046482+743656072+742062640+743121642+745063967+745391721+743751456
3218+741522906+739871810+739077521+739054366+739566090+740269925+740862318
3208+740679618+738783155+735724762+734058205+735408735+738058704+738738712
3198+736482451+733619457+733146498+736092104+740919907+745163458+747403436
3188+747542590+746314856+744679744+743004448+741040985+739165883+738412079
3178+738598513+738193302+736564988+735082773+735440554+737661411+739945980
3168+740141602+737493127+733349963+730029995+728741161+728761926+728818469
3158+728805920+729166540+729253483+728195527+726505217+725099115+723961387
3148+722825675+721944443+721435856+721132377+721484631+723082769+725023227
3138+725473852+724196372+722771821+722054093+721339577+720404192+720138508
3128+720690043+720969695+720312095+719030358+717394873+715710613+715040764
3118+716316302+718565317+719206261+716989737+713530166+710986411+709696158
3108+708788186+707866396+707208049+706824574+706261237+705379333+704643902
3098+704483835+704786417+705137252+705544629+706462909+707783113+708286098
3088+706751225+703652199+700776731+699222512+698888334+699520538+700793014
3078+701679399+701234675+699814531+698525100+697935471+697917769+698014049
3068+697589119+696360339+694984712+694645231+695821427+697458480+697752697
3058+696130433+693921677+692492047+691484658+689829902+687678286+686103826
3048+685541983+685820589+687053552+688992889+690121804+689148251+686879441
3038+685157686+684653581+684580979+683831207+681914577+679320851+677003790
3028+675515526+675034949+675689860+676981681+677603353+676818177+675328493
3018+674084924+673234989+672559986+671747546+670350259+668350345+666597666
3008+666131431+666954700+667748765+667186250+665385244+663558619+662367709
2998+661401103+660254561+659164113+658373036+657705800+656992330+656250849
2988+655394715+654294258+653103273+652269397+652175134+652668334+652991009
2978+652445150+651166027+649943148+649372342+649401398+649393032+648742752
2968+647635050+646815664+646565591+646429276+645847564+644524073+642688634
2958+641361484+641328917+641777600+641236746+639590953+637724890+635887584
2948+633969609+632519363+632119007+632468647+632720886+632227910+631004732
2938+629822561+629624176+630397102+630836747+629683781+627164376+624685304
2928+623257467+622589634+621789669+620572802+619335209+618174213+616570847
2918+614369597+612434443+611693933+611923055+612090480+611524342+610279130
2908+608747207+607322096+606361241+606186608+606710843+607109743+606351755
2898+604264376+601868027+600384469+600034082+599888542+598965893+597367568
2888+596009196+595415048+595210164+594736085+593863817+592989793+592299477
2878+591470830+590231780+588747549+587309740+586041036+584967805+584075220
2868+583392934+583166315+583481857+583620936+582633266+580779676+579516388
2858+579730235+580630850+580730976+579521617+577671351+575897833+574368450
2848+573042607+571867531+570640656+569224210+567843055+566798133+565996076
2838+565135385+564295833+563972074+564361749+564808789+564291948+562510214
2828+560209286+558316334+557006026+555844919+554615243+553607518+553128771
2818+552968479+552425533+550956913+548871252+547086941+546069954+545421690
2808+544660379+543855110+543168006+542278596+540701147+538433533+536018063
2798+534110545+533089413+532874035+532951716+532674790+531708334+530188997
2788+528462946+526839338+525581502+524882111+524653923+524407921+523618375
2778+522350830+521253659+520692750+520183715+519001731+517137460+515330629
2768+514304641+514146740+514292616+514027903+513040756+511523510+509862406
2758+508319877+507004191+505996541+505317952+504783372+504089397+503134592
2748+502058373+500908619+499558500+498080431+496919623+496428775+496374399
2738+496159730+495393489+494066076+492461029+491089062+490332867+489935200
2728+489184980+487725958+485886374+484248051+483165595+482586050+482096883
2718+481295611+480232501+479267650+478480905+477596536+476554303+475722966
2708+475378219+475304273+475073247+474490415+473669050+472806603+471921375
2698+470816960+469402082+467893538+466465589+464957717+463287836+461862389
2688+461126772+460906165+460601977+459960137+459274900+458789543+458266653
2678+457415672+456476030+455903057+455539040+454649816+452945986+451078392
2668+449875232+449474540+449370753+449031870+448360974+447658708+447141270
2658+446590145+445667421+444397598+443074891+441951205+441255661+441111615
2648+441169390+440756000+439646953+438332463+437351927+436712963+436157095
2638+435710130+435595513+435658256+435336813+434391270+433274306+432560126
2628+432306318+432122573+431635983+430763154+429657955+428512085+427450058
2618+426591197+426034096+425647783+425043215+423984773+422749159+421840590
2608+421418983+421225789+420974446+420555939+419950550+419203467+418452090
2598+417821977+417359924+417094614+416995159+416860599+416458525+415800963
2588+415125474+414609418+414231357+413883921+413484349+412981887+412397226
2578+411852263+411409817+410900969+410105037+409087303+408155355+407467168
2568+406871638+406199921+405571115+405254154+405269392+405293256+404992354
2558+404328069+403516340+402799844+402256824+401773334+401252572+400811209
2548+400609724+400541006+400299224+399745335+399027533+398336507+397655342
2538+396821652+395867893+395170034+395074688+395462421+395871740+395944977
2528+395590370+394919923+394230952+393844153+393784510+393793660+393717547
2518+393633107+393540113+393243730+392688908+392134161+391801813+391568658
2508+391198105+390719918+390387421+390356610+390523736+390619904+390411435
2498+389852990+389137017+388616853+388535213+388712909+388659764+388138704
2488+387427212+386888188+386547811+386240634+385930172+385713636+385614742
2478+385520927+385358693+385224619+385191791+385071012+384602871+383845593
2468+383149227+382777516+382709508+382751710+382732177+382599634+382369691
2458+382029836+381558708+380996865+380446151+380048857+379959748+380190476
2448+380489585+380575520+380473974+380393642+380328882+380096624+379707920
2438+379356002+379077769+378787586+378617696+378826912+379296957+379484026
2428+379091700+378538297+378437610+378766261+378897049+378421402+377598991
2418+376946844+376688853+376722614+376915361+377223993+377551001+377698408
2408+377571952+377287968+376962716+376542790+375997566+375547203+375475161
2398+375762021+376109345+376296228+376310457+376184300+375950846+375709138
2388+375507392+375216498+374647858+373724387+372525224+371249760+370086561
2378+369099116+368353564+368041234+368250077+368797243+369503916+370319156
2368+371015634+371246138+371063849+370904715+371012572+371366543+372143541
2358+373693278+375950734+378445864+381137438+384531016+388613903+392490112
2348+395296938+397031690+398524697+400315320+401508845+400700775+397759651
2338+393839932+390101495+386916123+383963459+380791234+377416030+374371456
2328+372090434+370386231+368651516+366554688+364484563+363179297+362952416
2318+363444720+364041183+364386005+364551525+364762982+365036210+365268843
2308+365561752+366057604+366556705+366735222+366663666+366689584+366903618
2298+367120266+367298857+367605548+368056696+368414402+368505341+368433150
2288+368401555+368467322+368539775+368561473+368619249+368826261+369107892
2278+369239689+369153791+369038652+369039025+369065168+369018895+368960037
2268+368897705+368695361+368354834+368125152+368169184+368369026+368566664
2258+368729384+368816252+368764042+368651292+368640275+368755639+368902710
2248+369041341+369182361+369325362+369531403+369903936+370399377+370841972
2238+371186570+371553725+371973053+372319630+372559358+372890063+373553414
2228+374520021+375410253+375852848+375948306+376201106+376940719+378002821
2218+379070337+380109882+381283837+382613788+384005773+385519919+387340606
2208+389482362+391697803+393709630+395501224+397361984+399595725+402200094
2198+404903955+407450437+409726529+411714342+413519679+415444526+417791540
2188+420442256+422829828+424550314+425784210+426943973+428243711+429720025
2178+431252097+432496674+433165740+433339924+433275389+433034802+432512995
2168+431763485+431078360+430613842+430116646+429229103+427854559+426042425
2158+423813315+421259513+418580301+415897803+413095645+409947434+406484204
2148+402962227+399421764+396032816+393928481+394481063+397584906+401733858
2138+405722369+409291552+412504037+415518099+418628067+421924956+425166982
2128+428084092+430622096+432968923+435385027+438003028+440845781+443809575
2118+446586000+449005653+451360807+453977501+456737419+459299138+461456431
2108+463192565+464659019+466138544+468000611+470584589+473867696+477439157
2098+481029217+484615019+487921655+490480424+492142723+492927377+492532286
2088+490482366+486697506+481645810+475811030+469236001+461915272+454308206
2078+447054999+440570872+435086404+430627997+426991329+424009908+421626593
2068+419714370+418132664+416757896+415353102+413758922+412075073+410427189
2058+408931008+407817218+407109910+406492831+405791199+405095506+404411950
2048+403704343+403093239+402720856+402611393+402610646+402413680+401977956
2038+401741813+402111209+403150006+404899212+407430419+410624081+414350680
2028+418647189+423437757+428338385+432837164+436576946+439501339+441610603
2018+442587443+442064029+440228814+437698914+434900716+431918249+428753045
2008+425455970+422026539+418346063+414365208+410336474+406687930+403652095
1998+401183817+399299454+398247660+398007483+397773544+396553503+394320920
1988+391933834+390088759+388908680+388182362+387596692+386983385+386440887
1978+386069363+385775332+385414601+384905230+384357765+384239787+384920990
1968+385869931+385953887+384840770+383403073+382501263+382131904+381938972
1958+381869619+381968401+382023786+381835559+381558334+381505638+381780809
1948+382328311+383286028+384847492+386423745+386558342+384624831+381915929
1938+380070220+379444177+379456054+379552707+379511476+379331764+379090617
1928+378991237+379571866+381211197+383234266+384580538+385418186+386410039
1918+386726290+385020781+382091085+380193015+380330078+381582386+382392435
1908+382042907+380993055+379992277+379275184+378733956+378424203+378635622
1898+379571866+380876235+381705219+381928328+382618158+384224475+385264542
1888+384315227+382185684+380465123+379604171+379338225+379434542+379585983
1878+379524660+379334677+379389091+380471659+383746550+389390788+394831337
1868+395947853+391921323+386322834+382525725+381152302+381135608+381371489
1858+381361368+381106104+380829029+380768976+381228601+382558105+384958636
1848+388659577+393762961+398622247+399529584+395436651+390251740+387489171
1838+387118766+387318422+387405701+388883135+393301543+399231483+402674471
1828+402206219+400407529+398768795+396322664+393093261+390747368+390041889
1818+390202517+390473206+391181074+393108909+396061312+398429351+398764351
1808+397515180+396458605+397187650+400351136+405053491+408799174+409513466
1798+408125477+407884704+411285005+417644655+422245875+420462236+414468509
1788+410035161+409540916+411518048+413934862+416234109+418135540+418936177
1778+419258628+421550257+427847090+437170870+444429977+444790111+439810532
1768+433835925+429399964+428256895+431220502+436076725+439067147+439888549
1758+440796446+441999121+443106076+446232551+453539350+463052776+469238840
1748+469492759+466735568+464708690+465074351+467695601+471026400+473226865
1738+475327577+481196082+491924731+500833029+500388716+494395212+489149688
1728+486244977+485989675+488535709+492979774+499063470+508821069+523996361
1718+541095491+550587966+548412896+541551792+536928986+536994043+542121217
1708+551729466+563407617+573609118+582262003+593353811+608061000+620246318
1698+624962043+624708646+621211916+616131127+614131064+617835479+626002969
1688+637331406+653356932+673502541+686977813+684995825+676933205+673105695
1678+676323110+685423519+696387751+705287086+713032559+721618930+727650041
1668+726827145+723372355+724251122+730277304+736513150+739078343+740543228
1658+745869459+758038494+777326326+796552684+800179567+792585722+790817134
1648+796682800+800827383+795391128+785425471+778810108+778050552+783351238
1638+793703956+803629502+803001107+791027246+778971147+773211097+772521379
1628+773182788+773191976+772838900+771083832+765991391+760090395+758321507
1618+760659408+760291095+752291665+741820260+734886703+732041261+730995555
1608+729587213+727266118+724687480+722345173+720006973+717403164+715054956
1598+713887350+713969363+714167823+713384141+711675307+709761814+708004429
1588+706289396+704654808+703577879+703394657+703975696+705747123+710291389
1578+718200963+725408196+725402295+720396872+718518634+721946983+725794137
1568+725193901+721936824+719806123+720923460+728428196+746093091+769315617
1558+776586040+762726098+746899480+737137362+732909198+732329727+733211183
1548+735140586+740493781+751405728+767218975+785031613+798116687+795697221
1538+781174376+770488078+769274013+772559249+772943098+770493978+771296110
1528+777645117+786387820+794330110+802097244+810094508+815415809+816829231
1518+816265072+813590080+808167345+803240051+803578561+811657167+827126227
1508+844658093+849329189+833557919+814642136+805380687+805837511+812287205
1498+819150176+820224341+815299213+811522644+814323942+822394107+828891380
1488+827806683+820810608+813780100+810332929+810474622+812487756+815675667
1478+820999582+829198369+839237823+847434966+848153740+840583946+831891735
1468+828361953+830383379+833741964+834146652+833457457+837678974+849832472
1458+865054224+869996680+860215964+847376780+839340601+836795650+837861300
1448+839236030+838163434+835214990+832988308+833059715+835897538+841724438
1438+849113400+853235575+850674416+845782750+844314653+846554631+848651496
1428+848104517+846715371+846938331+848995683+852696364+858538950+864405064
1418+864713697+858295300+850531004+845476134+843234214+842225705+841501255
1408+841445982+842335355+842942910+842284265+842010588+844408617+849268837
1398+854453673+858141805+858851616+855617395+850501276+847633949+848818735
1388+851811696+852783531+851248658+850588070+853100977+857786265+862743586
1378+867702176+873283634+878636382+881515286+881502663+880881663+881179091
1368+881856859+882817937+885174512+888593523+890478335+889160595+885777361
1358+882023350+878646316+876095390+874749192+874404781+874346670+874147687
1348+873984556+874025862+874197881+874793560+876429119+878817812+880312126
1338+879535390+876954064+874044834+871800748+870600426+870544182+871303515
1328+872156064+872654866+873021685+873730749+875030786+876860548+878940383
1318+880917217+882426171+883092062+882878290+882419150+882395472+882684610
1308+882798741+882987491+884157039+886575982+889169932+890533010+890451520
1298+889806618+889227894+888546840+887215731+884746295+881189847+877343440
1288+873959908+870913690+867593722+863711761+859430414+855153624+851337393
1278+848299616+846161296+844862155+844239063+844306885+845239431+846726202
1268+847830617+847858552+846925483+845687442+844984279+845416529+846789168
1258+848460879+850366231+852833949+855483321+857283803+857802772+857710227
1248+858009747+859284912+861519736+864220198+866711594+868460911+869305991
1238+869579294+870138672+871892098+874813951+877691362+879343951+879896308
1228+880507001+882081163+884559188+887291021+889797729+892037035+894110969
1218+896034248+897700506+899024595+900316415+902342322+905594171+909609534
1208+913343976+915896022+916877343+916869351+917284422+918974881+921443794
1198+924024522+926953023+930394817+933456645+935141427+935522363+935482029
1188+935994873+937885137+941417309+945717179+949305372+951561633+953162684
1178+955042939+957425357+959614693+960682434+960801271+961454389+963806930
1168+967504473+971298147+974489045+977328661+979728258+980764628+980196810
1158+979376602+979974970+982388834+985469784+987434368+987363484+986202600
1148+985573683+985592953+985225836+984748471+985861327+989139616+993262911
1138+996796578+999195802+1000254281+1000105043+999708870+1000242703+1002314098
1128+1006100452+1010990847+1014909856+1015903501+1014862501+1014701014
1120+1016884075+1020340658+1023195511+1024449089+1024668687+1025310303
1111+1026410536+1026092641+1023803067+1021952614+1022831680+1025690119
1103+1027835385+1027523167+1025388656+1024171753+1026271008+1030542420
1094+1033103654+1032520897+1031826174+1033886067+1037487032+1039692352
1085+1040245829+1041324326+1043755519+1045691047+1045146458+1042952715
1077+1041892070+1043514334+1047116718+1051145153+1054436215+1056412077
1068+1057182688+1057323560+1057237662+1056843132+1055802505+1054387365
1060+1053996197+1055819909+1058764469+1060189393+1059569289+1059206728
1051+1060781786+1063433324+1065847561+1068453461+1071635173+1073741823
1043+1073449996+1072128298+1071589759+1071590207+1071093123+1070034346
1034+1068766202+1067136842+1064631778+1061301576+1058716739+1059273728
1025+1063616248+1068980273+1071178498+1068868233+1064934958+1063120583
1017+1063779154+1063592645+1060097371+1055225574+1052983131+1054672993
1008+1057804734+1059450004+1059244672+1058476750+1057843500+1057272395
1000+1056578195+1055559901+1054065736+1051902543+1048885082+1045787550
991+1044592009+1046030677+1047823167+1047456722+1045451356+1043813630
983+1042786000+1040925314+1037557094+1033738323+1030603594+1027856972
974+1024947368+1022523122+1021103351+1019876588+1017794437+1014656945
965+1010693045+1005935155+1000503308+995107313+990822755+988009656+985718737
955+982899363+979623240+976331729+973076744+970213077+968183883+966565653
945+964759568+963179282+962500693+962249873+961368268+960094074+960077194
935+961935414+963643426+962749123+959593330+956519551+954849259+954433665
925+955024265+956400938+957858578+958814653+959572267+960798283+962153518
915+962015411+959559942+956495350+955059073+955198077+955472351+955702555
905+956616876+957472936+956293454+952368769+947291864+943559812+942489009
895+943357169+944428421+944875535+945290158+946293961+947454919+947642474
885+945864101+942224445+938572988+937097272+937967076+939311032+939620263
875+939106223+938516744+937911354+936932349+935519525+934144794+933259455
865+932557636+931502145+930550851+930669912+931727644+932616345+932934464
855+933514756+935137693+937393804+939202578+940141846+940693680+941152596
845+940870106+938928901+935676605+933006319+932499973+933772224+935080776
835+935222395+934223895+932599240+931079455+930638840+931976597+934862597
825+937863401+939277869+939197723+939670307+941605761+943139364+942787633
815+942281287+943899592+946863946+948183777+946249967+942534647+940028312
805+940647893+943861200+947284395+948585029+947270576+944743701+942306907
795+939922024+937781911+937699748+941236626+947084441+951778916+953067450
785+951537656+948807914+945970614+943839614+942908711+942852915+943208903
776+944561674+947676385+951362799+952712059+950217452+945629938+941845302
766+940226474+940574545+942360835+944998704+947278643+947903752+946979048
756+945770436+944899288+944284711+944610224+946662872+949319862+950094432
746+948172050+945733463+945460459+947590040+950309175+952532272+954722355
736+956824076+957364930+955176565+950944591+946824807+944630840+944370011
726+944813838+945378221+946308900+947169516+946840418+945117990+943084240
716+941764559+941583278+942840292+945295834+947632764+948393441+946959404
706+943218315+937476042+931658852+929005297+930828859+934230916+934647854
696+931065264+926669936+924391491+924023477+923059783+919209194+912764206
686+906955830+905007380+907062566+910202823+910969774+908421611+904677684
676+902171051+900755911+897459545+888927851+874861829+861980594+860247036
666+868221145+877509035+884343324+887949219+887853238+884976201+881653095
656+879473918+878768365+879386526+879715177+876706456+869814802+862908060
646+860427794+863003892+866854557+868236607+867684773+867599921+867750428
636+865863003+861304992+856006099+852230053+849896783+846970075+842422373
626+837512482+834109081+833348404+835487322+838596133+840017920+840463391
616+842370834+845316963+846799102+845136952+840534873+835346077+832755414
606+832864616+831458439+825766809+819586833+818897488
##END=
