##TITLE=<SNM>
##JCAMP-DX=4.24
##DATA TYPE=INFRARED SPECTRUM
##DATE=2/5/2025
##SAMPLING PROCEDURE=Instrument type and / or accessory
##ORIGIN=Admin
##XUNITS=1/CM
##YUNITS=ABSORBANCE
##RESOLUTION=4
##FIRSTX=4497.3318
##LASTX=599.83466
##DELTAX=-1.4281778
##MAXY=1.8564471
##MINY=0.39411223
##XFACTOR=1
##YFACTOR=1.7289511e-09
##NPOINTS=2730
##FIRSTY=0.41264483
##XYDATA=(X++(Y..Y))
4497+238667730+237371439+237271653+238047569+238851910+238922893+238391055
4487+238171970+238754175+239662990+240299027+240497858+240148787+239190639
4477+238089749+237527177+237598695+237993220+238665524+239610813+240315402
4467+240117777+239063790+237969536+237686001+238448180+239722562+240698017
4457+241166249+241587389+242009115+241611590+239902553+237755519+236623878
4447+237097574+238508648+239621397+239689019+239019318+238436200+238334000
4437+238464520+238460866+238227802+237891003+237693913+237967382+238843395
4427+239792700+239917981+239088129+238219459+238002390+238029642+237695688
4417+237300663+237630549+238873784+240431684+241555000+241894074+241574651
4407+240872251+239905432+238840947+238222561+238573994+239580045+240232698
4397+240028816+239503391+239377318+239651407+239690018+238988394+237871853
4387+237307765+237733834+238370922+238204824+237287045+236416221+235946541
4377+235614466+235132530+234333360+233092056+231701994+230960776+231254326
4367+231920114+232102036+231840926+231729436+231942643+232225730+232479807
4357+232823241+233318863+233967276+234697428+235182346+235025504+234371231
4347+233876298+233840479+233830361+233306160+232243416+231078507+230325154
4337+230261186+230772391+231454295+231846528+231578869+230683516+229924957
4327+230235158+231488442+232362904+231877400+230605931+229810295+229843701
4317+230063268+229926594+229482357+229071921+229116652+229937057+231375263
4307+232762618+233494011+233578956+233551652+233899517+234647836+235401465
4297+235616620+234976999+233778891+232817639+232580921+232689015+232434921
4287+231665434+230812502+230290524+230213663+230524881+231025433+231327067
4277+231140474+230630494+230233279+230285767+231028088+232508559+234157506
4267+235009111+234791819+234250243+233976446+233627944+232822328+232072595
4257+232044946+232437783+232504835+232281217+232391501+233070578+234151353
4247+235455228+236589955+237071821+237018076+236988411+237019351+236555704
4237+235318744+233559616+231569061+229594019+228172707+227948743+229030914
4227+230884071+232844805+234415668+235204082+235101003+234511300+234008266
4217+233731126+233437869+233000716+232513799+232063425+231686015+231493665
4207+231703425+232517246+233790629+234794422+234760930+233785268+232683327
4197+231992149+231669554+231646128+231980944+232475842+232679276+232367696
4187+231838910+231676500+232160401+232896517+233191687+232789405+232122600
4177+231976170+232888036+234572527+235996236+236419358+236181863+235968949
4167+235767911+235246709+234625721+234338428+234277426+234124221+233979325
4157+234068011+234252277+234341376+234500837+234928596+235416841+235488048
4147+234851477+233621894+232257723+231480841+231924441+233390346+234806850
4137+235473344+235833413+236477482+237181416+237527453+237705945+238040795
4127+238234059+237689500+236390210+235027590+234286906+234327086+234935371
4117+235782580+236482394+236778254+236748158+236612622+236430976+236148492
4107+235785821+235467863+235329879+235334723+235224508+234863543+234462519
4097+234202185+233988375+233861078+234109501+234596211+234615482+233970448
4087+233566976+234286475+235692326+236460365+235909739+234578819+233426906
4077+233015919+233357147+234039052+234540673+234694894+234724490+234797800
4067+234896518+235080301+235398552+235603934+235451367+235177760+235252725
4057+235790182+236448558+236766895+236538709+236009405+235711235+235929166
4047+236346531+236400397+235937353+235265343+234664005+234220457+234025659
4037+234127979+234400655+234714303+235048292+235309643+235322346+235081697
4027+234814003+234766773+235020953+235492254+236087679+236767533+237384918
4017+237643959+237345049+236601711+235828207+235477930+235613362+235856425
4007+235957986+236152371+236769567+237788373+238849152+239535004+239718891
3997+239653200+239589749+239527644+239472519+239512768+239533884+239376404
3987+239248763+239475380+239941130+240178263+239960574+239651648+239899089
3977+240908087+242161819+243030076+243401193+243500083+243461317+243371321
3967+243450768+243943373+244829608+245664148+245890094+245448373+244768950
3957+244104938+243398608+242858014+243137378+244716239+247159822+249143431
3947+249733065+249582756+249880650+250378219+249768883+247928482+246253868
3937+246089287+248026441+251827732+255926538+257853108+256675702+254325648
3927+253228947+253735307+254411144+254346419+254489333+256130368+258740240
3917+259912923+257803879+253368999+249331971+247560881+248180266+250831576
3907+255892908+263558441+271981739+277835105+279382388+276953111+271230869
3897+264069887+258949517+258437313+261747722+264608705+263608412+261231588
3887+261837993+265296195+267894689+268685016+269783700+270437870+268255930
3878+265120306+264933885+268334670+273407499+278593474+282021597+281427878
3868+278360737+276756606+277079615+276371354+273250951+269818933+268675105
3858+271529279+279709705+292212573+300440522+295193717+282628157+272122257
3848+266875004+266966947+271056721+276898314+282820766+288405180+292555904
3838+292831906+289158515+284817561+281935583+279967729+278223650+277294477
3828+277472865+278223391+280388473+286019685+293741515+297372295+294944260
3818+291270903+288057643+282954682+276551673+272593954+273452075+278736733
3808+285128831+288774367+290748408+294929332+300344372+301470205+297870486
3798+294033031+291124766+287861069+284731737+283499344+284821009+288264782
3788+293278454+299027759+304192928+308403362+312928755+318373926+323019358
3778+325495969+327509622+331874019+340250518+352716722+367214919+380337378
3768+390764591+399624663+407475496+414684415+422503807+430621196+436263561
3758+438370640+440059371+445170174+455317833+468281986+477403823+479800901
3748+482244691+490588681+501939637+507548458+507460479+510306897+521208547
3738+539734911+559523972+570718034+570331851+565072980+561931633+563164129
3728+567955285+574272729+579856591+583328031+584080884+582062887+578896133
3718+577514293+579983733+586523743+594986946+600077996+597434977+589807297
3708+582393221+577418213+575334784+575688457+576758992+577017758+576921919
3698+577680770+579775300+583381742+588889380+596353031+603667131+606163978
3688+602609937+597777929+594902070+593480619+593223647+595869078+602882975
3678+612472389+618582641+616565748+611871293+611192077+612117164+607557366
3668+597450215+588045997+582234983+579011484+577400424+578144658+581862797
3658+586533741+588519401+588095916+590159350+597495307+606573810+608692748
3648+599783032+585824877+573450513+565430583+561930220+561281928+561451025
3638+561967349+563496704+566140929+569994725+576391805+585607964+592766653
3628+592034554+586789610+583290936+583069541+585674776+590265118+594266292
3618+595461108+595541709+596745902+598189485+598284152+597968297+598564843
3608+598592974+596542778+594737420+596669368+602444322+608756526+613118509
3598+616187563+618877743+620143714+619348664+618498317+620001679+623574749
3588+626065597+624903877+621253653+618227210+617815860+619492491+621013780
3578+621178430+620842786+621243449+623300746+627983756+635398728+643582895
3568+648741238+648095118+643472163+639178921+637123623+636017958+633602058
3558+629146372+624456881+622397653+624022848+627411756+630110830+631874681
3548+633376043+633982242+632725924+630088973+627574613+626396345+626714269
3538+627427062+626744330+623896947+620655866+619968583+622382898+624950625
3528+625030536+623634045+622659039+621431610+618574505+615132645+613463874
3518+614282781+616281540+617985199+618834581+618617047+617254341+615391617
3508+614116131+613927142+614739705+616421714+618278577+618597534+615968512
3498+611254545+607424433+606989365+609683130+612740669+613569780+612123232
3488+610380134+609722086+609511171+608424950+606122953+603000050+599783515
3478+597980983+598958541+601943063+604387164+604825542+603840813+602265331
3468+600363444+598701568+598096197+598532713+599055345+598657579+597098368
3458+595181244+594001873+593631066+592988324+591474413+590084541+590074612
3448+591092229+591509991+590411014+588349855+586166381+583951949+581412699
3438+578770852+576991902+577040649+578904544+581390221+583115599+583500954
3428+582478097+580292072+578108667+577469373+578560972+579788538+579429728
3418+577302482+574604787+572529425+571294412+570396801+569406591+568295721
3408+567695727+568815285+571879306+574761784+574885202+572522013+570074706
3398+568521666+566757540+564177058+562006925+561685830+563391006+566372805
3388+569467749+571020823+569684248+566198605+563195708+562249143+562277826
3378+561839345+561476088+561955179+561977656+560209220+558146235+558252657
3368+560248763+561440234+560423445+558559101+557562237+557367112+556799249
3358+555286786+553296472+551578644+550400101+549292299+547699165+546080521
3348+545731639+547213523+549695684+551922113+553063080+552854440+551892534
3338+551447124+552054426+552631770+551979306+550704751+550136371+550023536
3328+549241828+548183807+548111342+548575713+547953897+546270854+545229829
3318+545701474+546902185+547860506+548665174+550086107+552197426+553816002
3308+553900809+552974239+552185464+551742364+551228935+550634492+550231210
3298+550065561+550088934+550291265+550613877+551034879+551473256+551545445
3288+550963723+550137440+549899014+550818414+552764634+554629565+554850856
3278+553196772+551577127+551841719+553360732+553969758+552844064+551101828
3268+549981305+549694891+549812656+549972135+550042738+549984890+549708095
3258+549038567+548141093+547729778+548263305+549189427+549545203+549114272
3248+548468911+548138404+548237725+548595984+548793143+548290919+546948105
3238+545346008+544314015+544190976+544662724+545186219+545405269+545277162
3228+545048114+544881120+544470184+543479802+542202282+541109166+540174840
3218+539327458+538887288+538943033+538934656+538247649+536813443+535219413
3208+534374340+534433740+534305495+533108128+531579669+530944925+530997154
3198+530441116+528841846+527249126+526885696+527798235+528879664+529101507
3188+528509960+527764105+526988154+525719012+523932718+522296595+521307144
3178+520744383+520029348+518826603+517265221+515734486+514608033+514149730
3168+514368574+514740243+514409702+513056304+511413320+510662156+511286764
3158+512533292+513023518+511961257+509654123+506894960+504251666+502045197
3148+500531528+499768401+499449754+499149136+498752818+498450546+498258454
3138+497876615+497209052+496643326+496562484+496840417+496969903+496563449
3128+495623020+494341743+492847999+491274516+489944285+489238110+489248073
3118+489658250+489917705+489637635+488981448+488425513+488045949+487475880
3108+486590231+485667384+484884745+484184190+483572441+483163056+483019987
3098+483082214+483038466+482438093+481260825+480154850+479767185+480040809
3088+480380796+480373177+480125305+479848510+479391689+478548927+477638215
3078+477200355+477201079+477089140+476530654+475644178+474693235+473867089
3068+473214970+472652244+472032117+471181357+470093343+469221105+469128230
3058+469701782+470270059+470531892+470665757+470574468+469776247+468103925
3048+466101132+464633244+464092202+463969956+463488417+462652342+462159978
3038+462260574+462388164+462062795+461461939+460862635+460145325+459125019
3028+457869425+456539504+455320488+454464177+454002116+453579355+452893865
3018+452036106+451273635+450856218+450917100+451190345+451095264+450374472
3008+449398811+448694842+448339169+447897241+446981910+445858077+445221231
2998+445302901+445523606+445125944+443965947+442692599+442200924+442720971
2988+443357887+442820844+440830564+438548459+437388118+437590552+438140040
2978+437980975+437025998+435884859+435006829+434438932+434167583+434177891
2968+434173478+433737411+432908921+432148242+431654775+431232153+430808427
2958+430495054+430136692+429326129+427936981+426413968+425446512+425265900
2948+425299409+424818629+423910123+423348397+423499533+423852068+423748576
2938+423135275+422327298+421421550+420333054+419214530+418432822+418107556
2928+417913189+417437579+416653940+415912602+415428925+414951557+414141752
2918+413130651+412375833+412032260+411807659+411468776+411133236+410941902
2908+410772392+410444953+409949107+409341288+408620393+407795867+406993267
2898+406453363+406337563+406458327+406367763+405815482+404922559+403948828
2888+403207007+403012157+403280989+403377794+402817825+401890704+401170360
2878+400752840+400390203+400011432+399654311+399185493+398532857+397929106
2868+397540510+397136504+396473147+395748873+395380341+395469940+395660446
2858+395469561+394767971+393907971+393248303+392691402+391982677+391241303
2848+390759144+390498793+390216447+389879114+389672130+389746560+390034973
2838+390158082+389617488+388331384+386869874+385943924+385719737+385734458
2828+385439184+384740594+383964125+383374474+382931236+382516198+382158388
2818+381923996+381715012+381303628+380574769+379680192+378908929+378434768
2808+378199755+377994046+377665091+377269014+376925614+376550222+375925027
2798+375047308+374230884+373786232+373666916+373498509+372992941+372251705
2788+371536912+370915682+370368745+370031551+370004730+370061026+369785300
2778+368958464+367735311+366497712+365521396+364776851+364081122+363356676
2768+362683459+362235222+362185544+362492401+362767576+362517637+361553696
2758+360152689+358884650+358237943+358248148+358466854+358402973+357994588
2748+357553488+357276072+356985004+356429551+355670183+354997034+354576584
2738+354353052+354225910+354131519+353953975+353522976+352796461+351977934
2728+351329642+350908985+350612125+350363944+350069808+349550588+348796769
2718+348115830+347751642+347529799+347112279+346425375+345660318+345024609
2708+344630566+344470226+344367457+344059083+343435682+342672934+342064908
2698+341696101+341314124+340638355+339779631+339157057+339003680+339180982
2688+339415271+339457157+339110999+338391586+337593641+337024571+336705889
2678+336410064+335992268+335635009+335608429+335804727+335799659+335422060
2668+334952105+334696821+334609256+334370314+333758633+332933660+332291573
2658+332025913+331961825+331819997+331480734+330998919+330490593+330024154
2648+329600084+329210246+328858366+328525411+328170221+327788968+327476595
2638+327358486+327366863+327214624+326755045+326181700+325700195+325266645
2628+324815409+324477007+324402508+324519721+324576776+324398785+324057557
2618+323743184+323525443+323350313+323194006+323060383+322891113+322630452
2608+322333144+322081205+321832162+321471249+320995329+320512169+320089340
2598+319757179+319585186+319536853+319344795+318804270+318126537+317740423
2588+317777690+317949856+317917450+317624141+317230822+316845329+316439254
2578+316004531+315643997+315442563+315359204+315314249+315269122+315176179
2568+314989120+314732906+314428462+314033489+313622346+313432254+313532402
2558+313669887+313588768+313286014+312898969+312551535+312310662+312153183
2548+311998186+311795993+311551638+311315212+311166352+311135394+311173764
2538+311232750+311260639+311152217+310882765+310616450+310481034+310350135
2528+310036348+309588559+309259156+309247607+309508923+309763172+309731973
2518+309407775+309020282+308749761+308616104+308602176+308674642+308725216
2508+308685811+308651337+308729008+308837085+308788269+308530642+308205410
2498+307973224+307856839+307776789+307664506+307498684+307307867+307172831
2488+307138391+307142976+307138322+307168729+307213787+307142425+306942714
2478+306778926+306719871+306636650+306454659+306298007+306279805+306294801
2468+306168280+305961640+305950126+306251605+306637236+306775651+306539949
2458+306042172+305489478+305036863+304726317+304564563+304588971+304742968
2448+304791060+304560598+304210441+304072440+304260464+304568424+304714147
2438+304602002+304368265+304209545+304177277+304167210+304080162+303909824
2428+303702046+303529502+303487995+303629650+303903446+304196789+304409255
2418+304479997+304404843+304266359+304213440+304338514+304546739+304627651
2408+304512162+304359750+304331688+304417116+304559150+304804298+305207511
2398+305669917+305975981+305981704+305735729+305440903+305322380+305460209
2388+305669607+305599934+305031519+303991977+302520503+300482512+297735001
2378+294352816+290596307+286739357+282977711+279431359+276174109+273261810
2368+270736315+268611620+266867247+265540963+264936678+265594140+267885967
2358+271754363+276849170+282853189+289765783+297483579+304862905+310004804
2348+311680504+310261501+307580560+305513265+304389743+303469103+302353509
2338+301170174+300052201+298923370+297632060+296180651+294839561+293990076
2328+293755649+293812601+293731138+293524395+293662155+294506400+295909579
2318+297329064+298203612+298369262+298215782+298292005+298769269+299452656
2308+300166932+300865868+301469446+301850148+301966292+301889690+301739692
2298+301649610+301726040+301973015+302283595+302536913+302687360+302757515
2288+302782854+302783406+302773339+302766582+302748966+302658815+302439247
2278+302113981+301783784+301546083+301413425+301280837+300996905+300524984
2268+300021898+299716110+299722798+299966395+300233365+300322033+300204027
2258+300025311+299922095+299902858+299933334+300020140+300143076+300214783
2248+300188548+300107878+300002455+299847251+299664950+299550116+299563940
2238+299686255+299853698+299995353+300079264+300135044+300175930+300148764
2228+300029862+299888827+299797883+299763133+299770718+299825739+299923233
2218+300018692+300057717+300060131+300131010+300310139+300470239+300470997
2208+300351061+300255532+300225022+300168139+300048375+299990320+300101328
2198+300260220+300262978+300143559+300130527+300305209+300506230+300556046
2188+300442314+300293488+300246637+300314483+300388569+300406358+300441384
2178+300560389+300692840+300739139+300716421+300695081+300677671+300637474
2168+300583522+300508954+300386914+300279181+300327032+300571869+300881243
2158+301088400+301151040+301160865+301230469+301394775+301618100+301849355
2148+302028070+302094813+302060201+302022451+302048652+302079368+302041102
2138+302003007+302085195+302252223+302366747+302410495+302471102+302569698
2128+302664779+302752689+302856733+303007559+303271047+303693738+304210993
2118+304656299+304875074+304870489+304837600+304972568+305275081+305602451
2108+305819916+305861319+305801334+305872041+306238366+306783856+307246537
2098+307496374+307590696+307669056+307880971+308311005+308865871+309283840
2088+309360683+309156388+308902070+308751347+308712736+308770756+308938061
2078+309176486+309363510+309399605+309325244+309272773+309334758+309566703
2068+310033418+310659991+311121156+311140048+310856047+310648614+310662059
2058+310725355+310701774+310705394+310905001+311246505+311514957+311632412
2048+311734008+311956782+312320832+312776757+313174696+313270569+313003151
2038+312686296+312694983+313031316+313374130+313496894+313471589+313473486
2028+313559051+313717186+313990913+314403813+314899694+315492413+316256057
2018+316992190+317216480+316728184+315915001+315313077+315125915+315204241
2008+315269915+315171628+315026904+315045934+315236785+315417466+315459455
1998+315472969+315875976+317125571+319039145+320566191+320749767+319760247
1988+318479866+317508445+316987501+316862049+316950613+317064689+317205552
1978+317470833+317821266+318089063+318163011+318186523+318595528+319664994
1968+320893560+321306599+320649550+319710397+319246026+319280432+319567948
1958+320067173+320725532+321279054+321496484+321408953+321270745+321394060
1948+322010050+323293396+325286295+327360830+328117682+326822373+324569226
1938+322996916+322598632+322837058+323140467+323326974+323431914+323505862
1928+323731290+324640761+326576053+328784797+330107065+330708920+331498626
1918+332021810+331025533+328933106+327550439+327788692+329029979+330034427
1908+330011674+329163878+328304223+327969132+328082828+328353729+328751564
1898+329538995+330730225+331760287+332354834+333255169+334899669+336083556
1888+335476185+333733639+332400685+331946311+331951207+332074625+332217108
1878+332359798+332528550+332860884+334004057+337131200+342548482+347944664
1868+349451956+346218632+341510387+338402136+337406479+337541791+337852647
1858+337921458+337779527+337683447+337872573+338605156+340208631+342841549
1848+346547242+351268312+355634536+356542317+352996275+348321987+345760915
1838+345502632+345951145+346318677+347771223+351677076+356901576+360060539
1828+359937568+358758887+357690903+355607094+352484364+350209636+349836381
1818+350529593+351161200+351867133+353555899+356209363+358330783+358547834
1808+357313339+356327438+357080084+360106321+364442311+367741413+368282248
1798+367073401+366891238+369700768+374907273+378640029+376950642+371534499
1788+367412561+366882792+368745171+371047409+373124392+374717422+375268875
1778+375386605+377216234+382412465+390037835+395930070+396258509+392151188
1768+386856601+382405915+380543777+382287943+385882112+388002946+388175594
1758+388243888+388500102+388848397+391270572+397541682+405597362+410252689
1748+409295403+405649143+402744808+401900977+402899495+404536514+405306053
1738+405864160+409349976+416866441+423035334+421371424+414578164+407807657
1728+402727295+400118062+400320116+402319152+405632905+412047774+423180334
1718+435933192+441867935+437329029+428273624+420752022+417130515+417996651
1708+422895437+429642053+435223743+439703422+446354579+455859530+463000120
1698+463812339+459983709+452580699+443793161+438481682+438795468+443152902
1688+450021626+460413950+473615391+480934662+475961722+466411643+460318835
1678+459804166+463773486+468852262+472235861+475295779+479711198+482253379
1668+479128063+473948104+472523413+475330564+478066767+477506419+475972823
1658+477999817+486665695+502880755+520899931+525550363+518150352+514635751
1648+518024383+520414186+514781612+505671496+500174786+500296308+505895649
1638+516254361+527401641+530623623+523481758+515071473+512088157+514449347
1628+518886485+522956608+526746316+529878010+530446183+529439322+530933618
1618+536214725+540642003+539141571+534516065+531888457+532287464+534043765
1608+535570880+536723395+538128471+539840644+541148088+541637867+541894598
1598+542802310+544550096+546570609+548234898+549393550+550254963+551035224
1588+551883157+552891087+553992821+555052532+556344289+558966589+564355153
1578+572509775+579578451+580191131+576706453+576252804+580602756+585103741
1568+585037205+582289798+581066575+583487303+591637063+608144466+628946214
1558+635810698+624641664+612304843+605826266+604128192+604965163+606606354
1548+609214898+615002745+625521797+639830419+655578970+667739765+667152320
1538+655857662+647632333+648031961+652977597+655465549+654794194+656362782
1528+662913342+672389266+682112785+692141680+702055705+708482433+710639775
1518+711673389+712067707+710404798+708570205+710625779+718846006+732902481
1508+748715155+754943379+744859049+731075611+724323238+725400564+731521021
1498+738158526+740530713+738563463+737626723+741888110+750351037+757364658
1488+757868950+753320666+748589530+746428740+746626072+747907763+750248786
1478+754928831+762512521+771850961+780089942+782971386+779188642+773735128
1468+771967416+774871061+779433134+782101388+783811321+788712141+798673534
1458+809603177+812059344+804305143+795297313+790328441+789302274+790122422
1448+790070917+787796637+784582859+782312165+781669906+783178439+787920331
1438+795462790+801413495+801241260+797347647+794678496+794316584+794607065
1428+794729174+795523258+797270148+799113428+801051306+804140010+807437216
1418+807313729+802886519+797592553+793996454+792087948+790910921+790125593
1408+790341334+791842766+793377706+793704662+793996385+796217367+800122357
1398+803959502+807000700+809012767+808960091+807225612+806475310+808201653
1388+810560395+810692156+809038279+808920928+812107332+817367789+822677614
1378+827526652+832522277+837147990+839504181+839339531+839106415+840531657
1368+842934320+845589336+849097042+853189298+855562381+854773537+852349087
1358+850334606+849048640+847751436+846173057+844951696+844691966+845092283
1348+845362839+845313126+845725717+847695311+851550796+856075499+858932053
1338+858592272+855733237+852195124+849442339+848291099+848925360+850688107
1328+852362532+853006997+852652117+852402522+853725238+857120696+861436001
1318+864857866+866698113+867748894+868904685+870098259+870776992+871013832
1308+871540877+872781130+874436180+876006560+877247847+878090885+878451075
1298+878259259+877648096+876918961+876151146+875080300+873721869+872697564
1288+872254981+871594175+869927680+867554113+865242463+863162482+860984041
1278+858750303+857142553+856755887+857444894+858507051+859263697+859501984
1268+859556385+859873412+860466373+861144761+862148174+863836940+865801570
1258+867074987+867387257+867613754+868683014+870408391+871848458+872733831
1248+873829016+875681259+877884935+879980086+882228234+884952957+887766624
1238+889916726+890955649+890950822+890640966+891322732+893749045+897028737
1228+899484697+900825685+902357867+904828720+907365282+909001922+910207218
1218+912143165+915170643+918678625+921815387+923958595+925072326+925913917
1208+927208708+928828249+930512395+932679046+935421902+937717832+938994973
1198+940304588+942798125+946152007+949348272+952165662+954904726+957361652
1188+958947201+959792997+960990364+962804892+963618351+962426569+961328834
1178+963103855+967351107+971041873+972375966+972397685+972666241+973115443
1168+973085864+973155295+974528620+977278164+980182844+982116378+983084972
1158+983845203+984923081+986159749+986976655+987148131+987328846+988615985
1148+991584925+995950769+1000823044+1004698662+1006481336+1007108978+1008430522
1138+1010192304+1010239121+1008150451+1006127352+1005679943+1005748340
1130+1005179719+1004952946+1006191820+1008456929+1011277215+1015356853
1121+1020905103+1026205895+1029096647+1028550916+1025118846+1021509095
1113+1021059479+1024127775+1027259365+1027082718+1024106814+1021531435
1104+1022022696+1025941752+1031231374+1035184146+1036777762+1036720052
1095+1036062279+1035982023+1037358381+1039170013+1038843195+1035726843
1087+1033137122+1034996329+1041148295+1047270476+1049206768+1046553752
1078+1042060627+1038994469+1038511689+1039326803+1040718399+1044124199
1070+1050281199+1056529073+1058926013+1056554032+1052643733+1051271512
1061+1053563787+1057458091+1060715375+1062833347+1064064706+1064729580
1053+1065290342+1065349707+1063896402+1062053949+1062201293+1064069877
1044+1065222151+1064330435+1062055673+1059556206+1057691138+1057136789
1035+1057939630+1059177607+1059672798+1058861683+1057051775+1054917461
1027+1053256758+1053542137+1057396174+1064431514+1071268901+1073741823
1018+1070679250+1064654288+1059028471+1055806488+1055545241+1057490221
1010+1059683348+1060197017+1058902777+1057351495+1056921599+1057481671
1001+1057313022+1054668280+1049986925+1046104067+1045554544+1047766425
993+1049936247+1050621944+1050884019+1051560753+1051478565+1049137061
984+1044733225+1039772282+1035531924+1032460181+1030854154+1031103267
975+1032777898+1034310081+1034601321+1034158462+1033771934+1032975574
967+1031002464+1028582495+1026869528+1025566187+1023449180+1020139149
958+1016611379+1013783922+1010864073+1006375637+1000902542+996907849+995771364
948+996485675+996950046+995645946+992562827+988975691+986182295+984460089
938+983048981+980912185+977763495+974304329+971205213+968683821+966982920
928+966190283+965842850+965429915+964950651+964514756+964150982+963996329
918+964214759+965072691+966831439+968780211+969111649+967179218+964887701
908+964308599+964968509+964672166+962407608+959396127+957747352+958702156
898+961326627+962824198+961513686+959408262+959829057+962950443+965653723
888+965163152+961223480+955747075+951889866+952092300+955695846+959128054
878+959216101+956105265+952785237+952139048+954066032+955214927+952572805
868+947178243+942748137+941551943+942954708+945004973+946481583+947478239
858+948453866+949127911+948875765+948028521+947197824+945651576+942514056
848+938762063+936448345+936429039+938017208+940486544+943173621+944624927
838+943774442+941635923+940105464+939705560+939857592+940402909+941269873
828+941609929+941028621+940380018+940232192+940557079+942194478+946343961
818+952089818+956368994+957114608+955212997+952941475+951839258+952751038
808+956049692+960341003+962301013+960041765+955951095+953916757+954885489
798+956833779+957930549+958104300+958055553+958217308+958788204+959928275
788+961594977+963117851+963178802+961132605+958278327+956360789+954873286
778+951880972+947753483+945651714+947701634+952281220+955761761+956728907
768+957126191+958938237+962267780+966849297+971904493+974273647+971576503
758+966989194+965096271+965037182+962965267+959042005+956754901+957303941
748+958618521+958701467+957770174+957337795+958567016+961520236+965170460
738+967906146+968919281+968958306+968882049+968968442+969810377+971772939
728+974059560+975574643+975046150+970970580+963733841+956778551+953749487
718+955107160+958456836+961144189+961637794+960493104+960031905+961720808
708+964325009+964634451+960926517+956143118+955310973+959174801+962493588
698+960389267+955051863+952194483+953124810+953994256+951271326+945866697
688+941213886+938303829+935506365+932859968+932333957+933036891+930888443
678+924788326+918578236+916071667+917694449+920759710+920539418+914361321
668+907694375+910035397+919058810+925686179+926249009+920781705+910703719
658+899435744+891210966+888271123+889956096+893767454+896238996+894780451
648+891160496+890318836+894043456+898428469+898587120+895435190+894160325
638+896806032+900471977+903011434+905055976+906000783+903945140+899042873
628+894150465+891622109+890737356+889148015+886542574+885879147+889500620
618+895571640+899527584+897336525+888981779+878016421+868639507+863622647
608+864283384+871279768+882552018+889727875+883890178+869869004+861651811
##END=
