##TITLE=<SNM>
##JCAMP-DX=4.24
##DATA TYPE=INFRARED SPECTRUM
##DATE=3/5/2025
##SAMPLING PROCEDURE=Instrument type and / or accessory
##ORIGIN=Admin
##XUNITS=1/CM
##YUNITS=ABSORBANCE
##RESOLUTION=4
##FIRSTX=4497.3318
##LASTX=599.83466
##DELTAX=-1.4281778
##MAXY=1.7506812
##MINY=0.18648203
##XFACTOR=1
##YFACTOR=1.6304489e-09
##NPOINTS=2730
##FIRSTY=0.20723926
##XYDATA=(X++(Y..Y))
4497+127105644+127554054+128529830+129197556+129091230+128485979+127835727
4487+127400139+127429577+128121102+129191214+129896722+129686883+128673920
4477+127399527+126322671+125720537+125866089+126787578+127883508+128341661
4467+128007656+127458576+127317273+127782555+128573945+129133746+129164189
4457+128944937+128825550+128656729+128113087+127296865+126592764+126149380
4447+125894485+125876737+126101463+126128835+125440070+124276089+123569466
4437+123882066+124742193+125209961+124887289+124155030+123560902+123335618
4427+123489890+123952960+124520693+124916215+124911197+124354952+123300048
4417+122113849+121258073+121031976+121482689+122254832+122680221+122416351
4407+121782815+121171633+120530438+119733683+119037223+118863951+119315378
4397+119990488+120326184+120181482+119941273+119981669+120230715+120243985
4387+119580417+118264221+116924491+116259525+116361099+116741952+116904540
4377+116726616+116446433+116399219+116696520+117193196+117758927+118350633
4367+118784403+118742225+118150565+117371759+116893363+116924171+117323385
4357+117808682+118174537+118355166+118359791+118181958+117854716+117545963
4347+117391144+117297959+117135792+117005822+117072685+117264400+117405821
4337+117429629+117226207+116600731+115627414+114755534+114374654+114526631
4327+115067394+115756324+116174474+115946924+115185977+114497102+114415077
4317+114933851+115597721+115893688+115588234+114926348+114578497+115102636
4307+116246044+117034565+116773473+115776412+115001573+115129661+115958632
4297+116583047+116397793+115967561+116422168+117934201+119367289+119576862
4287+118580889+117335568+116775420+117119231+117772070+117932419+117488258
4277+117060950+117049937+117176041+117208851+117478068+118231201+119073543
4267+119510556+119644328+119921176+120365547+120417065+119675228+118592358
4257+118032430+118268626+118885236+119502651+120079213+120627836+121038026
4247+121133129+120835874+120401373+120305209+120711351+121298953+121709070
4237+121823576+121623160+121156398+120637322+120295531+120169610+120215708
4227+120549384+121376418+122586123+123572774+123733123+123103965+122272288
4217+121755031+121707717+122019897+122425024+122697458+122857231+122993288
4207+123050692+123092020+123407069+123971540+124291754+124177659+124090059
4197+124376758+124710096+124586862+124004871+123431042+123264716+123439286
4187+123554916+123360514+122965751+122633336+122618119+123122746+124089656
4177+125112015+125797728+126109030+126215677+126219068+126151473+126060089
4167+125965662+125820082+125576438+125292946+125125304+125187277+125433965
4157+125700175+125859829+125940721+126060199+126253166+126446654+126589291
4147+126658905+126575957+126296678+125921949+125527085+125060241+124619050
4137+124542509+124939465+125386322+125410550+125118193+125045234+125441112
4127+125990859+126298771+126362774+126435477+126655177+126972219+127282041
4117+127479560+127472641+127284061+127113622+127123685+127155544+126907330
4107+126463123+126348389+126974239+128231688+129545681+130168360+129714292
4097+128614962+127758464+127580960+127782400+127872732+127710610+127551824
4087+127711689+128200221+128757344+129198150+129505121+129624499+129439007
4077+128943182+128254253+127500772+126850876+126497451+126435249+126391480
4067+126147799+125848167+125852901+126318357+126971022+127330096+127230349
4057+127037336+127168102+127550133+127774165+127605289+127128135+126583004
4047+126242327+126239823+126398938+126432086+126319865+126249264+126263439
4037+126277011+126354941+126656557+127130539+127512333+127615772+127504410
4027+127421406+127606825+128145010+128945010+129771120+130290004+130312999
4017+130012910+129601614+128954003+127975211+127048925+126663941+126883038
4007+127422713+127955854+128326389+128694483+129264922+129793265+129777911
3997+129149621+128337576+127751180+127546231+127721998+128176587+128754328
3987+129279499+129541038+129438496+129167049+129052004+129213523+129589321
3977+130197277+131081111+131984439+132415403+132192468+131664838+131253140
3967+131095889+131252363+131804432+132586866+133188058+133351405+133132838
3957+132723699+132412844+132578978+133450008+134860751+136173264+136566126
3947+135930286+135316592+135742812+136790660+137119501+136269949+135101151
3937+134650236+135429334+137328764+139421545+140251576+139228038+137491233
3927+136663624+137183476+138174761+138779152+139271825+140429628+142145513
3917+143131424+142203968+139734447+137288514+136096713+136396957+138051655
3907+141222663+145924321+151069555+154772763+155938718+154599006+151206653
3897+147083065+144418959+144633468+146940200+148552683+147712955+146446824
3887+147333436+149582271+150688940+150861563+151697342+151924253+149747848
3878+147256182+147624706+150973272+155370272+159334553+161458965+160498534
3868+158178541+157540764+158499550+158176421+155304140+152068809+151180268
3858+154048327+161194674+171193087+177171432+172713007+162994477+154909925
3848+150701744+150400138+153170844+157732214+162918895+167829002+171203652
3838+171640931+169441887+166484483+163761483+161194437+159158676+158486846
3828+159049333+160022322+161942909+166227339+171551329+173680859+172145804
3818+170505226+169098597+165569109+160633923+157538369+158278561+162741172
3808+168351240+171845358+173885835+177350379+181237287+181682627+179156926
3798+177043756+175620620+173707436+172106340+172441003+174915980+178663971
3788+182989674+187580198+192183773+197023179+203008908+210419546+217906717
3778+224243816+230301124+237713992+247159074+258224153+269268741+278095348
3768+284173348+288472749+291679675+294902173+300042353+307843349+316965576
3758+325961060+335595271+348049285+364706098+384173501+401396658+413215491
3748+423508865+436219401+449112577+456628846+460430137+467391176+480466845
3738+498399724+517027298+530830127+537597486+540610530+544086608+549438143
3728+555757604+561070279+563547906+562870903+559564158+554066979+547551207
3718+542078704+539375226+539999074+542856056+544997942+543596778+538773714
3708+532746565+528144196+527464123+531200268+536520072+540076356+541889520
3698+544068403+548079897+554020734+561000893+568049304+573972557+576679983
3688+575623773+573714646+573688654+575760058+578777233+581903056+585668265
3678+590819430+594995213+594090459+589926557+587430213+586123439+581621091
3668+573819565+567269721+564505632+564256860+563708538+562278604+562347514
3658+565457618+569904179+574108623+580129630+590143744+601200578+604669308
3648+596403616+583656998+573996246+569225239+568127646+568797703+569656212
3638+570138877+570630973+572014188+575771756+583361616+593772594+601311347
3628+600875183+596277713+593400113+594016394+598410569+606016807+613323019
3618+616534605+617104605+618740613+622088740+625787890+629267770+631814491
3608+632104024+631022516+631074427+632920931+635025675+636205595+637309111
3598+639235456+641010747+641221170+640808585+642573640+647487659+652921082
3588+654589114+651351024+646876861+644955853+646042480+647910406+648230282
3578+646871524+645429050+644800924+644518118+644620478+646497471+650473066
3568+653297987+650951965+644889904+640365951+639517824+640192012+639568273
3558+637395752+635786650+636526275+638921576+640630771+640990494+641914514
3548+644527842+646724783+645693578+641765799+637373817+633970123+631999836
3538+631654005+632060667+631689246+630501356+629756247+629528642+628324448
3528+625572715+622901626+622072070+622895777+623963028+624392941+623907827
3518+622190296+619506559+617117985+615933386+615715870+616070036+617055545
3508+618555414+619770356+619696291+617993384+615364702+613065546+612125039
3498+612896213+614596196+615534912+614573531+612017415+609079240+607074808
3488+606701596+607426635+608087882+608365753+608862419+609656624+609828918
3478+608720760+606762793+604843357+603566853+603226396+603861284+604948532
3468+605392848+604444737+602535391+600875512+600468484+601392394+602793156
3458+603682191+603597634+602451200+600262886+597468746+595255098+594768376
3448+595841366+596715814+595496449+592254776+589088191+587848427+588125859
3438+588116355+587354503+587161115+588176528+589100036+588613459+587362911
3428+586954457+587637967+587846124+586138354+583127138+580780129+580084628
3418+580252645+580101116+579316086+578243388+577201143+576461737+576436476
3408+577120461+577597898+577000444+575650569+574428096+573598942+572898214
3398+572176685+571426202+570411191+568713804+566429674+564628391+564312390
3388+564926478+564951958+563985934+563141975+563336459+564179176+564814686
3378+565208480+565989050+567165278+567754433+567053522+565736915+565100490
3368+565449648+565648263+564421440+561945458+559880451+559855519+561907841
3358+564229186+564799186+563503306+562050450+561925571+563278882+565247450
3348+566554224+566546072+565981373+565918202+566169313+565954978+565438242
3338+565361107+565682700+565594159+564586423+562936779+561278435+559974476
3328+558983191+558165334+557524742+557266063+557574204+558299426+559085881
3318+559593039+559275137+557632769+555296398+553874615+554108801+555069634
3308+555574196+555613714+555861938+556358202+556311262+555238345+553861967
3298+553302166+553688795+554325841+554967968+555852798+556751045+557084666
3288+556794658+556231568+555410200+554188934+553076023+553133491+554734221
3278+556875450+558112326+557940909+557012100+556223123+555898166+555692897
3268+555084988+553955882+552806158+552530078+553668250+555388741+555720461
3258+553583145+550115548+547313329+546011674+545672277+545515373+545478633
3248+546191352+548011791+550227998+551524243+551173111+549464391+547141181
3238+544914226+543421815+543082016+543655635+544225269+544064966+543365115
3228+542711765+542277283+542024965+542066128+542203035+541719273+540233260
3218+538367307+537014216+536237704+535372944+534096659+532879085+532133245
3208+531531111+530665802+529773843+529217698+528873183+528542377+528453324
3198+528848324+529456490+529832956+529764265+528921914+526955246+524482993
3188+522799461+522013261+520867815+518930429+517341471+516878401+516820969
3178+516206479+515076716+514026172+513301791+512685107+511862753+510818094
3168+509936627+509605346+509717430+509724559+509118185+507719689+505688096
3158+503430835+501257327+499134743+497126692+495847483+495808951+496425452
3148+496422418+495282747+493704390+492564061+491978013+491488585+490855195
3138+490352241+490204623+490117398+489639741+488714625+487604748+486538960
3128+485693026+485170916+484743270+483977031+482866752+481990184+481744995
3118+481775337+481453451+480656321+479776317+479095402+478421616+477375130
3108+475888458+474360477+473368607+473195509+473475720+473370325+472362407
3098+470828869+469562454+468946356+468881577+469131043+469388186+469411217
3088+469317192+469358465+469442145+469251682+468667278+467795206+466780817
3078+465745663+464784502+463918498+463056955+462004071+460714844+459633958
3068+459328084+459707365+460111651+460036124+459221154+457458804+455048990
3058+453023502+452241507+452491851+452775206+452267536+450969865+449611436
3048+448893709+448817889+448854702+448576721+447887362+446935157+446086883
3038+445692285+445710015+445768726+445530483+444786324+443427274+441610235
3028+439760477+438276511+437369600+437031300+436911355+436449711+435404468
3018+434133557+433283529+433280604+433904964+434247432+433495414+431896402
3008+430462081+429697560+429189122+428447304+427531948+426659254+425745434
2998+424682278+423734094+423296540+423383254+423593458+423495960+422866555
2988+421695993+420193639+418732557+417657446+417083315+416862400+416751705
2978+416598092+416295362+415618907+414338747+412624507+411087533+410170459
2968+409686149+409233644+408845041+408777739+408855314+408645731+408204778
2958+407941310+407814749+407379865+406574620+405782864+405161245+404472873
2948+403539093+402441682+401316049+400253697+399450389+399162355+399294692
2938+399257660+398557333+397460727+396758390+396856766+397336140+397390208
2928+396546541+395059285+393725641+393163355+393161527+392951725+392181904
2918+391269180+390714717+390519941+390376380+390016036+389315198+388390118
2908+387601068+387240540+387196124+386983690+386166198+384845459+383670109
2898+383179328+383228022+383204077+382668587+381677595+380653079+380007150
2888+379780752+379666474+379351095+378689007+377711029+376701356+376024463
2878+375687223+375343146+374743023+373888937+372929384+372181278+371913459
2868+371911485+371671378+371078749+370460091+370023708+369656710+369208556
2858+368719420+368377720+368282343+368231455+367877691+367143037+366340132
2848+365821897+365601823+365398272+365017200+364541115+364124875+363798346
2838+363500149+363112314+362459841+361483142+360392568+359498379+358896538
2828+358376182+357668983+356810182+356148935+355928678+355990057+355975837
2818+355708128+355264690+354742689+354095188+353286872+352456146+351737907
2808+351085763+350458186+349955414+349564545+349014140+348104085+347016289
2798+346142425+345708382+345624117+345590850+345285342+344539392+343484571
2788+342492445+341856203+341537388+341248988+340728231+339914651+338949943
2778+338042849+337289113+336631924+335998497+335383532+334752482+333982806
2768+333010750+331968468+331089743+330534037+330299157+330171426+329798908
2758+329008103+328026907+327273025+326976692+326991498+326856382+326171995
2748+325031082+323862750+322869783+321961666+321140116+320541309+320152779
2738+319795140+319337371+318796142+318265550+317761536+317163972+316411113
2728+315643778+314988161+314353491+313631377+312914454+312326066+311804650
2718+311253660+310763684+310460515+310219165+309753938+308961999+308014912
2708+307157865+306537544+306138029+305772109+305232397+304540826+303947009
2698+303590047+303298119+302852469+302303727+301846926+301515919+301186959
2688+300761762+300202803+299517629+298795223+298148197+297607845+297128123
2678+296626814+296032942+295383997+294798387+294280774+293705455+293037610
2668+292407967+291982405+291867250+292031044+292231250+292169468+291778032
2658+291222691+290629752+289969876+289234345+288598232+288273896+288201860
2648+288064862+287691083+287251684+286943890+286672965+286195711+285457255
2638+284652796+283988241+283484885+283068462+282750469+282565691+282402719
2628+282108543+281739571+281521306+281546841+281631435+281498495+281077465
2618+280556818+280131603+279824687+279597703+279430253+279215516+278820168
2608+278344888+278085185+278135031+278227704+278069301+277682124+277310612
2598+277092822+276965786+276835752+276686726+276533716+276389955+276272259
2588+276158402+275963058+275617885+275170553+274776887+274579515+274593187
2578+274718615+274807156+274674801+274201879+273537890+273043564+272899492
2568+272941204+272973612+273039177+273264680+273646520+274122239+274683300
2558+275258108+275612054+275539214+275099029+274560304+274158101+273920260
2548+273655312+273131356+272344042+271559634+271041015+270812003+270731303
2538+270702624+270732144+270830300+270967627+271115281+271209050+271120948
2528+270824688+270511557+270366224+270338057+270268726+270100362+269862082
2518+269597993+269358580+269159910+268968021+268780464+268649937+268584481
2508+268510928+268396650+268321653+268354317+268422990+268402390+268283524
2498+268157731+268055407+267888103+267543369+266985762+266274889+265532650
2488+264901490+264473076+264201474+263947840+263673131+263492922+263467003
2478+263456182+263284089+262945625+262573052+262253067+261930376+261493829
2468+260963493+260546668+260423342+260497316+260479257+260223667+259847000
2458+259519959+259333079+259357755+259588778+259790428+259644912+259117483
2448+258506667+258116455+258004407+258015813+257935442+257626662+257135954
2438+256691181+256513568+256581089+256640568+256504210+256252641+256083637
2428+256054190+256049127+255952854+255790357+255693608+255759119+255969707
2418+256236209+256456283+256558826+256565370+256573449+256612382+256590905
2408+256456320+256307294+256271889+256346045+256405121+256342755+256201699
2398+256167664+256357670+256634225+256748448+256647623+256509455+256479716
2388+256488636+256320217+255771165+254712139+253049975+250735959+247859858
2378+244656880+241358324+238093090+234964068+232101895+229545542+227170749
2368+224898592+222946766+221678889+221210336+221443333+222487882+224713484
2358+228378234+233420513+239634598+246957388+255199629+263289025+269447213
2348+272418472+272430829+271113033+269960805+268857545+266978121+264193450
2338+260833770+257159059+253407303+249841715+246731794+244377145+242931527
2328+242163880+241573591+240833637+240135577+240004008+240676002+241810756
2318+242885574+243664992+244253764+244909600+245816164+246899537+247898060
2308+248662343+249295678+249962500+250685053+251394829+252052091+252615291
2298+253014167+253264657+253501803+253818389+254186739+254573222+254987488
2288+255388283+255670120+255792880+255847843+255934776+256005094+255901765
2278+255553156+255044334+254508698+254047895+253739553+253619773+253647996
2268+253715297+253693893+253539987+253380379+253387800+253516810+253515860
2258+253276830+252990130+252845949+252774480+252608492+252336817+252084389
2248+251956823+251968174+252060865+252180626+252330072+252527828+252762306
2238+253005155+253217699+253376010+253533974+253789655+254174565+254635753
2228+255071295+255370845+255563264+255904288+256629985+257662799+258719338
2218+259654873+260565075+261589846+262766513+264103592+265650711+267394087
2208+269198532+270945747+272636920+274329628+276046811+277741127+279351819
2198+280930469+282622062+284470796+286339618+288050623+289571202+291075128
2188+292752628+294532836+296138977+297388154+298265618+298844611+299303898
2178+299839113+300450587+300934989+301077306+300830197+300364550+299895302
2168+299454385+298919700+298167353+297120007+295787369+294280171+292739120
2158+291297469+290019630+288824758+287649353+286593179+285728930+285021823
2148+284476499+284144048+284397956+286374256+291208361+298576702+306927481
2138+315226660+323543715+332090021+340653325+348897193+356756662+364551900
2128+372668110+381182574+389961237+398779126+407179093+414664801+421032407
2118+426196989+430030377+432594718+434223926+435493667+437446772+441548855
2108+448936554+459666347+472874244+487451939+501990372+514365532+522580775
2098+526063287+525516136+522193342+517367609+511463366+504030885+494786958
2088+483653792+470285812+454706047+437589016+419607627+401449044+383992982
2078+367857731+353429993+341138622+331009463+322579446+315594754+310057618
2068+305734583+302264464+299355425+296709104+294261527+292198202+290458902
2058+288846802+287481848+286505844+285871430+285775285+286584954+288363827
2048+291059884+294843353+300046539+307222681+317115607+330209884+346597160
2038+366200154+388565008+412560678+436512114+458359757+476166768+489148778
2028+497644964+502130276+503168354+501731839+498760726+494757822+489776758
2018+483557501+475980436+467319378+457906594+447943697+437543429+426603432
2008+414958940+402817965+390705322+379045330+368028489+357686092+347962755
1998+338901029+330801891+324013475+318453966+313487488+308502329+303506714
1988+298908002+294995742+291878253+289540548+287744786+286139358+284558369
1978+283072739+281796363+280721691+279719969+278764729+278105438+277968458
1968+278091035+277870448+277084633+276155916+275554989+275275838+275072141
1958+274894162+274813810+274771257+274670652+274545845+274477483+274494336
1948+274660105+275184116+276213841+277311708+277476636+276268238+274494702
1938+273193357+272598315+272397653+272345943+272383140+272510980+272719722
1928+273050327+273734111+274924158+276221737+277106293+277812469+278783921
1918+279471983+278949233+277578576+276717087+277064856+278124137+278911360
1908+278910026+278398535+277966832+277901394+278086428+278312480+278592581
1898+279157006+280014217+280742565+281179241+281863116+283014266+283706787
1888+283075956+281686161+280621195+280173497+280047759+280008789+280001916
1878+280064867+280219084+280456523+281122577+283020956+286395258+289731852
1868+290582977+288484466+285499625+283508044+282780757+282715667+282800150
1858+282857673+282907080+283009166+283194877+283569369+284357926+285794989
1848+288169726+291590329+294924199+295747559+293380626+290265843+288634716
1838+288526817+288849215+289145840+290257143+293120979+296976831+299501197
1828+299683179+298814580+297792057+296252633+294358879+293105515+292907503
1818+293281776+293775133+294594599+296195969+298387025+300088507+300378424
1808+299626881+299085194+299773201+301973030+305077285+307703298+308712569
1798+308531611+308916558+311306193+315287893+318079730+317079964+313683325
1788+311343810+311505759+313280830+315384697+317407589+319170268+320258356
1778+320993266+322824489+327059202+333160781+337997774+338554138+335718835
1768+332247363+329899733+329804611+332265386+335652995+337630593+338243109
1758+339028065+340085519+341136575+343511733+348502558+354722217+358757949
1748+359258856+358114872+357535586+358488084+360791626+363189596+364311317
1738+365053684+368186526+374222814+378591253+376843856+371775785+367323484
1728+364412690+363224800+363773816+365394945+368011892+373026809+381386709
1718+390651985+395116168+392580597+387063494+382634553+380946780+382406875
1708+386648131+392065689+396621556+400676554+406700413+414791801+420684236
1698+421762637+419765554+415460066+410102535+407052239+407898941+411661371
1688+417632916+426878817+438637148+445685924+442828686+436294964+432715028
1678+433786848+438420437+443858649+448030703+452018910+456960128+460291987
1668+459316532+457071773+458051762+462363574+466301260+467315649+467498654
1658+470508079+478579361+492218705+507171368+512501590+508872849+508023443
1648+512866796+517891291+517170493+513112826+511198326+513528482+520312474
1638+531107230+542942368+548963960+546585146+542569850+542700725+547487561
1628+554720732+562610141+571079128+579654460+586668726+592505960+600231337
1618+611330834+622143942+626894915+626318628+625099957+625048704+625243992
1608+624647306+623646955+623532823+625247502+629013259+634637365+641631780
1598+649171337+656378223+662726674+668158635+672945434+677359204+681378376
1588+684835005+687724413+690172722+692339029+694586346+697763459+703154915
1578+711388108+720164541+724951048+726443386+730350254+739177063+749997409
1568+758740282+766323342+776033519+788666298+804287993+825347645+852580127
1558+874352790+880810693+881068055+882292136+884043446+884238807+882281389
1548+879659433+878775115+880614600+884284358+888446322+890309203+884940413
1538+873968355+864641809+858999059+854545295+849298972+844806458+843381092
1528+844782988+847083459+849505885+852869513+856470397+857494072+855402562
1518+852518784+849805947+847143194+845695748+847182383+852266027+860383699
1508+868811450+870515600+861534447+849845867+842713850+841391723+844581119
1498+848861163+849639758+846127050+842779726+843457424+847733227+851204918
1488+849584995+843975732+838771083+836414826+836275616+836706406+837482954
1478+839873429+844667321+850880290+855639160+855427201+850187604+844485485
1468+842190278+843633337+846250174+847010637+846370521+847679707+852685192
1458+858464520+858224339+850880802+842882013+837953518+836208351+836663049
1448+837495822+836899062+834933309+832979399+831715544+831171719+831672991
1438+832964850+832930851+829995601+826319921+824621912+824707675+824434593
1428+822841942+821206373+820736832+821406560+823146756+826086905+828647517
1418+827629326+822725909+817179670+813343212+811296228+810096274+809223288
1408+808948744+809194043+808828178+807264407+805937454+806564995+809018056
1398+811763867+813483226+813369898+811073448+807796900+805809650+805934018
1388+806339437+804524226+801263031+800340693+803712875+809624613+815503376
1378+820998582+827030666+833099526+837433967+839610290+840935196+842185087
1368+843258041+844763905+847689431+851238916+852896200+851618234+849277403
1358+847993807+848071308+848500270+848284875+847405309+846720885+846901404
1348+847803417+849064567+850753583+853131409+856149791+859234122+861382077
1338+861995433+861776090+862003110+863196191+865322211+868743600+873831704
1328+879804858+884916724+888053770+889851946+892190437+896474356+902139186
1318+907177499+910567010+913365317+916977753+921377924+925299707+927663934
1308+928623195+929332917+930708125+932499428+933906954+934870601+936101775
1298+937820694+939074533+938729287+936990626+935298905+934497499+933626340
1288+931110693+927041804+923399172+921862526+922178673+922729444+922128882
1278+920118236+917263484+914317998+912026373+910986759+911232936+912231532
1268+913434483+914595467+915748920+917297556+919721956+922616189+924671435
1258+925357614+925699058+926654809+927701077+927599594+925897856+923109492
1248+919972958+917061981+914555766+912014602+908885744+905309719+901875316
1238+898718602+895531326+892372565+889759310+887834427+886121869+884451863
1228+883404718+883325170+883642340+883762686+883696006+883337819+882568801
1218+882299521+883726348+886525606+889229304+891118799+892619765+894337587
1208+896480205+898658429+900107337+900717330+901482399+903377817+906084512
1198+908203879+908904827+909188218+910921176+914589764+918738202+921835474
1188+923806711+925369239+927101246+929664125+933661874+938578452+942706637
1178+944920906+945952112+947312332+949678534+952581541+954826518+955089876
1168+953153003+950767719+950487106+953455916+958293969+962111637+963252587
1158+963055251+964275896+967890453+972165963+974704130+974737104+973562302
1148+973297921+975136821+978477564+981701251+983841967+985460939+987493739
1138+989579766+990499472+990167971+990217323+992024785+994891454+997299696
1128+999535973+1003449787+1009239497+1013774125+1013932783+1011219873
1120+1010086527+1012134022+1014921216+1016252630+1016871251+1018203102
1111+1019703556+1019560764+1017502447+1015973625+1017568396+1021664996
1103+1024794146+1024951342+1023636599+1023330615+1025161546+1028427639
1094+1030990006+1031320995+1030494437+1030427757+1030843558+1030299733
1085+1029444587+1030440186+1033690706+1036753761+1037203926+1036012892
1077+1036443463+1039980007+1044593525+1047466190+1048382386+1048783858
1068+1048759657+1047357907+1045138447+1044363507+1046614480+1051166729
1060+1055755827+1058558887+1059023017+1057196254+1053771356+1050528294
1051+1049210334+1049917789+1051886540+1055331471+1059966339+1062804640
1043+1061088353+1056780672+1054793861+1057558463+1063026762+1066871044
1034+1066206214+1062149389+1058743647+1058936011+1062284066+1066632983
1025+1070747862+1073741823+1073203993+1067759603+1060498539+1056122935
1017+1055944097+1057721947+1058888999+1058016524+1054552364+1049832537
1008+1047135859+1048444314+1051674801+1052573450+1049407523+1044146723
1000+1039491895+1036759537+1035928445+1036032706+1035943141+1035145317
991+1033323672+1030459927+1028097528+1028583958+1031750908+1034174212
983+1033293329+1030224937+1026661195+1022132051+1016366542+1011535874
974+1009812713+1010481637+1011296058+1010896342+1009138160+1006647737
965+1004291918+1002140600+999308953+995210086+990463353+986274483+983202436
955+980840621+978508418+975961771+973445612+971305115+969564846+967447160
945+964002156+959799248+956800315+955824018+955537410+954466942+952973215
935+952739175+954468112+956713089+957368267+956173139+954686358+953924433
925+953518209+952877435+951855076+950600579+949656161+949725034+950785120
915+951824807+951846741+950999784+950302565+950329325+950456178+949444129
905+946983610+944514902+943849415+944959876+945813048+944918786+943129531
895+942136637+942241849+942303777+941517504+940444843+940033355+940580616
885+941386703+941032463+938909660+936348536+935201883+935656874+936561664
875+937213552+937570862+937564648+937251206+936766896+935821162+934293217
865+932767831+931423915+929681307+927701954+926516916+926101333+925329319
855+924392869+925125622+928223186+931940322+934315444+935222647+935377430
845+934961190+933966980+932467039+930251453+927401819+924965648+923937367
835+924117301+924905767+926532855+929560522+933513232+936636972+937090354
825+934699221+931511580+930059528+931385457+934833898+938837057+941631197
815+942212164+941302109+940927691+942311454+944540931+945937708+945904441
805+944603444+942285644+940120434+939909280+941611529+942778801+941898357
795+940471749+940289256+940949259+941294579+941324921+941740284+943150514
785+945924402+949481198+952000281+951912251+949569959+947011466+946309056
776+948036311+950885725+953139988+954094570+953436029+950994373+947913113
766+946105652+945833886+945311191+943420599+941523280+942017972+945929812
756+951458942+955118537+954955053+951789200+947738077+944874186+944343083
746+945757335+948107890+951037511+953959308+955119268+953646671+950700892
736+947761474+945884774+946000587+948104234+950085488+950127017+949651408
726+950633627+951676092+949944524+946273157+944517242+945781609+946704678
716+944624281+941391382+939958486+940599188+942116092+943638334+943745739
706+941225778+937482759+935342628+935565773+936309712+935420568+932735588
696+930602621+931904350+936148275+938212222+934058227+926371199+920258396
686+916427275+912481876+908440112+906976800+908688774+910216207+907943592
676+902733972+898903216+897890143+895921611+888742216+878579826+874326323
666+877640672+881783333+883212062+883350979+884562631+886334047+885868015
656+881671322+875179641+869456319+866744945+866949372+868493402+869950134
646+869777218+866196148+859781164+854287202+853073283+855414187+857376797
636+856301796+853571192+853458815+858428694+865552814+869605765+869490756
626+867997833+865509019+859456901+850713224+844313008+842016193+840174514
616+836123611+833436437+837803487+848376926+857742661+860135476+856824856
606+851738068+845509233+838194284+831903960+827050333
##END=
