##TITLE=<SNM>
##JCAMP-DX=4.24
##DATA TYPE=INFRARED SPECTRUM
##DATE=2/5/2025
##SAMPLING PROCEDURE=Instrument type and / or accessory
##ORIGIN=Admin
##XUNITS=1/CM
##YUNITS=ABSORBANCE
##RESOLUTION=4
##FIRSTX=4497.3318
##LASTX=599.83466
##DELTAX=-1.4281778
##MAXY=1.8526053
##MINY=0.36037505
##XFACTOR=1
##YFACTOR=1.7253732e-09
##NPOINTS=2730
##FIRSTY=0.3795794
##XYDATA=(X++(Y..Y))
4497+219998433+219359678+219067333+219137392+219685429+220678400+221708111
4487+222352151+222636413+222925856+223372310+223540877+222747616+221046142
4477+219623281+219640675+220880028+222134702+222718615+222831735+222661959
4467+222045487+221100206+220509695+220799708+221600863+221953336+221339040
4457+220282279+219711114+219788670+219867313+219581705+219343338+219582292
4447+220161541+220769533+221194240+221148571+220558854+219986894+220135960
4437+221037315+222030356+222281367+221351839+219724172+218573481+218573153
4427+219176015+219292590+218374756+216815577+215495213+214884769+214679998
4417+214483587+214436190+214871763+215836303+217131188+218303315+218705844
4407+218209350+217560733+217523596+218048763+218485718+218200161+217043286
4397+215564910+214591889+214485988+215028498+215842970+216544909+216736449
4387+216353196+215850847+215686667+215761459+215565549+214765171+213555890
4377+212561416+212377114+213027648+213900763+214407724+214593167+214860553
4367+215214838+215130080+214257639+212961700+211939779+211520478+211612767
4357+212120075+212974396+213876235+214413822+214428089+214045199+213419710
4347+212565786+211455238+210297793+209526279+209266217+209125408+208867885
4337+208980056+210117688+212072660+213665557+213820409+212616776+211149955
4327+210512963+210989265+211957346+212439866+211936722+210787983+209675638
4317+209050374+209098686+209726507+210424456+210675156+210569169+210581018
4307+210886111+211366489+211984568+212614220+212843329+212414026+211565543
4297+210659956+209853982+209294424+209171233+209444319+209857695+210294529
4287+210862170+211530928+211918568+211666435+210878977+209953249+209211824
4277+208984564+209631368+211060758+212521723+213182863+212789091+211741486
4267+210745906+210332460+210530339+210979696+211343655+211553901+211696956
4257+211793805+211791111+211721656+211672670+211639178+211687611+212074940
4247+212793824+213286311+213051295+212202899+211233073+210709374+211151527
4237+212512413+213861501+214235634+213689963+213035318+212840582+213056011
4227+213261611+213039860+212396131+211904128+212129005+212853416+213221468
4217+212747153+211846056+211303581+211492565+212106481+212489319+212267862
4207+211748481+211548512+211855245+212290801+212417032+212129765+211668024
4197+211350633+211207371+211021341+210807052+210909637+211481286+212184589
4187+212582662+212554922+212196007+211644688+211205505+211289815+211968055
4177+212782562+213233249+213273546+213139249+213004883+212985295+213111301
4167+213212884+213122356+212896685+212596066+212171634+211803237+211857508
4157+212248361+212409725+212185608+212099019+212437586+212780507+212807073
4147+212859271+213225752+213498130+213157317+212327886+211513189+211009664
4137+210942680+211430140+212331548+213188494+213697149+213963412+214142774
4127+214107762+213647454+212850721+212137883+211888513+212052123+212211673
4117+212070018+211740484+211501547+211420865+211318160+211062727+210798070
4107+210784287+211114805+211737357+212538720+213182777+213232575+212752956
4097+212389395+212541362+212828007+212660149+211992065+211258464+210830665
4087+210679785+210499818+210127914+209757875+209686399+209966964+210462474
4077+211135498+211987971+212727548+212866094+212286983+211424060+210778500
4067+210526332+210610382+210919655+211297916+211542536+211486899+211106842
4057+210618242+210388960+210588618+210985690+211214004+211100399+210636568
4047+209958811+209468207+209554382+210133320+210806862+211327798+211540342
4037+211207958+210371083+209597927+209534173+210306413+211359528+211842757
4027+211377665+210446963+209821940+209792853+210157468+210636499+211048252
4017+211336694+211547769+211644256+211470594+211071070+210820871+211005519
4007+211424509+211683552+211735077+211758120+211704366+211465740+211302614
3997+211592316+212248655+212735131+212648576+212133720+211717165+211809006
3987+212367648+213014711+213385251+213347734+213010894+212639715+212615826
3977+213314121+214666508+215903477+216167702+215357651+214025042+212745045
3967+211997091+212154534+213064233+214023435+214555374+214863921+215295261
3957+215785140+216050004+216052716+216220315+217151674+218753103+219868989
3947+219627150+218847863+218837153+219353028+219135354+217990899+216960117
3937+216938111+218230509+220666810+223301647+224601990+223906892+222346883
3927+221503582+221653753+221770329+221233588+220917821+221898719+223799937
3917+224943028+224038909+221564538+219146495+217966026+218194651+219762017
3907+223050187+228183800+233895644+238142705+239986957+239293154+235652340
3897+230047675+225665436+225106482+227769024+230108666+229659361+228553338
3887+229789997+232638569+234341684+234949848+235942128+235839510+233064762
3878+230353026+231006342+234626222+238917329+242640690+244747302+243977411
3868+241774641+240930597+241288027+240273862+237134637+234043017+233264230
3858+236078378+243306633+253625851+259392278+253631724+242688606+234362170
3848+230787200+231636287+235744387+241358380+246817520+251232491+253777923
3838+253240129+249900762+245994912+243094676+241194787+240058398+239874199
3828+240385151+241162729+243256455+248149214+253910579+255588683+252983850
3818+250357045+248185746+244173339+239178738+236407479+237663881+242500883
3808+248009286+250975625+252596002+256111795+260351290+261069742+258649056
3798+256588615+255106473+252856116+250607123+250041278+251501069+254507913
3788+258828937+264084204+269371703+274511155+280660384+288250456+295476155
3778+300802725+305765250+313003489+323572060+336790513+350570682+362058452
3768+369740814+374071493+376144285+377633906+380158661+383168062+384263652
3758+382951666+382375889+386279097+396124622+409478149+419925430+424258010
3748+427337642+433734895+442316003+448567714+452476587+458829379+470438993
3738+486722292+503856562+516261665+521814615+523816794+526546269+532324285
3728+541632206+553076034+563843555+571873034+576600198+577960513+576951046
3718+575622271+575633360+577755103+581201925+582453317+578218399+570363826
3708+563181931+559235506+559132663+561346264+562655900+561542623+560021910
3698+560428032+563319251+568471952+575843745+584758222+592112225+593618635
3688+589663263+585274822+583015172+582260205+582584592+584802165+589833574
3678+596764872+601164989+599305174+595489920+594739789+594354395+588889779
3668+579641968+572060688+567778615+565071422+562444894+560424716+560265908
3658+561667921+563123031+564877343+568818344+574983240+580467340+581498813
3648+577305557+569987551+561798643+555235777+552211349+552413166+554078453
3638+556237402+558775423+561180132+563413527+567122898+573031705+576888069
3628+573339821+565865149+561843898+564095879+570995567+578321415+581775180
3618+580923484+579356895+579511626+580910081+582745368+585201101+587579935
3608+587501930+584128450+580306287+579765159+583695796+589836476+594540805
3598+596122732+595514516+594457411+594511786+596975741+602262859+608715420
3588+612266190+609879411+603586798+597558669+593897490+592774125+593604748
3578+595526055+597891692+600457626+603025703+605880303+610137745+615677395
3568+618998227+616456060+609868080+603928734+600629527+599494831+599810719
3558+600963448+602150654+602942516+603494629+603670676+602922894+601475626
3548+600207997+599089676+597181911+594701512+593236073+593031907+592131501
3538+589309443+586214887+584915614+584986709+585004397+585125998+585935134
3528+586311339+584764924+581711408+578551111+575792721+573358337+571444803
3518+570171923+569324718+569016119+569715157+571015224+571316845+569864222
3508+568342370+568939427+571342685+572644929+570494513+566007962+562395078
3498+561217165+561194227+560690582+560132077+560660976+561857233+562549326
3488+562734872+562990478+562858201+561159474+557396488+552507407+548306828
3478+546110362+546064313+547331354+548506814+548430917+547234107+546012045
3468+545030733+543485354+541412425+540177580+540591924+541674421+541674076
3458+540042333+537946016+536684813+536226319+535757910+535171527+534989436
3448+535009783+534286219+532634577+530887900+529576466+528628146+528133655
3438+528335542+528807335+528455416+526915427+525468021+525668733+527207409
3428+528083909+527088088+525010771+523106909+521810849+521201804+521318639
3418+521685206+521481626+520566055+519565017+518727796+517579662+516023713
3408+514886357+514813292+515199274+514678735+512556682+509589634+507393376
3398+507081184+508323318+509701287+510026191+509245453+508178778+507466890
3388+506811346+505587176+504071714+503178563+502974915+502669667+502027734
3378+501445152+500871344+499940158+498989591+498851442+499768499+501153480
3368+502301407+503003761+503431060+503599126+503262510+502456381+501745563
3358+501579259+501684451+501406080+500510649+499434543+498825325+498907441
3348+499187160+498873379+497774680+496543462+495828085+495580390+495412808
3338+495171712+494906503+494701956+494679294+494892477+495238697+495541664
3328+495517517+494805974+493496925+492218345+491357598+490699774+489970786
3318+489269123+488835295+488701153+488651891+488488592+488270331+488180373
3308+488268880+488505416+488851013+489090659+488969713+488621283+488461888
3298+488674207+489083300+489360739+489131595+488247668+487166069+486603178
3288+486747684+487281971+488068962+489228911+490523693+491263840+491088450
3278+490436396+489923941+489525799+488783856+487694830+486796601+486405575
3268+486342460+486389200+486565488+486905489+487274509+487476534+487309677
3258+486499333+484958204+483257369+482308046+482240647+482148962+481389400
3248+480554356+480520466+481117351+481433688+481097936+480576983+480256086
3238+479963758+479508236+479020067+478465397+477379929+475537007+473514307
3228+472238525+472131295+472792090+473340576+473089116+472072394+470878797
3218+469992383+469403823+468793811+467982396+467079434+466238448+465481201
3208+464692171+463656207+462366780+461351406+461165998+461516155+461483509
3198+460642108+459391200+458258438+457382422+456585171+455633983+454505851
3188+453438968+452642373+452092540+451689631+451378545+450991941+450250861
3178+449102036+447800967+446581667+445557726+444882836+444581699+444234340
3168+443237620+441553056+439893366+438891291+438327432+437518885+436276820
3158+434975716+433886517+433050850+432534078+432193213+431534456+430375958
3148+429225958+428576080+428322927+428119762+427753437+427069462+426080446
3138+425167881+424664443+424346309+423836756+423233550+422676393+421733910
3128+420120062+418495884+417575719+417027578+416193639+415270951+414871048
3118+414920552+414735144+413937720+412870630+412135251+411929391+411887660
3108+411513147+410711923+409891768+409552803+409766297+410137044+410285315
3098+410067227+409339275+408063113+406707012+405931732+405837871+405951665
3088+405843605+405428432+404867095+404470335+404430089+404463460+403987521
3078+402754507+401117271+399697709+399009519+399252792+400169918+401048006
3068+401037055+399765005+397744240+395980047+395092735+394903561+394827007
3058+394481168+393893645+393247843+392574612+391797363+390949467+390128034
3048+389339108+388609497+388096628+387857501+387668190+387250115+386567279
3038+385803883+385110235+384489134+383936744+383500671+383073061+382356751
3028+381267172+380178456+379517972+379188991+378603679+377395573+375967064
3018+375076988+374966372+375184115+375183286+374780860+374097196+373310066
3008+372513299+371725098+370943807+370123998+369213090+368334241+367766859
2998+367631508+367748515+367824205+367631853+367086407+366287290+365426786
2988+364587596+363701043+362748922+361906865+361370090+361130168+361117179
2978+361412305+361991364+362438492+362304972+361557847+360370227+358806539
2968+357018648+355429086+354448016+354132335+354181805+354205330+354017089
2958+353691563+353357987+353054225+352758753+352398405+351858866+351131501
2948+350353803+349616109+348915586+348324643+347932892+347675076+347505559
2938+347511121+347533230+347072457+345960595+344730760+343990958+343797536
2928+343782577+343568911+343021046+342257477+341381600+340308361+339056278
2918+337987288+337479186+337517118+337724290+337679829+337280616+336864061
2908+336771720+336797629+336401111+335465192+334454516+333819700+333583786
2898+333481530+333266654+332893489+332494379+332160216+331773336+331162219
2888+330377404+329675948+329244331+329037747+328897110+328720062+328474130
2878+328150296+327797789+327508778+327269271+326936041+326452155+325949719
2868+325576969+325340294+325145455+324896793+324530710+324025372+323440509
2858+322935620+322624741+322384785+321995245+321507145+321190601+321072454
2848+320836125+320263388+319540030+319014137+318795773+318715246+318602073
2838+318433213+318187695+317777634+317254333+316868765+316730305+316577992
2828+316076005+315194082+314191938+313401700+313060800+313137354+313289460
2818+313174111+312787507+312404704+312266175+312350018+312325145+311789786
2808+310728776+309632979+308997610+308790231+308536836+307911486+307125876
2798+306635877+306564539+306629175+306580258+306421519+306220842+305969658
2788+305605682+305025172+304157171+303113296+302146977+301420406+300901872
2778+300481828+300093946+299703542+299247156+298650789+297939143+297296070
2768+296920486+296772595+296563074+296110833+295598344+295291507+295129314
2758+294823582+294296480+293744609+293258064+292672061+291888179+291081358
2748+290459220+290019520+289651139+289291688+288901354+288445054+287958578
2738+287518013+287136764+286756206+286312239+285795103+285273270+284824241
2728+284416910+283935806+283370600+282907045+282713674+282656224+282394902
2718+281801350+281095594+280526070+280118203+279775490+279423346+279042857
2708+278710076+278529470+278423914+278148739+277631845+277104484+276768766
2698+276543855+276272946+275940389+275532367+274959146+274295173+273825918
2688+273693020+273723196+273698237+273589814+273478438+273376320+273155623
2678+272667835+271995450+271484930+271381223+271522896+271526610+271181046
2668+270583678+270005396+269689145+269670629+269715089+269515586+269010076
2658+268417008+267955820+267668156+267502733+267400684+267281379+267076367
2648+266797563+266522733+266333162+266253240+266204893+266066191+265793589
2638+265416693+264958493+264464089+264014594+263605639+263149166+262692262
2628+262443065+262478491+262615656+262657284+262569814+262354333+261973810
2618+261500271+261132530+260984328+261004053+261124947+261330772+261547996
2608+261633204+261523970+261305518+261099262+260944841+260786759+260555146
2598+260294030+260182810+260314879+260483636+260359754+259886699+259336175
2588+258976707+258834844+258781989+258740258+258750742+258863552+259046317
2578+259247876+259449106+259591660+259588965+259466431+259370479+259405353
2568+259520650+259547665+259373139+259112715+258997279+259078134+259251261
2558+259518215+259922040+260311960+260487160+260459108+260310837+259972080
2548+259382156+258720307+258243781+257967275+257689819+257314719+256965961
2538+256766959+256658364+256483665+256158346+255733949+255356189+255148239
2528+255121328+255219335+255391080+255550803+255549801+255293004+254852060
2518+254411478+254130637+254058833+254137045+254267007+254372769+254395570
2508+254288443+254069370+253815733+253567192+253325941+253169620+253218054
2498+253460325+253749474+253966233+254055828+253952777+253638979+253253204
2488+252996373+252921961+252904049+252799202+252562752+252234358+251905792
2478+251677046+251545529+251377273+251076568+250728397+250510809+250510187
2468+250629250+250665212+250536650+250378118+250287021+250124447+249753666
2458+249291717+248944427+248777898+248762007+248842516+248916065+248885284
2448+248745771+248554870+248373780+248246495+248148212+247965188+247597135
2438+247087721+246638192+246471007+246622922+246876386+246954494+246771021
2428+246448154+246150956+245963198+245872964+245827433+245815601+245878751
2418+246003462+246078357+246051394+246050444+246220099+246502737+246718010
2408+246798329+246809453+246798968+246768913+246764025+246864968+247097342
2398+247406873+247735250+248166141+249058567+251000826+254590737+260300076
2388+268540873+279753294+294388821+312821639+335180085+361125194+389769861
2378+419903770+450442522+480743253+510383362+538483309+563429246+583907287
2368+600264929+613637111+623548204+627970292+626220955+620066250+611142549
2358+598775999+581409269+558918962+532679279+506051991+484667154+473505774
2348+474675914+487224901+506238574+523526228+533737387+537977314+539694490
2338+540909021+541887363+542309307+542221422+541779337+540623776+538218134
2328+534651991+530486268+525714990+519475647+511177366+501376025+491001878
2318+480420179+469748557+459387538+449676984+440287811+430385907+419434152
2308+407592597+395384717+383331292+371908226+361441842+351889198+342948120
2298+334442701+326418957+318915992+311885064+305304061+299175231+293446719
2288+288088868+283204607+278949721+275370174+272381397+269864863+267716071
2278+265811760+264023144+262303223+260707735+259304825+258116962+257132438
2268+256310780+255613953+255044532+254563981+254017689+253286144+252448888
2258+251673177+251024628+250461288+249923027+249407274+248999701+248761213
2248+248573887+248235078+247722675+247222951+246865228+246557786+246156535
2238+245705227+245394538+245324858+245430517+245595025+245709873+245666967
2228+245433523+245113144+244854170+244728699+244721099+244765076+244770776
2218+244689869+244581931+244555140+244624595+244700993+244735315+244782504
2208+244896506+245040753+245130382+245137999+245147431+245260638+245437893
2198+245539009+245564642+245694552+246017436+246383813+246591503+246587547
2188+246467880+246389910+246459969+246613629+246682428+246642527+246657935
2178+246828833+247066181+247221103+247180597+246910448+246548372+246315671
2168+246233745+246108084+245843307+245574418+245453231+245450986+245407268
2158+245224831+244983216+244829988+244803422+244824875+244817137+244778808
2148+244772106+244855137+245055417+245452506+246203034+247381655+248897462
2138+250660272+252716050+255124230+257802819+260615878+263597003+266965301
2128+270859648+275161689+279656825+284280661+289141103+294342495+299786107
2118+305130917+309985175+314085986+317271295+319422747+320502100+320542554
2108+319595027+317715348+314967667+311483536+307536559+303422724+299231299
2098+294845208+290176531+285343208+280622418+276248643+272276205+268654563
2088+265377725+262507026+260094251+258129157+256552567+255303627+254322229
2078+253520815+252829533+252250819+251808286+251497027+251304744+251208793
2068+251182572+251229658+251321015+251344593+251238520+251064114+250889277
2058+250756362+250727706+250794950+250854714+250873455+250921319+251035925
2048+251201486+251409505+251664316+251977146+252311067+252516823+252475333
2038+252294693+252203560+252303225+252532904+252791083+253011901+253179362
2028+253327599+253531282+253849830+254259044+254717866+255287874+256007052
2018+256661507+256926112+256734658+256318967+255958359+255830159+255953039
2008+256172078+256309847+256338554+256329590+256340489+256429497+256623869
1998+256854377+257138725+257727871+258699200+259545644+259658005+259088550
1988+258351512+257776167+257462040+257455805+257648433+257814012+257894296
1978+258012841+258235714+258513291+258794391+259129349+259708770+260654949
1968+261653500+262072317+261696872+261029980+260648731+260647021+260854245
1958+261213212+261726374+262283929+262733527+263030104+263281996+263674437
1948+264369295+265531213+267225121+268924730+269501250+268477446+266819932
1938+265734775+265454987+265573428+265793123+266044237+266312659+266583379
1928+266943831+267727834+269146204+270674396+271587203+272127657+272902074
1918+273379550+272598881+271086442+270335431+270892450+272030773+272746634
1908+272643169+272053142+271521946+271282612+271277654+271487003+272037458
1898+273020255+274193660+275027409+275453913+276192005+277560335+278553496
1888+278149171+276883252+275909522+275529275+275453585+275550055+275805556
1878+276109924+276361297+276676615+277647563+280213653+284571037+288896794
1868+290199435+287778662+284103889+281599429+280763089+280894727+281254834
1858+281512097+281684084+281910360+282270225+282889375+284030721+285934134
1848+288816353+292696450+296358458+297264115+294714175+291313507+289461084
1838+289264414+289614192+290017723+291342629+294552846+298732905+301324196
1828+301420165+300636801+299829255+298283358+296083680+294508661+294174913
1818+294543345+295040772+295871464+297539032+299815402+301550196+301841522
1808+301110288+300597695+301363682+303804111+307278811+310148059+311078969
1798+310612529+310790890+313273120+317637792+320726476+319494913+315467893
1788+312537395+312301757+313813142+315809276+317937271+319846004+320855920
1778+321352898+323127868+327662404+334262130+339437147+339935472+336727777
1768+332656572+329519697+328711667+330888442+334433650+336614778+337151103
1758+337567037+338066433+338639032+340985807+346485521+353393224+357746324
1748+357993708+356268172+355064626+355503878+357493102+359849999+361169205
1738+362204824+365761363+372579385+377947928+376707280+371462929+366543310
1728+363143437+361577746+361918369+363449479+366057353+371284223+380256081
1718+390280381+394769454+391199200+384379658+378987485+376736437+377988140
1708+382351638+388006429+392543486+396286401+402020613+409948147+415520200
1698+415973858+413166516+407891627+401586750+397910855+398470741+402038266
1688+407659616+416316243+427219322+433199191+429362725+422128114+418079191
1678+418898241+423356810+428303581+431539362+434640067+439150248+442292063
1668+440829077+437676345+437578165+440882761+444079125+444641429+444530329
1658+447434814+455835455+470436125+486631886+492399745+488587290+487923524
1648+493123828+497823528+495987653+491051452+488947569+491508598+498760517
1638+510371651+523477656+530913740+529747814+527104428+529255085+536775530
1628+546966445+557373135+568001229+579183232+589492191+598470060+608618760
1618+621791059+634946846+642656671+645677023+648525820+652865689+657866767
1608+662487978+666396022+669747739+672675369+675117698+677300242+679954683
1598+683626848+688088664+692636568+696872937+701120016+705812944+710628510
1588+714752190+717817521+720131754+722342763+725172836+729215955+734960738
1578+742477728+749907594+754138021+756423166+761445110+770634054+780566773
1568+787458827+792774343+800000179+810333838+824288051+843704736+867207102
1558+882001264+881350142+876080020+872685536+870996654+869434624+867243168
1548+865763980+867259405+871747268+876962047+881322229+882547159+875523831
1538+862808022+853645815+850356351+848715626+844338102+838432473+835039716
1528+835456271+838225197+841846026+846137116+850131595+851187111+848987364
1518+846001074+842861332+838934494+835520733+835248097+839867857+849367991
1508+859994254+861445875+848901414+834519730+827341290+827303151+831366307
1498+835342407+835418546+832032008+829728000+831591616+836441659+839688494
1488+837647865+831899627+826474878+823327190+821966770+821475596+822117045
1478+824810662+829761855+836023239+841022866+840613842+833874757+826075458
1468+822323768+823219199+825371273+825130695+823907907+826204176+833549265
1458+841491032+841637369+833702028+825723642+821283383+819838740+820258750
1448+820804023+819487615+816305865+813149609+811419548+811631453+814201464
1438+818430371+821025670+819188586+815065804+811988658+810465182+809508743
1428+808926713+809286682+810298325+810998226+811687279+813618121+815851931
1418+814983653+810455855+805499963+802150803+800166207+798898233+798347363
1408+798838054+800093868+800853602+800303631+799655273+800692480+803515160
1398+806749282+809048660+809381545+807278733+804253821+802947294+804106863
1388+805483726+804183762+800770485+798993511+801240033+806483831+812098169
1378+816706529+820714480+824340975+826717805+827648542+828357908+829508219
1368+830694043+832270305+835308759+839128643+841016095+839710465+837261296
1358+836058130+836273697+836644306+836469572+836218769+836431088+837016434
1348+837662167+838059515+838059238+838497488+841046219+845957616+850510495
1338+851446690+848894988+845792348+844397314+845123055+847415385+850359529
1328+853009065+855118716+857306995+860013047+862901226+865708913+868835943
1318+872528559+876287572+879634107+882660608+885459590+887959334+890558156
1308+893886036+897691410+901079676+904041576+907374085+911045835+913985143
1298+915376999+915182298+913927865+912716339+912633982+913681415+914933083
1288+915585933+915124468+913196873+910147779+906999469+904453640+902433601
1278+900802963+899844175+899838993+900741402+902331759+904280703+905958462
1268+906708661+906646893+906824528+908133820+910230275+912068188+913336577
1258+914737484+916845616+919312127+921418393+922961906+924259935+925559277
1248+926755396+927491225+927245465+925642464+923165243+921053312+920042083
1238+919835913+919971540+920302145+920511839+920153735+919207522+917716381
1228+915295539+912007180+909034225+907605958+907710563+908309382+908510163
1218+908146809+907604299+907648449+909056473+911696197+914268627+915751822
1208+916607732+917743050+919228388+920602833+921411622+921439397+921360149
1198+922716353+926351554+931214379+935066045+936271767+935237807+934262230
1188+935492687+938851382+942330849+944259895+944703327+944764818+945438603
1178+947133150+949495333+951532507+952565707+953321503+955198868+958199321
1168+960855490+962381108+963372024+964384773+965405536+966631641+968560824
1158+971202760+973842692+975746657+976816476+977363476+977648964+978123556
1148+979499245+981872068+984146434+985097139+985263236+986911008+991239960
1138+996516784+999726102+999711178+997771147+995850876+995564007+997351759
1128+999360813+999399228+998709208+1000601289+1005287515+1009101042+1009284965
1118+1007746427+1008384352+1012423671+1017963182+1022590473+1025404240
1110+1026744208+1027098304+1027125803+1027866744+1029835103+1032081349
1101+1032895874+1031366732+1027905021+1023780788+1020880034+1021282495
1093+1025596178+1031497108+1035149513+1034989842+1033393473+1034102840
1084+1038626631+1044635691+1047550194+1044953030+1038945145+1033719587
1075+1032138074+1034284621+1037929218+1040531633+1041333997+1041053898
1067+1040324495+1039867452+1041258410+1045280456+1050038953+1052661197
1058+1052205398+1049395016+1045334141+1041971853+1041625841+1044712521
1050+1049179173+1052740860+1054788744+1056112544+1057845576+1060635437
1041+1064407647+1068768589+1072533475+1073741823+1071387379+1066143581
1033+1060514388+1057805019+1059162467+1061890837+1062088923+1059387431
1024+1056843467+1056187993+1055988870+1054700928+1053285028+1053753056
1015+1056212589+1058041935+1056337300+1051003683+1044711485+1040207592
1007+1038708367+1040278065+1044206216+1048967821+1052537937+1053460936
998+1051878041+1049581772+1048364856+1048516375+1049710835+1051924056
990+1053926961+1052667761+1047127490+1041245352+1039524342+1041322044
981+1042172358+1039776735+1035133760+1029242433+1023558520+1020649889
973+1021195301+1022667027+1022552196+1021307575+1020183726+1018426512
964+1015130415+1011664213+1009788161+1009122322+1008160080+1006184121
955+1003294629+1000187291+998106243+997638560+997663848+996430557+993460366
945+989627701+985789923+981970454+978109185+975219693+974393493+974788353
935+974299320+972120093+969234678+966815356+965305422+964690781+964923068
925+966074000+967961729+969849319+971040601+971450040+971151010+970374072
915+970367785+972265117+974703508+974958388+972619420+969544140+966757250
905+963911148+960988630+958667903+957414023+957277497+957928896+958200980
895+956671354+953744069+951908989+952632933+954324096+954790949+954156893
885+953574034+952844631+951183593+949229191+948592716+949725685+951386723
875+952269648+952315249+952080475+951618665+950888087+950640462+951256485
865+951364268+949542799+946777534+945446341+946443820+948681430+950645782
855+951240732+950035355+947429278+944337554+941776663+941037587+942927803
845+946180028+948119091+947682845+946457501+946284287+947220551+948069483
835+947831876+946208355+943509142+940802951+939279683+938939060+938999860
825+939355338+940246485+941280031+942437735+944636238+948044058+951581977
815+954421930+956318502+956682685+955062273+952136508+949400262+948096222
805+948240693+948810425+948923459+948440161+947585426+946600175+945872569
795+946097739+948165245+951987546+955228716+955383482+953320190+951944571
785+952217346+953178898+954601707+956980541+959723350+961805918+963195218
776+964024804+964045186+963008048+960884923+958127120+955608099+954136511
766+953966269+954736160+956113714+958174586+960355956+961089366+960380552
756+961030983+964884238+969694761+972065027+972107518+972177578+972495262
746+971053522+967788584+965697795+966694376+968425612+966991540+962587002
736+959721416+961451407+965696897+968273540+968164997+967203031+966143783
726+964346772+961611010+958664724+957211031+958800490+962321896+964871110
716+965660831+966078768+966784610+968224623+971890293+977415986+981108879
706+980670560+978099305+975127870+970727408+965176635+961095101+959200532
696+957363586+954500902+951838169+950193713+949095291+947876095+945948915
686+943654097+942645701+943130726+942841300+939999205+935489923+931655807
676+929182249+926825317+924105584+921661389+919773039+919860924+924838787
666+932242743+934832100+930109462+923721571+921798468+922814671+921492322
656+916499811+910118899+904929683+902560177+902522868+902822035+902667891
646+903273896+905046656+905779030+902303777+894360145+885998023+881647928
636+881167601+881137132+879706930+877261146+874525591+872545348+873080811
626+876975244+881401270+881897074+878113602+873526453+872469624+878231818
616+887511688+890140841+882714845+874218754+871363532+870472246+866316438
606+860217836+856342817+857567678+864793308+875102785
##END=
