##TITLE=<SNM>
##JCAMP-DX=4.24
##DATA TYPE=INFRARED SPECTRUM
##DATE=2/5/2025
##SAMPLING PROCEDURE=Instrument type and / or accessory
##ORIGIN=Admin
##XUNITS=1/CM
##YUNITS=ABSORBANCE
##RESOLUTION=4
##FIRSTX=4497.3318
##LASTX=599.83466
##DELTAX=-1.4281778
##MAXY=1.8696519
##MINY=0.40582037
##XFACTOR=1
##YFACTOR=1.741249e-09
##NPOINTS=2730
##FIRSTY=0.43907249
##XYDATA=(X++(Y..Y))
4497+252159502+252125802+251165486+249925058+248965410+248043724+246669505
4487+245073828+244034850+243946140+244463045+245046306+245638519+246577150
4477+247923573+249171121+249636697+249004399+247550867+245979716+244859559
4467+244241844+244012565+244246654+244959052+245979049+247220093+248660446
4457+250184974+251710186+253031348+253409155+252130988+249679075+247551260
4447+246750136+246900050+246876653+246036249+244815110+244275528+245074376
4437+246718472+247784459+247131144+245074958+243202404+242918783+244185791
4427+245626915+245958904+245293916+244757277+244979881+245543802+245722163
4417+245096284+243685129+242088340+241183940+241271161+241881533+242500001
4407+242915942+242961161+242632937+242457743+243089510+244432990+245565025
4397+245735222+245132928+244405794+243931643+243920946+244437474+244868391
4387+244349004+243141832+242484204+242798427+243180804+242787747+241759517
4377+240725861+240090415+239810491+239667046+239785194+240560149+241808519
4367+242548079+242127431+241034146+240173408+239895555+240065769+240665615
4357+241793731+243109056+243697794+242882926+241131088+239689348+239298772
4347+239731435+240401848+240869837+240919284+240611427+240167075+239624018
4337+238883910+238162698+237949764+238348041+238772985+238603319+238059354
4327+237972356+238547266+238939604+238380236+237181296+236269126+236147520
4317+236590110+237062891+237181707+236854835+236317666+236118304+236735917
4307+238117496+239823567+241388077+242199898+241640000+239931617+238253838
4297+237480047+237348976+237190145+236940840+236994258+237315019+237393100
4287+237131695+237048959+237346084+237482409+237014916+236227313+235581511
4277+235084888+234537826+234111822+234325971+235358377+236588535+237176863
4267+237059622+236951572+237344030+237877947+237916577+237525796+237408675
4257+237864923+238425746+238635376+238502782+238192068+238103187+239036974
4247+241278623+243631215+244338786+243029777+240967412+239440643+238706833
4237+238402674+238175346+237828621+237433681+237320873+237607677+237981684
4227+238263936+238716384+239414627+239843729+239594459+239066840+238913605
4217+238987407+238581052+237777890+237672288+238853924+240410115+240916288
4207+240038418+238681400+237733476+237252205+236952393+236939214+237578461
4197+238887932+240334875+241152362+240922056+240047523+239399754+239344300
4187+239411871+238947391+237825078+236512337+235590052+235332584+235657025
4177+236194057+236472578+236440657+236713016+237801578+239279500+240214263
4167+240204849+239598550+238958243+238608162+238518803+238475517+238346347
4157+238160524+238009343+237969173+238010147+237949986+237693785+237480492
4147+237610621+237964261+238134868+238029745+237898383+237759679+237386938
4137+237016919+237417849+238831947+240320413+240663202+239738623+238560342
4127+238038525+238195405+238561352+238782039+238753028+238599160+238537287
4117+238517091+238261745+237808767+237466303+237145730+236479801+235654047
4107+235349528+235781780+236430884+236792500+236848947+236787349+236787109
4097+237022533+237402086+237491018+237083190+236519851+236120187+235747326
4087+235269154+234979406+235204389+235732573+235925327+235486041+234930182
4077+234984540+235697298+236494332+236855058+236576726+235744177+234787661
4067+234235207+234211930+234410162+234547685+234599904+234637164+234719764
4057+234917054+235136748+234983086+234204280+233290484+233062797+233576826
4047+234069529+234150623+234329137+235050914+235943812+236482162+236792124
4037+237237897+237654898+237591503+237021865+236334062+235835368+235594930
4027+235589179+235833434+236416833+237315481+238163793+238532974+238501653
4017+238561078+238855122+238892485+238211117+237097858+236341952+236310545
4007+236588655+236640241+236491696+236531267+236964169+237610621+237964928
3997+237531701+236400744+235338198+235048758+235565200+236444919+237244555
3987+237806627+238288582+238803690+239095560+238935257+238643232+238672157
3977+238912818+238991738+239014980+239396981+240100171+240571223+240423739
3967+239842668+239294066+239130972+239458665+240086187+240637563+240876495
3957+240807074+240514331+240234596+240445561+241387649+242492060+242796424
3947+242145026+241494809+241711114+242486395+242786412+242255353+241621446
3937+241721880+242755227+244295005+245489820+245404653+243856609+241878110
3927+240877299+241426484+242848113+244037982+244695165+245325255+246218546
3917+246880299+246579666+245310638+243888974+243171271+243485032+244815333
3907+247170852+250312039+253223674+254653981+254433842+253243819+251330325
3897+248825645+246814456+246731275+248681105+250701571+250794097+249905855
3887+250254874+251817518+252726778+252631889+252781633+253023783+252366480
3878+251599911+252052701+253523777+255366242+257530667+259118487+258648051
3868+257050338+256471663+256833245+256380301+254555157+252507152+251577336
3858+252891566+257265873+263752180+267710872+265477694+260389090+256431613
3848+254631047+254669659+256041226+258371499+261389507+264540057+266492917
3838+265910066+263514035+261531668+260798663+260424091+259772401+259397093
3828+259776167+260721198+262571502+265967129+269460844+269952401+267812007
3818+266123445+265169667+263226392+260575683+259136219+260041714+263177305
3808+266932117+269300199+270904861+273699032+276767633+277326112+275831810
3798+274741759+274276937+273579600+273037262+273460733+274760569+276556172
3788+279101997+282868106+287659073+292943821+298731867+305073429+311236475
3778+316818930+323058723+331479644+342227176+354154171+365440670+374614091
3768+381781645+387712948+392416386+395959052+398898910+400968481+401195261
3758+400061052+399875520+402726823+409049318+416758543+421942892+424001303
3748+426969162+433487458+441898658+448090048+451836251+457090055+466279324
3738+478937527+492236806+502473647+508690333+513953105+521587331+532232307
3728+544316935+555232233+563013788+568118790+571863966+574456004+576325494
3718+578496080+580989053+583398297+586032987+588075343+586855078+582144759
3708+577283140+574836310+574358925+573906734+573007520+572974693+573774773
3698+573613443+572453629+572781973+576275722+581913769+586934083+588445791
3688+586127259+582865526+580910527+580389053+581032390+583154847+587190815
3678+592498464+595963528+594526033+590747207+588874979+588605513+586778743
3668+582765161+578658266+575482385+572670037+569932655+568485815+569593289
3658+571924281+572104987+569708237+568537161+571336775+576239232+577617850
3648+572978184+566723330+562816995+560927068+559227432+557260863+555924726
3638+555829803+556741203+558268246+560573428+564164839+568674290+571754359
3628+571028080+567580166+564038938+562244002+562707558+564061564+564419346
3618+564090695+564750291+566552826+568375899+569842764+571560851+573481825
3608+574606072+574565338+574289949+574788729+576274148+578420087+580823923
3598+583230976+585676642+588113750+589757316+589815098+589007042+589131026
3588+590626441+591693831+591199399+590373405+590498211+591203506+591623931
3578+591939198+592643603+593227926+593086757+593214302+595522086+600135530
3568+603898336+603563831+600704518+599310701+600295252+601484778+601109196
3558+599515128+597859034+596756797+595980370+594864988+593560993+593191162
3548+594133061+595076946+594523431+592818524+591507820+590931439+589774637
3538+587376758+585566692+586688578+590101680+592395908+591260946+587805398
3528+584562630+582606261+581529012+580851992+580183598+578861530+576765978
3518+574803243+573709050+573221738+572760510+572218565+571757200+571338110
3508+570933226+570800889+571157679+571694831+571819021+571495710+571194100
3498+570746565+569359526+567337297+566309136+566914681+567725682+567080257
3488+564837957+561890431+559173792+557533205+557344147+558024830+558583377
3478+558482840+557589994+555904324+553903318+552470033+551899232+551550829
3468+550777278+549554479+548191778+547131303+546882272+547469505+548163401
3458+548108973+546783379+544034495+540469442+537476560+536231956+536767602
3448+538120205+539323389+540112927+540568404+540420492+539235690+537136749
3438+534839372+533031532+531817051+530644229+528983514+527316226+526778868
3428+527529006+528279657+527829417+526437894+525292217+525165734+525906218
3418+526739400+526828811+525926551+524668529+523926504+523688017+523084011
3408+521669827+520027802+518884898+518246525+517837294+517950906+519063721
3398+520709991+521654560+521243036+519767955+517741070+515780800+514772458
3388+515035489+515694093+515618648+514610477+513237062+511880523+510361660
3378+508563063+507057790+506625213+507237194+508028683+508283464+508067467
3368+507799952+507540138+507153226+507079287+508041656+509801128+511059459
3358+510746964+509074473+507494543+507556432+509225261+510628080+510212071
3348+508572100+507291759+506875715+506720204+506349003+505894861+505651239
3338+505595340+505509797+505463722+505728054+506099802+505854571+504667852
3328+503140158+502124012+501948920+502479226+503296628+503476169+502037065
3318+499265931+496795619+495956549+496778709+498388728+499504623+499138763
3308+497746795+496865176+497051529+497299430+496874453+496430853+496684368
3298+497203994+497183319+496597387+495999988+495724805+495842457+496389092
3288+497100309+497404040+497076107+496480454+495960828+495465506+494999657
3278+495068495+496294751+498517026+500548771+501285284+500753609+499579829
3268+498197308+497105546+496953150+497760795+498731004+498994890+498032966
3258+495752738+492814831+490420374+489243240+488879946+488515181+487942394
3248+487745292+488295384+488896343+488588196+487536757+486619949+485944675
3238+484940407+483659621+482870289+482829177+482699716+481478355+479311774
3228+477497669+477140846+478187286+479677566+480442115+479755510+477951709
3218+476218047+475337387+474967282+474413562+473527904+472552561+471729203
3208+471254180+471195816+471463160+472014621+472795635+473329090+472855744
3198+471208105+469122104+467431334+466370858+465732998+465196633+464498321
3188+463715630+463218904+463044327+462694144+461849631+460853647+460256077
3178+460196481+460225406+459576045+457902082+455836551+454369240+453754965
3168+453453219+452830044+451562129+449759937+447950796+446597406+445682618
3158+444965137+444385401+443987877+443685925+443324960+442859384+442326340
3148+441595406+440391810+438826736+437542801+436950400+436633421+435854427
3138+434471564+433133339+432570547+432685974+432525499+431461156+430038619
3128+429129924+428760332+428418673+428034430+427866869+427777150+427394448
3118+426755116+426105309+425384611+424471431+423578687+422966569+422605912
3108+422312586+421908832+421304450+420667480+420286318+420114684+419796952
3098+419162550+418379311+417707631+417287993+417024312+416702986+416354275
3088+416235323+416300704+416092408+415437844+414819324+414640570+414539623
3078+413962797+413038595+412251009+411635125+410984326+410466035+410343180
3068+410327947+409763923+408448975+406935418+405855979+405143769+404232746
3058+402982734+402000784+401891485+402474952+402966440+402844988+402309992
3048+401764008+401208269+400512045+399863402+399454582+399124321+398698420
3038+398216893+397602960+396693409+395688422+394985318+394576497+394065908
3028+393174397+391987746+390898380+390326140+390195036+389819454+388692741
3018+387204721+386178579+385922531+386073935+386183303+386153317+386111555
3008+386012182+385556226+384616141+383516094+382632730+381932467+381143785
2998+380160329+379109096+378249283+377829029+377794216+377708399+377204245
2988+376428640+375840929+375663544+375638555+375238635+374194145+372908806
2978+372157334+372229322+372595524+372579128+372095581+371472064+370810448
2968+369941597+368921994+368144745+367837728+367749069+367498122+367005641
2958+366397562+365729442+365060637+364614026+364581780+364818933+364892974
2948+364458823+363562040+362591489+361924533+361614161+361432326+361158649
2938+360717378+360058842+359112527+357967056+356927598+356210665+355706203
2928+355214989+354749721+354363083+353884842+353156612+352361735+351792542
2918+351467587+351259463+351171695+351191515+351099810+350723509+350170987
2908+349631062+349163843+348761047+348389847+347984689+347571589+347279839
2898+347088659+346784825+346295459+345806949+345464536+345163235+344686774
2888+343958202+343159149+342576435+342240390+341824073+341071025+340198410
2878+339654445+339554354+339563220+339301079+338709431+338047096+337653508
2868+337672164+337892851+337942109+337686952+337279329+336804888+336219573
2858+335654727+335345348+335191137+334828666+334199329+333640919+333410168
2848+333442962+333506049+333334381+332782749+332041922+331517264+331361342
2838+331306504+331052716+330632154+330273585+330065666+329903034+329658933
2828+329240836+328569327+327711294+326961430+326559867+326381729+326103499
2818+325592876+324973638+324420089+324045773+323902961+323924972+323901147
2808+323614018+323029832+322335765+321764244+321357033+320925072+320295291
2798+319571374+319074888+319020187+319271306+319427125+319196887+318701668
2788+318271282+317941604+317419787+316594307+315744078+315138635+314743335
2778+314399588+314022910+313578113+313070947+312573640+312133840+311700750
2768+311203716+310636304+310056910+309584317+309314783+309115969+308652140
2758+307814337+306946616+306411072+306157113+305939061+305672573+305358538
2748+304939483+304410546+303851554+303294137+302718714+302155649+301676758
2738+301326780+301082850+300832690+300440130+299889216+299325022+298927840
2728+298758704+298690996+298493791+298044304+297428934+296766188+296035083
2718+295248729+294661086+294490034+294518309+294337775+293928612+293598865
2708+293439212+293257137+292975895+292732513+292607981+292487009+292190568
2698+291675872+291090796+290605161+290234679+289926806+289721112+289647036
2688+289545131+289189745+288564721+287867026+287282874+286890570+286693177
2678+286602739+286459055+286165301+285752527+285304084+284903959+284620971
2668+284448961+284299115+284098110+283852383+283624850+283476116+283398994
2658+283322864+283177434+282885393+282376669+281751372+281303922+281215743
2648+281317238+281260962+280854743+280192784+279550834+279195876+279226855
2638+279482269+279600777+279331482+278818000+278415906+278259060+278207217
2628+278131464+278013487+277825935+277516727+277118689+276775643+276599833
2618+276506160+276294698+275946843+275703461+275763622+276019721+276172939
2608+276043820+275680406+275195662+274671346+274278049+274247002+274559548
2598+274880908+274937355+274752063+274473559+274209639+274029618+273949569
2588+273925607+273898753+273786903+273518156+273173707+272968595+273011777
2578+273210796+273413341+273525772+273539499+273525122+273543538+273544976
2568+273435043+273218566+272999214+272877352+272886098+272975253+273054788
2558+273083645+273084535+273091398+273140177+273256375+273379897+273360248
2548+273086469+272602289+272102414+271803321+271726746+271635521+271309522
2538+270824949+270423060+270208380+270111678+270024731+269859173+269576271
2528+269241595+269007661+269018615+269303399+269687847+269858762+269645230
2518+269206816+268841230+268684845+268694345+268795121+268908031+268918130
2508+268748036+268449405+268175112+268058966+268088508+268092581+267923052
2498+267639757+267431633+267384856+267413182+267385472+267265903+267143733
2488+267133874+267260649+267459034+267626544+267621375+267329333+266816553
2478+266304852+265952256+265767169+265722412+265795700+265888329+265830188
2468+265535271+265121538+264810105+264698187+264684238+264609169+264403972
2458+264116363+263840752+263593416+263293981+262940906+262684225+262603440
2448+262574617+262483272+262383540+262328479+262216099+261936364+261581303
2438+261395189+261511386+261816607+262103257+262249406+262205402+261966658
2428+261646992+261433887+261402806+261455110+261432210+261251162+260971067
2418+260737595+260646079+260713616+260958162+261362208+261758363+261916612
2408+261801511+261634840+261620805+261686118+261626847+261474023+261499594
2398+261833089+262334607+262980751+264197045+266678517+271013750+277612402
2388+286902500+299395400+315495185+335322927+358711751+385188072+413860070
2378+443504912+472965694+501382843+528000400+552059844+572930501+590088672
2368+603144022+611984170+616809847+618446224+618225777+616488966+611607013
2358+601503058+585767697+565224835+540917389+515978997+496144511+486135992
2348+487476203+498821716+515671637+531012863+540045971+543446578+544585237
2338+545769903+547109121+547965477+548534875+549261907+549647792+548733449
2328+546281348+542714207+538250625+532756862+526345538+519441460+512037609
2318+503640854+494292410+484919286+476275863+467952021+458739097+447871996
2308+435713121+423269650+411335125+400197976+389840574+380091936+370689441
2298+361485418+352605767+344260702+336479591+329175934+322338024+315994991
2288+310126057+304744264+299955419+295827575+292286347+289178757+286369096
2278+283779043+281413581+279347844+277636518+276235718+275035649+273945632
2268+272911343+271888282+270864075+269885120+269003194+268214632+267479522
2258+266760945+266032082+265305222+264664538+264208752+263933244+263704941
2248+263384197+262961427+262541841+262193935+261863349+261472996+261054916
2238+260703826+260431074+260173024+259929590+259759924+259645062+259509884
2228+259371694+259294503+259220530+259039722+258798120+258653288+258646579
2218+258666347+258602849+258443042+258258314+258159147+258202775+258310619
2208+258344063+258270877+258177409+258128750+258111772+258097925+258073176
2198+258023832+257956551+257907995+257902278+257936783+258000264+258055855
2188+258044593+257959067+257856254+257754349+257593480+257354497+257154348
2178+257154725+257382498+257676901+257841621+257844753+257822400+257881500
2168+257969559+257971168+257859472+257692630+257520295+257353453+257198558
2158+257063380+256939926+256813066+256673557+256513048+256345710+256239269
2148+256240536+256269889+256214452+256139297+256258524+256670186+257249819
2138+257821955+258327786+258803785+259283258+259773360+260302845+260939746
2128+261744739+262736376+263896960+265191147+266604749+268165853+269868125
2118+271595265+273195957+274578118+275671438+276391024+276694413+276600193
2108+276142319+275373611+274385021+273271333+272101627+270935087+269813560
2098+268721901+267609480+266498068+265528237+264828538+264363819+263980945
2088+263580135+263172153+262794739+262449982+262134578+261889570+261775957
2078+261785011+261812721+261771559+261707684+261748264+261931246+262159806
2068+262341675+262469973+262538281+262517657+262463914+262503485+262685406
2058+262955796+263247581+263502431+263670265+263769056+263887187+264079051
2048+264298574+264465365+264573740+264677186+264762387+264754120+264673951
2038+264649408+264745802+264928869+265166740+265440794+265716079+265989756
2028+266296688+266637217+266971757+267280212+267586168+267945987+268399873
2018+268892046+269283836+269489034+269549314+269571256+269646411+269802692
2008+269980762+270092098+270126740+270155459+270233266+270352835+270461587
1998+270518872+270627932+271042144+271822422+272558576+272743680+272386720
1988+271927015+271681955+271666141+271764127+271865348+271946133+272102705
1978+272418212+272818475+273136344+273280918+273339128+273546722+274051817
1968+274646392+274917672+274759679+274495604+274434690+274602336+274922550
1958+275368648+275873692+276313252+276632507+276890951+277207878+277694386
1948+278390472+279278954+280305233+281216701+281542529+281114060+280413608
1938+280029554+280061201+280255855+280432076+280589521+280749089+280860408
1928+280973336+281402712+282366383+283489466+284211449+284630385+285158021
1918+285552191+285252105+284474719+284001784+284180179+284728833+285181212
1908+285272352+285074703+284845013+284730955+284708055+284776209+285074514
1898+285724920+286558187+287164161+287457213+287908274+288783663+289546294
1888+289578745+289094925+288701988+288635682+288826691+289183309+289604829
1878+290015875+290417096+290852583+291552332+292991299+295297303+297516736
1868+298156684+297011830+295445010+294642464+294693742+295081682+295398969
1858+295598193+295845443+296257721+296778751+297346917+298086477+299248173
1848+301060669+303475219+305668911+306241971+304973029+303381802+302751199
1838+303047503+303546590+303912211+304657214+306401282+308729707+310313403
1828+310636372+310477609+310274414+309691426+308792144+308238629+308350770
1818+308829353+309333507+309957435+311018150+312456912+313663622+314107529
1808+313985085+313986112+314715300+316398095+318674181+320608059+321416424
1798+321388080+321692086+323266026+325870968+327854003+327690995+326177780
1788+325289521+325786623+327043174+328312903+329507940+330676517+331619889
1778+332473986+334016228+336969779+340991678+344254198+345061672+343917091
1768+342248434+340944576+340808919+342309297+344597877+346185132+346966968
1758+347816444+348793601+349743853+351459304+354666882+358535735+361159197
1748+361802157+361466043+361351404+362062073+363654053+365595086+367133288
1738+368615524+371534638+376185737+379735215+379358469+376813567+374658728
1728+373414432+373016771+373434457+374406206+376077533+379386641+384805335
1718+390613852+393302147+391817584+388725398+386336897+385512718+386550499
1708+389335565+392844547+395720325+398215044+401939716+406997445+410887863
1698+412121239+411617770+409597629+406720003+405190118+406157862+408992734
1688+413058894+418771803+425569663+429545282+428283323+425331792+424200767
1678+425713776+429129239+432716337+435228377+437405638+440096740+442099970
1668+442051465+441467587+442651328+445697337+448704596+450271040+451419489
1658+454203459+459991814+469047651+478798754+483040725+482107794+482553858
1648+486114221+489859671+490703944+489970682+490629217+493880715+499842517
1638+508236328+517479169+523888747+525868530+527051004+530983835+538189283
1628+547180184+556517538+566173239+576245394+585712927+594224184+603523643
1618+615269590+627972087+637731406+644060096+649712862+656043400+662407554
1608+667790853+671979081+675475912+678730866+681722927+684336941+686775487
1598+689398537+692451255+695937748+699600120+703165070+706507587+709477740
1588+711996318+714328611+716736897+718977725+720665654+722139776+724539641
1578+728755870+734056399+738295083+741318157+745456818+751981104+759685811
1568+766634014+773138514+780941738+790735013+802345885+815984941+830769640
1558+842149794+848471707+853329150+857483489+859510305+859388785+858423814
1548+857736867+857870231+858625914+859296567+859198255+857157268+852265936
1538+846972322+844105752+843288111+842465952+840045822+836653190+834155699
1528+833415968+834043147+835594974+837991074+840152965+840238337+838605040
1518+837106819+835929068+834399286+832814256+832113890+833221741+836712205
1508+841209880+841970835+836803875+831222652+829416079+831242917+834718388
1498+836828042+835222747+831159393+828202248+827972011+829416284+830318612
1488+829231984+826595926+823818425+822140286+822110026+823322760+824885815
1478+826520618+828816626+831925414+834184247+833267747+829780433+826908112
1468+826295241+827220299+827852956+827160531+826632690+828595562+833269254
1458+837518276+836837148+831841822+826943986+823654116+821401718+819756715
1448+818592109+817791446+817300369+816958470+816457876+816041970+816738707
1438+819023350+821222622+820837387+818229466+815683572+814363215+814141193
1428+814707784+815950025+817382934+818203861+818307033+818145395+817283801
1418+814860522+811843131+810010610+809460313+809015379+807980165+806835276
1408+806389042+806786532+807504013+808133931+808799313+809562663+810153695
1398+810652440+811423870+811965883+811229095+809474621+808167204+807972909
1388+808179458+807913073+807511886+808343835+811415791+816379761+821638254
1378+825627258+828073745+829689447+831008846+832263753+833959213+836403167
1368+838977610+840828684+841978160+843018508+844175583+845171773+845601508
1358+845295826+844693840+844609016+845286584+846105731+846340007+845775607
1348+844823507+844369536+845060933+846673828+848622666+850628190+852216849
1338+852425384+851092635+849584830+849395669+850755529+852873125+854972579
1328+856865072+858792824+860969024+863436323+866334797+869942193+874211959
1318+878377663+881375406+882864796+883681889+885115276+887790769+891282944
1308+894559054+896869370+898455223+900382495+903394615+906993180+909935126
1298+911475589+911813380+911506465+910952471+910635697+911297656+913069862
1288+914692136+914646403+913068287+911315045+909814496+907825746+905334415
1278+903555227+903216888+903657646+903867208+903653538+903505318+903826541
1268+904813420+906772459+909874743+913510894+916402794+917771691+918134265
1258+918441043+918990177+919652067+920418361+921348759+922526989+924105858
1248+925871081+927178430+927827586+928187285+928141347+927090730+925243764
1238+923752937+923501819+924519163+926162523+927293652+926980986+925628452
1228+924813892+925520693+926727882+926287261+923508528+920295130+919288671
1218+921407773+925129227+927687376+927384775+925097940+923199970+923047231
1208+924058072+925248967+926873295+929911226+934380695+938829557+941583302
1198+942289076+942059729+942176456+942935015+943864180+944827713+946405898
1188+948995608+952209280+955470807+958456227+960761546+961997284+962556892
1178+963283820+964040393+963792150+962351848+960899770+960738269+962493838
1168+966180582+970895761+974852109+976939445+977905648+979045882+980386024
1158+981059621+980905240+980913592+982272904+985251888+988842717+991485485
1148+992392674+991926585+990671541+989033452+987983314+988865104+991747489
1138+995063717+997527731+999190192+1000534716+1002086474+1004460118+1007491134
1128+1010033400+1011662931+1013106382+1014411130+1014965466+1015299081
1120+1016370716+1017933908+1019547624+1021698493+1024783799+1028650255
1111+1033060916+1036979198+1038583672+1036743415+1031738026+1025223187
1103+1020032335+1018661453+1020864284+1023686833+1024676930+1024339960
1094+1025038203+1028339575+1033349825+1037584059+1040108114+1042047367
1085+1043820600+1044716424+1044910035+1045557822+1047411634+1049955748
1077+1051609652+1051382495+1050099655+1049625077+1051039775+1053156550
1068+1052881538+1048361407+1042175117+1039689264+1043824571+1052713122
1060+1062072690+1068504348+1070174066+1067350353+1064253203+1065711443
1051+1070781597+1073741823+1072310558+1069690519+1067878468+1065379813
1043+1061700600+1059391242+1060643958+1064440036+1067693553+1068288145
1034+1066331092+1063045192+1059488731+1056521317+1054720631+1053822205
1025+1053695071+1054933479+1057474718+1060558175+1063302883+1064576344
1017+1063753157+1061948980+1060385857+1058432843+1055792608+1054522776
1008+1056362622+1059535012+1060321845+1057771158+1054811275+1053877248
1000+1053739161+1052087242+1049400385+1048018755+1048906706+1050732381
991+1051570697+1050369122+1047567248+1045096457+1044582239+1045791140
983+1047427380+1048817295+1050276972+1051560976+1051008214+1047965560
974+1044504398+1042722813+1042319503+1041773040+1040315691+1037942458
965+1035331114+1033728967+1033513381+1033333874+1031184579+1026637406
957+1021793997+1018725465+1016283906+1011592415+1005349439+1002242910
948+1004421985+1007905465+1007865141+1005204231+1003520957+1002900898
940+1000990399+997058972+992035029+986592715+981430685+977856355+976772124
930+977877853+979896932+981376532+981914574+982268591+982395998+980979589
920+977965758+975541315+975575067+977515620+979699625+981146979+980853003
910+977624680+972490856+968987248+969379946+972354480+975003546+975724314
900+974892706+973725910+972840491+971899687+970978806+970985720+971689098
890+971348432+969555277+968082044+968101967+968799457+969230904+969617098
880+970199640+970397427+969774355+968671570+967137064+964705364+961914445
870+960596895+961989205+965247720+967943819+967725905+964244410+959963416
860+958239750+960023868+963035851+964669490+964860088+964699134+963617778
850+960501459+956628635+954765923+955923956+958847624+961753833+963269170
840+962779256+960689934+957798307+954846708+953435912+955713641+961283499
830+965991833+966039003+962289822+958232014+955529068+953744744+952432260
820+951686847+951893191+953788628+957234523+960411910+962359995+964414196
810+966920998+968039598+967754043+968692519+971812604+975083989+976276185
800+974783304+971590787+969107399+969529466+972152380+973599734+971824105
790+968587636+967004248+968076636+970310070+971747086+971755370+971000645
780+970123990+968897152+966790304+964731174+964684963+966567392+967817370
770+966738273+964436035+962685326+962599475+965523005+971782275+978338054
760+980678288+978067081+974459137+973432961+974985883+977363224+979213203
750+979539424+977936661+975590813+974067603+973007949+970925611+968314472
740+967734257+970380654+974710872+978908342+982153575+983120805+980491524
730+975230361+969962077+966266365+963930101+962907554+964246738+968621250
720+975177645+981737600+986136074+987389202+986282788+984865078+984135822
710+983598259+982759600+980815486+976019042+968923031+963979941+963931334
700+965579897+964689618+962316385+961779369+962753240+962303172+959566406
690+956324870+953719140+951717997+950745495+951454487+953630481+955870145
680+956099082+953417702+949258707+945571552+943086384+941809911+941453087
670+941800121+943496402+946085222+946776072+943925385+938014312+930093814
660+921157819+913824244+911457994+914162172+918266055+920511469+921745085
650+924211974+926613962+925861428+920453551+911640308+903720699+900763622
640+902207759+902165860+896342966+889296795+888961263+896846230+906770336
630+911843435+910614885+906394686+901750570+895657183+889328904+887931390
620+891574592+892819093+885788394+873976929+866624938+868398308+875757214
610+881799322+883608292+883413929+882479286+880010960+877635399+877002810
600+876822139
##END=
