##TITLE=<SNM>
##JCAMP-DX=4.24
##DATA TYPE=INFRARED SPECTRUM
##DATE=2/5/2025
##SAMPLING PROCEDURE=Instrument type and / or accessory
##ORIGIN=Admin
##XUNITS=1/CM
##YUNITS=ABSORBANCE
##RESOLUTION=4
##FIRSTX=4497.3318
##LASTX=599.83466
##DELTAX=-1.4281778
##MAXY=1.7872015
##MINY=0.24416761
##XFACTOR=1
##YFACTOR=1.6644611e-09
##NPOINTS=2730
##FIRSTY=0.26345232
##XYDATA=(X++(Y..Y))
4497+158280850+159414457+159754134+159278987+158794797+158607653+158035765
4487+156612507+155220978+155281551+156989338+159003248+159925736+159612272
4477+158904752+158576498+158849086+159597966+160455530+160731770+159923355
4467+158446382+157358577+157376338+158392434+159615978+160073471+159513973
4457+158835012+158981547+159598610+159450482+158055174+156279813+155339473
4447+155602517+156371809+156668407+156197449+155510181+155320046+155831541
4437+156646957+157142373+156949320+156280189+155784845+155926241+156537503
4427+157060511+157059866+156456715+155564039+154964630+154977218+155161873
4417+154843932+154199868+154140889+155050808+156392203+157504449+158022730
4407+157673473+156457252+154953780+153904596+153617523+153945688+154482984
4397+154681354+154268337+153612116+153307855+153459099+153712510+153855142
4387+153915697+153799367+153300191+152440729+151494732+150731814+150244276
4377+149954169+149811305+149986748+150698009+151846334+152996235+153615966
4367+153329251+152221875+150895484+149977580+149615118+149540571+149442245
4357+149224179+149130517+149583498+150640516+151598814+151480283+150066542
4347+148202703+146946428+146694691+147241745+148242774+149313248+150013363
4337+150068341+149524743+148723553+148213052+148348530+148766570+148705486
4327+148142550+147988441+148718414+149539058+149516605+148882120+148449336
4317+148348727+148232264+148173204+148501700+149101905+149487142+149380320
4307+148925155+148526650+148565093+149070401+149685333+150017840+149927124
4297+149496273+148986587+148786874+149100168+149718368+150349003+150988179
4287+151635484+151888304+151316845+150136980+149073785+148613114+148675907
4277+148960607+149285334+149563525+149757437+149979093+150419334+151046156
4267+151534481+151637937+151489002+151375466+151384598+151477131+151707122
4257+152087408+152429234+152576056+152625778+152769019+153096396+153580120
4247+154019403+154069161+153581248+152843128+152341499+152387354+152927891
4237+153509394+153547711+152887211+151999476+151466549+151427140+151668411
4227+151989539+152228160+152167390+151772261+151399334+151451670+151912332
4217+152460156+152912081+153298168+153630003+153818938+153813835+153748087
4207+153914712+154476520+155146242+155363538+154918883+154195840+153692617
4197+153502501+153341033+152970129+152533245+152436575+152853173+153469699
4187+153852760+153890648+153729018+153483987+153201140+152993352+153106208
4177+153773602+154901067+156002499+156675193+156973366+157057216+156775676
4167+156019562+155214729+154977988+155412884+156088640+156614441+156943501
4157+157117413+157007171+156513868+155884504+155524290+155480172+155410234
4147+155111076+154747424+154508606+154339116+154079045+153737326+153584363
4137+153909555+154620584+155271112+155611577+155834084+156150878+156396393
4127+156229643+155634710+155034639+154842446+155008767+155160960+155093099
4117+154921784+154871954+155073404+155490485+155961765+156322713+156524092
4107+156676035+156955837+157402820+157820510+157899758+157425953+156550001
4097+155927709+156154979+156838541+156857270+155870091+154821050+154668051
4087+155346564+156172042+156644253+156636984+156241210+155699187+155323735
4077+155274603+155342911+155074926+154331668+153635052+153644685+154341677
4067+155068068+155346689+155315731+155356913+155624146+155984075+156221800
4057+156259473+156183394+156051272+155825310+155566098+155430127+155378345
4047+155207477+154906618+154618865+154314730+153944972+153809824+154252814
4037+155027442+155502159+155552132+155741532+156457324+157300510+157643411
4027+157490967+157377305+157540224+157635031+157329391+156829410+156632472
4017+156952418+157535228+157919364+157736911+156915766+155820082+155110682
4007+155208372+155891881+156620421+157177628+157714906+158254046+158596516
3997+158769676+159067026+159489282+159638109+159351144+158941673+158700402
3987+158621530+158615281+158624878+158620044+158667904+158883911+159343355
3977+160101708+161057929+161790354+161882977+161387454+160720113+160303731
3967+160433883+161141904+162085466+162840541+163288652+163542976+163633164
3957+163490568+163201418+163084301+163480863+164530262+165982437+167108828
3947+167254701+166734683+166482400+166711371+166721129+166119715+165422294
3937+165405015+166568416+168844816+171221716+172152852+171175396+169623741
3927+169008217+169425531+169897599+169889219+170030580+171078314+172690775
3917+173491275+172407301+169937348+167612158+166448524+166524943+167876276
3907+171041645+176205579+182071340+186350584+187695775+186125338+182100865
3897+176987638+173304078+173011115+175675392+178263966+178284485+177444826
3887+178685076+181473435+183019092+183109441+183366898+182861402+180150016
3878+177524808+178086401+181730266+186347307+190438906+192683148+191877509
3868+189634789+188742292+189023438+188160627+185623834+183282279+182937051
3858+185774846+192738833+202432880+207453807+201957858+192252334+185135545
3848+182154849+182799808+185998087+190318960+194579082+198316053+200939399
3838+201207456+199070430+196467370+194740156+193436648+191934733+190695110
3828+190288647+190815594+193055699+198003519+203870139+206324873+204970282
3818+203217517+201219595+196989089+191956971+189415828+190738100+195234551
3808+200458253+203676943+205463549+208325122+211597187+212177670+210502846
3798+209296384+208577029+207222921+205973343+206226932+208109581+211111709
3788+215104346+219862301+224684231+229647360+236136074+244687813+253356328
3778+260238614+266582870+274933964+286367705+300327085+314860358+327137733
3768+335611638+340617650+343015893+344534388+347251199+351067847+353825875
3758+355059930+357541718+364248319+375969061+390433973+402585834+410035532
3748+416867505+427418292+440658245+450523089+455226612+460412069+470799634
3738+487067194+505832908+520821794+528268949+531022501+534465793+541003262
3728+549672691+558253919+565151818+569906980+572087999+571466155+569375593
3718+567620035+566723205+566463617+566591889+566180000+563669277+558532415
3708+552052241+547140052+546879856+551391866+556633688+558510427+557666238
3698+557307958+559332128+564002204+570716218+578055657+583234990+583183030
3688+578778844+574374765+572189914+572078509+573890540+577493760+582073093
3678+586303313+588086409+586330995+584288024+584957424+585793735+582049566
3668+574675642+568703866+566048075+564717656+562252913+559235691+558351180
3658+559947311+561037265+560569835+561983943+568036077+576915246+582417659
3648+580324339+573903467+568012586+564426233+562656852+561749207+561461580
3638+562452949+565395041+569824545+574593350+579611609+585119250+588510867
3628+586476097+581718501+578970249+579668762+583766843+590546748+596676554
3618+598440957+597442892+597903662+600460759+602819468+604053415+604883494
3608+604950961+603596835+602679020+605102939+610758010+615698955+616728068
3598+615766565+616940924+621032881+624883263+626196493+626714667+628923939
3588+631683257+631487160+627868757+623943245+622666541+624845590+628838783
3578+631708825+631742487+629609919+627062097+625759251+627082652+631262702
3568+636016574+637656752+635023487+630312372+626610172+625850495+627321291
3558+628113412+626044372+622068654+618886777+617894405+618668836+620383213
3548+622410283+624119503+624883191+624218769+622080114+619118254+616211184
3538+613923057+612796397+613485313+616089143+619684986+622487848+622546649
3528+619356248+614939278+612063578+611337204+611063615+609745227+607415274
3518+604736744+602282960+600778001+600893668+602505484+604673002+606227235
3508+606332374+604980039+602958698+601256353+600409765+600184770+599782263
3498+598448800+596381908+594867532+595109179+597014173+599054708+599289229
3488+597161818+594356413+592811455+592231187+590659979+587306643+583704497
3478+581802225+581919002+582809673+583184462+582848634+582425465+582470837
3468+583009386+583597246+583719287+583249063+582587829+582161186+581594275
3458+579987222+577429158+575238005+574144291+573578848+573195643+573297058
3448+573445133+572719977+571422502+570737239+571105761+571916432+572201481
3438+571265690+569218529+566902470+564941219+563333020+562216924+562093701
3428+562727219+562723316+560931733+557835943+554937754+553355302+553417146
3418+554746492+556331701+557072434+556506920+554966259+553610808+553944272
3408+556029105+557691699+556846329+554090557+551469968+549861017+549012710
3398+548866497+549339048+549530990+548543381+546685442+544910833+543632589
3388+542735902+542051605+541396566+540649064+540131679+540414257+541532179
3378+542657585+542688382+541353880+539666397+538968099+539566415+540354633
3368+539920220+538052039+535961763+534907762+534920009+535283088+535826544
3358+537068154+539121366+540981060+541333576+540020202+538095333+536263141
3348+534384038+532895803+532941783+534489141+536039614+536632452+536562980
3338+536242300+535827081+535521692+535213044+534383608+533023144+531862321
3328+531471597+531846171+532704111+533477611+533343681+531937200+529817954
3318+527866156+526407572+525226159+524390815+524580609+526155397+528297024
3308+529813979+530499816+530930469+531364452+531628302+531583754+531046458
3298+529802842+528145941+526849291+526301180+526061324+525514825+524730438
3288+524387198+524931298+526124600+527334948+527958296+527878941+527838547
3278+528883774+531155930+533552884+534689069+534058631+532273565+530236325
3268+528273175+526411010+525186374+525253052+526295809+527196041+527212585
3258+526369864+524998406+523535131+522462544+521998659+521902580+521902903
3248+522215991+523093770+524000341+524014092+522972481+521422581+519705519
3238+517896281+516311287+515328083+514892846+514668245+514303482+513401173
3228+511948820+510846762+511066923+512192437+512677664+511715087+510032367
3218+508701159+508028286+507785028+507804079+508037847+508411169+508870327
3208+509259870+508985349+507414929+504957420+502902418+501858372+501206090
3198+500239967+498956244+497661133+496639755+496128493+496003802+495706112
3188+494843982+493634601+492524092+491618990+490726528+489722984+488630881
3178+487478653+486299495+485200087+484261431+483455344+482658997+481602633
3168+480071103+478388097+477347489+477327184+477652269+477159378+475436156
3158+473256033+471706097+471132597+470994406+470515444+469435445+468260728
3148+467671436+467617184+467332600+466334929+464982128+463886193+463189828
3138+462638567+462096150+461662059+461288523+460722615+460017656+459570351
3128+459389080+458941023+457936655+456599252+455184034+453857589+452821422
3118+452035102+451137305+450016518+448974048+448096198+447124703+446096916
3108+445437292+445295735+445343255+445281876+445152709+445107373+445141679
3098+445063470+444614625+443743901+442779998+442100822+441667555+441160519
3088+440551030+440191567+440228129+440262471+439908129+439373913+438971586
3078+438365678+437132089+435839950+435522565+436133450+436556727+436184659
3068+435490264+434890121+434037481+432616211+431093312+430148138+429705560
3058+429021765+427653637+425952832+424555913+423789074+423639782+423871939
3048+424096755+424004079+423516308+422656864+421580697+420774323+420695147
3038+421041288+420899050+419793339+418111550+416435276+415005626+413895009
3028+413166236+412767848+412584643+412522620+412395924+411952164+411101637
3018+409974475+408883053+408304074+408495515+408993814+408956034+408147405
3008+407141210+406450897+405924846+405160478+404167390+403318581+402797615
2998+402429415+402046425+401693802+401408144+401042164+400375486+399321306
2988+398046214+396913681+396270208+396189062+396305266+396027558+395153503
2978+394125429+393419825+392981580+392505162+391898824+391250481+390623194
2968+389940795+388955084+387578899+386284612+385677021+385639707+385445508
2958+384720066+383773173+382992189+382392333+381825923+381305350+380936506
2948+380669720+380311726+379748109+378978656+378000787+376888631+375924907
2938+375389509+375232876+375144675+374912983+374565732+374186109+373743208
2928+373150156+372433988+371753273+371185646+370606058+369933221+369365271
2918+369117071+369048100+368813114+368265254+367545076+366903357+366501173
2908+366277037+366046527+365756966+365460172+365050252+364324774+363285097
2898+362136199+361094696+360341680+359975879+359927177+360055413+360246317
2888+360264402+359762486+358682809+357444923+356549526+356134629+355944799
2878+355585874+354848184+353890727+353044354+352430030+351924104+351450909
2868+351088939+350864947+350598233+350064303+349312397+348694599+348452487
2858+348364859+347964394+347060975+345914369+344939401+344387065+344282714
2848+344494818+344793188+344955695+344886151+344589643+344084970+343444971
2838+342841713+342409627+342112940+341807264+341361750+340726907+339932422
2828+338998744+337911153+336759068+335780985+335175112+334947145+334928201
2818+334875130+334696724+334615328+334861129+335203939+335086948+334239715
2808+332907469+331507935+330308760+329439468+328933900+328615977+328169997
2798+327513740+326916498+326605343+326466758+326237537+325773079+325079185
2788+324272597+323526564+322951524+322541963+322223216+321885133+321404166
2778+320711096+319855269+318996111+318284885+317724241+317210043+316707483
2768+316255021+315823043+315345407+314843957+314342435+313731979+312932625
2758+312128794+311610262+311371981+311103441+310595080+309903263+309136674
2748+308397337+307869889+307628708+307447580+307094492+306660043+306333812
2738+306046829+305539327+304656499+303531415+302541479+301981873+301726761
2728+301389716+300821695+300212421+299738330+299372726+298997972+298507928
2718+297890847+297324957+297015521+296867267+296549595+295938548+295243866
2708+294682434+294292032+294068487+294012712+294008164+293869346+293531710
2698+293039499+292403314+291640002+290883727+290286502+289849189+289457282
2688+289024015+288531571+288013953+287569441+287331483+287352664+287497248
2678+287485735+287118752+286470982+285786632+285196516+284624914+283964699
2668+283278594+282798326+282687959+282808622+282810466+282502606+282030413
2658+281647137+281422087+281228909+280947119+280603234+280303073+280072259
2648+279828660+279499869+279080299+278563146+277930524+277279960+276841751
2638+276721339+276713228+276566138+276341501+276252531+276223220+275929988
2628+275285513+274598691+274193231+274055737+273945908+273740554+273522130
2618+273341897+273092300+272693357+272235345+271831102+271465408+271083439
2608+270724084+270475758+270350906+270282258+270239537+270243870+270233055
2598+270051103+269655902+269205321+268850925+268573898+268297730+268042582
2588+267883012+267829798+267839055+267888223+267951732+267944910+267803514
2578+267601759+267477641+267435976+267321097+267004177+266535296+266079021
2568+265749173+265562638+265517410+265606828+265753954+265830642+265769155
2558+265614760+265480239+265466004+265593005+265801331+265998752+266071626
2548+265908045+265513972+265055888+264702299+264472433+264263535+263965218
2538+263557483+263140868+262838719+262668549+262543321+262364593+262102355
2528+261853152+261796178+261986616+262219221+262199884+261859615+261431648
2518+261186187+261146617+261141281+261072920+260989786+260943663+260947566
2508+261012114+261090807+261079509+260954907+260807387+260704666+260611237
2498+260445579+260183520+259917683+259773691+259735660+259641766+259396377
2488+259097648+258903593+258826404+258730952+258539421+258333226+258190702
2478+258071006+257939243+257812690+257609413+257192207+256629682+256184204
2468+256015592+256075645+256247964+256415556+256433604+256203882+255787176
2458+255349272+254988126+254680302+254389666+254139873+253975808+253921234
2448+253961753+254025083+254036811+254010419+253989309+253918852+253699175
2438+253343526+252976078+252706105+252583509+252630527+252828862+253073660
2428+253204941+253138584+252944117+252743992+252585353+252476400+252454037
2418+252532461+252666194+252797492+252864654+252810778+252678853+252608737
2408+252674843+252836132+253034985+253199533+253221145+253104117+253034753
2398+253161521+253442469+253837187+254520624+255829755+258140997+261889839
2388+267615027+275898923+287279540+302167728+320689789+342548356+367150448
2378+393942869+422514339+452248208+481942579+509904632+534536482+555138291
2368+572179028+586139947+596231577+601152504+600554689+594953369+585049098
2358+571356361+553801568+531711847+505333320+478395294+457372036+447155249
2348+449280333+462575505+482604888+501896438+514780832+520932662+522923242
2338+523358049+523680914+523911782+523435829+521964210+519595689+516286865
2328+511689339+505457796+497487418+488074713+477951356+467769234+457573683
2318+447159475+436702403+426619009+416981094+407335051+397133627+386333457
2308+375431980+364874138+354706054+344928479+335822310+327673382+320407318
2298+313697387+307309353+301242464+295622236+290519251+285851215+281475677
2288+277380909+273719605+270641756+268158500+266177499+264585199+263252273
2278+262042086+260908569+259933672+259159850+258451919+257669861+256888321
2268+256263882+255791313+255383220+255060319+254857097+254662827+254345029
2258+253939730+253571529+253250419+252869596+252378907+251859230+251408899
2248+251030475+250670440+250318909+250007754+249742938+249507934+249308597
2238+249157585+249071569+249126609+249382169+249698229+249831694+249780199
2228+249792052+249979035+250169348+250196170+250119231+250108972+250244674
2218+250471872+250705265+250928935+251177368+251457690+251756652+252099588
2208+252528827+253025460+253512747+253953570+254389452+254867428+255393551
2198+255963345+256556307+257113603+257596557+258030469+258443772+258827335
2188+259167263+259474317+259810109+260266224+260829625+261328228+261613922
2178+261715587+261744324+261761764+261778219+261771683+261686384+261479705
2168+261174710+260849715+260595910+260457271+260363502+260178202+259891005
2158+259664487+259593476+259577827+259548946+259612294+259864469+260293493
2148+260888694+261677610+262770483+264473454+267102350+270627003+274758136
2138+279319851+284295997+289663674+295398548+301522034+308047329+314936634
2128+322098848+329457696+337067250+345047118+353351319+361705260+369745253
2118+377177153+383913370+390048906+395605141+400410652+404357041+407644272
2108+410631449+413504750+416220737+418713770+420929739+422726300+424034267
2098+424993370+425701445+426101409+426193978+425917989+424824740+422300803
2088+418046590+412067222+404346620+394773343+383452493+370991805+358248504
2078+345877019+334349759+324109374+315340572+307840812+301363216+295904528
2068+291563762+288245090+285565575+283122820+280843234+278889359+277333192
2058+276151116+275313194+274663615+273999999+273369131+273008899+273054610
2048+273521002+274427375+275823184+277813962+280568677+284283249+289204212
2038+295579748+303453420+312575740+322482267+332550155+342169484+351025591
2028+359084206+366370860+372951302+378916776+384214068+388630286+391887472
2018+393638769+393606146+391840059+388663518+384379869+379138405+372954525
2008+365817306+357901539+349645252+341507390+333712052+326287743+319225869
1998+312593216+306679953+301916985+298315162+295165263+291744030+288112628
1988+284758898+281898291+279550576+277800139+276616434+275738583+274916918
1978+274092658+273333661+272702435+272174163+271732337+271533179+271716778
1968+271995435+271800341+271019608+270202008+269842330+269867827+269974273
1958+270082205+270228453+270319859+270258283+270134237+270142115+270407630
1948+270999428+272044065+273566033+275020768+275399031+274388754+272955917
1938+272168291+272119660+272306518+272437458+272580394+272852211+273234735
1928+273742524+274654645+276164438+277814159+279006888+280015517+281370199
1918+282503465+282413743+281481676+281109232+281960601+283525953+284918683
1908+285680419+285984161+286262817+286730946+287297535+287839038+288446916
1898+289344874+290475025+291392070+291975060+292799446+294090796+294939032
1888+294494252+293272856+292267790+291720986+291353001+290966108+290522438
1878+290087881+289789153+289778446+290467595+292528184+295971672+299107892
1868+299433782+296581519+292848058+290361865+289489135+289491266+289617318
1858+289548920+289316620+289101365+289066683+289329404+290000290+291247307
1848+293440108+296803811+300220048+301144166+298750309+295463866+293590278
1838+293244190+293409991+293685175+294849417+297687839+301365007+303680206
1828+303824414+303142946+302424952+301172993+299518903+298526209+298617256
1818+299178133+299625259+300194462+301477272+303377252+304847976+305001566
1808+304236195+303764754+304522032+306724394+309733916+312181757+313019715
1798+312778784+313213054+315678477+319704042+322486421+321406386+317876971
1788+315404744+315471602+317201735+319281232+321209001+322738453+323553027
1778+324160260+326014905+330227650+336137009+340763792+341360031+338811349
1768+335611531+333278892+332892178+334910081+337935003+339732279+340212136
1758+340779297+341625886+342611847+344990467+349879307+355883600+359729004
1748+360113318+358868342+358146588+358853481+360835252+363067479+364389662
1738+365544827+369030804+375397101+380311690+379277277+374795884+370720257
1728+368017913+366915139+367509301+369254689+372144785+377552910+386312472
1718+395769868+400097170+397458175+392269782+388473437+387388103+389315979
1708+394038303+400036471+405099708+409370394+415272233+422990686+428543914
1698+429577538+427681318+423455431+418288237+415666360+417073843+421277384
1688+427310002+436068527+446819278+452983857+450173976+444249218+441093267
1678+442159658+446504937+451664932+455731142+459674487+464547142+468039672
1668+467723540+466344741+467978974+472851593+477826199+480583189+482692623
1658+487209790+496076748+509652492+523829562+528787588+525817779+525668593
1648+530515823+534791092+533190664+528702933+526650329+528703112+534714638
1638+544041505+553892670+558445289+556095640+553028821+554133851+559748743
1628+567753929+576107512+584456225+592651849+599481601+605063620+611881734
1618+621339846+630633875+635519672+637068821+638959526+642191323+645664623
1608+648337495+650174414+651702291+653202737+654580211+655987551+658050002
1598+661152095+664906290+668558498+671790367+674952047+678366690+681691594
1588+684397840+686589638+688795903+691270601+694024475+697419852+702377270
1578+709425787+716690955+720493781+721531273+724538397+731572590+740374802
1568+747693471+753787145+760893746+770292771+783391847+802946924+828630770
1558+847878023+851536820+849482032+849392149+851794367+854774633+856352501
1548+856358445+856814882+859509812+864571724+870716607+873210786+865435179
1538+851745737+842452280+839327556+838026715+834528061+829886346+827572221
1528+828488460+831037429+833871446+837039644+839771459+839990832+837862991
1518+835466646+833081617+830290930+828202695+828397288+831721618+838475560
1508+846843324+849545703+841512621+830869765+825177165+824846565+827664468
1498+830769282+831333650+828953491+826659348+827266474+830429014+832879719
1488+831636031+827309446+822624831+819476113+818132301+818140537+819685818
1478+823378348+828893688+834723227+838637279+838268864+833807847+829014154
1468+826993385+827805703+829239543+829174583+828602695+830672451+836939805
1458+844516593+846262053+840383669+833405197+829441870+828477359+829155604
1448+829841655+829459561+828239580+827066152+826570038+827411577+830327814
1438+834579055+836723082+834293433+830245379+828261137+828015265+826865113
1428+824020711+821498815+821014375+822333264+824380890+826241443+826607280
1418+824187587+819773338+815415311+812252198+810451878+809539506+808893204
1408+808698683+809485075+810544554+810570266+810028100+810609801+812715869
1398+815111426+816413699+815902688+813839878+811820901+811381438+812215027
1388+812519199+811125897+809240276+809236695+812216460+817378353+823038510
1378+828035748+832202763+835588042+837941487+839417296+840770061+842301448
1368+843895072+846122250+849621692+853289155+854795475+853374240+850481781
1358+847667029+845600496+844517023+844408017+844987855+845797881+846468320
1348+847062410+848037951+849694315+851830034+853998913+855792000+856838445
1338+857027380+856868167+857200199+858445677+860394682+862610902+864692691
1328+866293406+867372223+868375696+869957288+872669264+876588473+880740233
1318+883609846+885028502+886592404+889611130+893757017+897949028+901547449
1308+904415343+906529504+907991848+909230307+910765203+912622462+914354385
1298+915833274+917298555+918417909+918246808+916462530+913973938+911913993
1288+910364487+908471561+905754070+902823222+900655704+899491444+898576780
1278+897068026+895283963+894495781+895211411+896504660+897512502+898522134
1268+899876833+901060860+901628738+902010403+902815416+904060464+905436649
1258+906926424+908822716+911030914+912577771+912356321+910613726+909047747
1248+908902071+909531113+909374336+908065187+906853729+906880372+907779923
1238+908204274+907454910+906239012+905614912+905591635+905259388+904088181
1228+902338424+900361774+898462474+897289691+897434221+898723029+900445212
1218+901942149+902817851+903287107+904284779+906520981+909575661+912189875
1208+913282157+912858594+912203698+912792560+914916104+917945931+921603940
1198+925966049+930449841+933860976+935582371+936124537+936460651+937309925
1188+939042063+941824729+945328181+948601446+950980030+952636895+953915103
1178+954976589+956192702+957827866+959215869+959361187+958863712+960030765
1168+964100735+969041536+971457004+970940693+970437489+972119707+975236195
1158+977922746+979282960+979711178+980387990+982165679+984384836+985619714
1148+985768899+986407394+989038440+993258239+996549481+996659561+994246457
1138+991978312+991480335+992448643+994232634+996522766+998537232+999550731
1128+1000047490+1000617588+1000843264+1000662852+1001430408+1004029295
1120+1007340734+1010201179+1012829001+1015256501+1016889087+1018064091
1111+1019805110+1022243210+1024759877+1026999589+1029085818+1031486747
1103+1034524739+1037463251+1038878469+1038586473+1038348048+1040070876
1094+1043864534+1047827073+1049458084+1047512087+1042678788+1037350234
1085+1034790737+1036395391+1040175227+1043610282+1046677065+1050089131
1077+1052732351+1053575108+1053588787+1053674087+1053240856+1051825423
1068+1050258226+1049648594+1050184028+1051754160+1054624633+1058224486
1060+1060272399+1058748532+1054910541+1052760498+1055256610+1061912290
1051+1068887897+1071025120+1066475151+1059389105+1055627604+1056699761
1043+1059459579+1060859542+1060909032+1061104770+1062193686+1063866164
1034+1065590210+1067373055+1069353286+1070995756+1071068020+1069096599
1025+1066709206+1066200916+1068358551+1071835433+1073741823+1072091117
1017+1068094916+1064240739+1060909533+1057372634+1054718312+1054436557
1008+1056013566+1058482749+1061548816+1063447042+1061711251+1057391613
1000+1054136898+1053081859+1052253856+1050281001+1047947109+1046732714
991+1047644728+1050341306+1052466353+1051442540+1047204549+1041859021
983+1037383967+1034411149+1032550166+1031045709+1029284278+1027408183
974+1026545946+1027758908+1030688109+1033586799+1034435429+1032099961
965+1027037118+1020771913+1014453709+1008439103+1003414148+1000607275+999940776
955+999120007+996221459+992255769+989175593+986966678+984489831+981522743
945+978797804+977068745+976532309+976485612+975841602+974588461+973790682
935+973675946+973183699+971895536+970970559+971560424+973239635+974427172
925+974141836+973167871+972783413+972770808+972095571+970938186+970465421
915+970825456+970855751+969866674+968512763+967772925+967834662+967817616
905+966472729+963771639+961447559+961093540+962160253+962676922+961755312
895+960483549+960117569+960164122+959056442+956613830+954427189+953452651
885+952840154+951686135+950679081+950958902+952100387+952270342+950444668
875+947567034+945244672+944494163+945723239+948389593+950920657+952192634
865+952464290+952185257+951179636+949671168+948576093+948429558+948971294
855+949652547+950053477+949820138+948725564+946868664+944739391+943309992
845+943672391+945907733+948359656+949405958+949477865+949821213+949934731
835+948092226+944724780+942681093+944029919+948155610+952423395+954191773
825+953092257+951482661+951978990+954811289+957866470+959005448+957856586
815+955792559+954879901+955919972+957663927+958381635+957564518+956153669
805+954887135+953252902+951098848+949972260+951289501+954004128+955395281
795+954068443+951175697+948627301+947445279+947736702+948944221+950300138
785+951607496+953334620+955830375+958612181+960636602+961355742+961446055
776+962354702+964830403+967593516+967908717+964290815+958501241+954059777
766+952738668+953803734+955667653+956922442+956617769+954899454+953652400
756+954707941+958029048+962081757+965227180+966852174+967327160+967127053
746+966558889+966519211+968430686+971988714+974071219+972142698+967680248
736+964216187+963808667+966288020+969649450+970817649+968653784+965872837
726+965785818+968924294+973051631+974402176+970631365+964006554+959203980
716+958735081+961466323+963940305+963883152+962788507+964072230+968658153
706+971955339+968749182+961004301+954883339+952804415+951940888+948491581
696+942003708+935502084+932349571+933579937+937547418+941696385+944224369
686+944104190+941113395+936216569+931220906+928158420+928073192+929778759
676+930280674+927931312+924284690+920500915+914650750+906136451+900861899
666+902021432+905426765+908092260+909836072+910160441+907678724+902149132
656+895183479+889451488+887389395+890319240+897824337+906796791+912659776
646+912607207+907948661+902011764+895791250+889099689+883343704+880363796
636+880469365+882759426+885356523+884562110+878231444+869625757+863309559
626+860556687+860034503+860368684+860996150+861800733+863650471+866418383
616+867320513+865090685+861540608+857802956+853400382+848444397+844278885
606+843170919+847014282+855788347+866479046+871980706
##END=
