##TITLE=<SNM>
##JCAMP-DX=4.24
##DATA TYPE=INFRARED SPECTRUM
##DATE=2/5/2025
##SAMPLING PROCEDURE=Instrument type and / or accessory
##ORIGIN=Admin
##XUNITS=1/CM
##YUNITS=ABSORBANCE
##RESOLUTION=4
##FIRSTX=4497.3318
##LASTX=599.83466
##DELTAX=-1.4281778
##MAXY=1.8270347
##MINY=0.31426033
##XFACTOR=1
##YFACTOR=1.7015587e-09
##NPOINTS=2730
##FIRSTY=0.3305414
##XYDATA=(X++(Y..Y))
4497+194258010+194197024+195336969+196787941+197778013+197846916+196804107
4487+195021319+193533339+193385304+194604749+195999183+196366432+195778971
4477+195287666+195625227+196618276+197635076+198194811+198227651+198029420
4467+198000766+198233344+198335980+197935243+197301788+197125835+197641994
4457+198334421+198588104+198220243+197271680+195883761+194574484+193995552
4447+194146266+194353185+194223909+194114232+194537580+195527179+196630239
4437+197301263+197255129+196486566+195131574+193616569+192811014+193422120
4427+195072690+196451939+196626788+195869014+195004155+194420827+194084720
4417+194088135+194565639+195229919+195539510+195307212+194858765+194704916
4407+195122519+195814981+196077124+195581037+194737826+193969350+193173656
4397+192274363+191648930+191604250+191931828+192273680+192497431+192526400
4387+192135419+191180621+190003545+189373628+189740404+190664235+191350199
4377+191501911+191234006+190609291+189762945+189003822+188494371+188258238
4367+188436801+189069572+189771737+189991827+189527337+188689293+187967248
4357+187554199+187394307+187657045+188652004+190180356+191479860+191867356
4347+191155032+189714149+188379562+187842859+187962607+188055260+187807357
4337+187431386+187036236+186398262+185456181+184689684+184724328+185617842
4327+186804219+187663473+187846152+187262404+186285082+185739779+186048441
4317+186608754+186597090+186027633+185480964+185278319+185444253+185947013
4307+186515961+186752725+186743775+187049600+187890622+188782979+189093322
4297+188655857+187812576+187045431+186627005+186549169+186656640+186793342
4287+186929764+187153007+187416778+187458008+187143198+186693105+186376824
4277+186238178+186272804+186628213+187464821+188646452+189642601+189927093
4267+189515655+188882358+188321449+187655241+186653259+185571830+185087496
4257+185598733+186769785+187966671+188902920+189551700+189806609+189635613
4247+189241900+188808586+188402069+188128542+187990928+187723654+187202889
4237+186847725+187194482+188152834+188938475+188795379+187820423+186978210
4227+187127821+188124461+189056629+189249956+188798760+188215239+187844313
4217+187706069+187840057+188412875+189181194+189356621+188606185+187660811
4207+187408669+188028848+189228378+190496742+191101350+190735660+190040098
4197+189761369+189799516+189694147+189523729+189687859+190102573+190155222
4187+189521452+188696439+188437133+188844981+189327459+189427205+189418991
4177+189933503+191084746+192260737+192851894+192858689+192550027+191893225
4167+190778974+189486142+188446031+187804764+187581242+187999248+189217204
4157+190797294+191866585+191935068+191300107+190590901+190222829+190344784
4147+190908355+191566786+191841312+191683031+191604320+192003603+192618335
4137+192863839+192522179+191856147+191169219+190585892+190270557+190492030
4127+191246389+192077708+192531287+192557699+192248231+191539638+190532086
4117+189733538+189602318+190036823+190509282+190574192+190186626+189638591
4107+189272813+189252444+189535429+189936428+190189919+190122365+189805856
4097+189440954+189190406+189220357+189686301+190449364+190960707+190740477
4087+189991022+189500505+189818379+190650924+191167538+190792618+189668716
4077+188564343+188310397+188992473+189804683+190028678+189803054+189518229
4067+189104006+188527947+188284720+188710188+189398481+189773629+189761807
4057+189623633+189522328+189478313+189512362+189641936+189786362+189858260
4047+189986520+190359829+190772756+190774333+190399202+190205384+190424371
4037+190566293+190113485+189303009+188928229+189445999+190444863+191077547
4027+190976820+190610097+190692329+191345470+191996054+192115645+191818175
4017+191585597+191640681+191890458+192261577+192673821+192836831+192537066
4007+192074240+191994408+192434991+193052209+193451545+193399614+192845868
3997+192088252+191700178+192002903+192795846+193673999+194310379+194554990
3987+194628026+194955114+195505391+195672832+195050376+193968650+193175846
3977+193248654+194170384+195255736+195755098+195627469+195353626+195105477
3967+194704916+194344901+194619234+195679697+196892557+197524330+197425425
3957+196900228+196285199+195882763+196073166+197144191+198788175+199986619
3947+200041441+199601769+199801611+200603663+200850218+199900815+198360728
3937+197298408+197532545+199355109+202148829+204303840+204526277+203408873
3927+202627454+202826964+203217104+203183914+203280280+204164983+205502635
3917+206166093+205280216+203117305+200865578+199595446+199698117+201295372
3907+204757857+210227248+216480633+221054690+222397491+220761318+216888709
3897+211987653+208374699+208089244+210771028+213264020+212977094+211786671
3887+212905739+215898689+217773640+218176128+218896106+218955183+216399698
3878+213158564+212540575+215009204+219033159+223274628+226014053+225424034
3868+222948014+221824164+222353231+221950743+219308823+216302088+215538184
3858+218625696+226128354+236035485+240780485+234917117+224812175+217216252
3848+214077176+215193774+219241794+224410475+229563235+234153598+236810931
3838+235919502+232361177+228741585+226132312+224058622+222343318+221546416
3828+221792935+222765703+225255630+230515406+236724198+238877563+236282320
3818+233166048+230774256+227328322+223117836+220596382+221521877+225830201
3808+231029077+234170692+236225274+239850593+243636610+243929141+241672597
3798+240035759+238805315+236722832+234902825+235167525+237653862+241472999
3788+246078179+251060294+255746550+260359068+266440004+274573402+282780238
3778+289094505+294706764+302344372+313425550+327308627+341351229+352376954
3768+359537497+363865664+366115080+367522843+369952099+373631732+376562014
3758+377446297+378245564+382274895+391028927+402136762+410225970+414207031
3748+419531120+429832507+442084719+449057609+450863622+454732553+465164110
3738+482704260+503332606+518659597+524392970+525753058+528893062+535067281
3728+543480791+553187974+562176703+568510026+572402602+575335932+578289614
3718+580886312+581954920+581636047+581718191+582541348+581188090+575456784
3708+566908970+558940193+554718831+555401309+559086967+562595340+564605855
3698+565937674+568012117+571890647+577575574+583968622+589277544+590649997
3688+586695173+581004641+577724975+578503154+582925410+588838134+594095703
3678+597776456+598652822+595817820+592468165+591763933+591313735+586870986
3668+579405022+572772128+568193465+565243496+563897489+564243195+565678666
3658+566936994+566996299+566938850+569926301+578403425+590869351+598890182
3648+593665191+579251453+566019748+559259942+558311590+559727445+561016108
3638+562135964+563771138+565979709+569137403+574572536+582319016+587810230
3628+585430155+577830238+571635597+570265526+574385373+582171787+588992194
3618+591432344+591411467+591997019+593321482+594664581+596717096+599612279
3608+601156376+599863440+597682787+597325907+599174271+601904045+604473244
3598+606001578+605380086+603397770+603257162+607130367+614354488+622581572
3588+628480179+629160101+625338319+620772792+618490414+618929122+620674709
3578+622278147+623011173+622318991+620401550+619343941+621460490+626194718
3568+630091323+630713866+628895979+625767219+621191674+616011310+612588304
3558+612223717+613937848+616131251+617720817+617997199+617311393+617236570
3548+618542468+619542838+618111535+614854358+612093758+610733635+609756944
3538+608138444+606108628+604462385+603586929+603506501+604142496+605284175
3528+606683812+607869908+607693290+605283475+601707950+598984411+597694137
3518+596934068+596082082+595385487+594847925+593547982+590686918+587333305
3508+585973952+587568037+589981145+590170024+587940470+585875835+585513490
3498+585513911+583677738+580242225+577829783+577994281+579532914+580330184
3488+579676430+578576681+578386296+579207105+579707676+578891981+577439975
3478+576386815+575564709+574283368+572398398+570255543+568503160+567774372
3468+567858828+567822258+567263538+566579658+565875076+564687053+563034644
3458+561833905+561863925+562643681+562718258+561271753+559257700+558276280
3448+558414577+558076683+556164356+553259504+550461002+548435495+547478281
3438+547355328+547304535+546943136+546787220+547244424+547801883+547683588
3428+546542294+544635992+542793479+541664690+540984524+540336444+540190161
3418+541090453+542324049+542581621+541736360+540832496+540324534+539479694
3408+537823292+535984982+534642794+533694617+532940714+532596129+532602329
3398+532301391+531157610+529138268+526450775+523712979+522087473+522214980
3388+523192021+523585787+523305937+523427454+524302874+524944754+524442467
3378+523144731+521995836+521236047+520379717+519345263+518907045+519745159
3368+521517614+523171809+523885779+523597452+522834966+522051007+521151206
3358+519847690+518238053+516626558+515257573+514751643+515999356+518847775
3348+521402577+521664317+519787720+517781724+517123556+517444075+517588432
3338+517363403+517543384+518246144+518292979+516712626+514152709+512046669
3328+510921699+510226925+509459045+508662160+507919466+507242802+507002255
3318+507619054+508751415+509488189+509397533+508788441+508010718+507153232
3308+506420837+506179904+506446408+506819121+507050771+507178348+507129062
3298+506840699+506729446+507404008+508882250+510397378+510917180+509948511
3288+508176862+507101844+507535228+508664472+509119224+508760348+508688397
3278+509538632+510614666+510936516+510473918+509947495+509915128+510352856
3268+510720140+510260904+508646397+506528867+505140476+505093886+505728690
3258+505895500+505194456+504028536+502743656+501499130+500722212+500806844
3248+501542006+502324739+502621368+502115648+500946891+499741073+498800462
3238+497610828+495883176+494504837+494454780+495363374+496105227+496252421
3228+496033452+495434309+494282225+492791337+491273162+489599280+487556153
3218+485543081+484290428+483991907+484208354+484544532+484895282+485023945
3208+484630879+483966476+483619825+483638846+483504893+482862769+481735626
3198+480264670+478727718+477554898+476932495+476564546+476042747+475310772
3188+474592914+473923186+472931432+471292160+469364665+467937110+467214943
3178+466614153+465731412+464836584+464153861+463439716+462508808+461507492
3168+460597147+459818898+459167946+458524245+457679475+456624738+455655614
3158+455000038+454445697+453593676+452497220+451675079+451347413+451092714
3148+450388833+449102692+447463314+445884327+444663586+443681466+442583293
3138+441300620+440202833+439739463+439982988+440491195+440725962+440579819
3128+440263749+439819330+439093415+438089752+437103428+436508313+436348053
3118+436120712+435237059+433735593+432153348+430704285+429183447+427723070
3108+426968606+427213496+427841119+428020470+427654202+427218996+426949655
3098+426649698+426084708+425209532+424198548+423417882+423161466+423315385
3088+423406042+422984953+422009558+420930336+420221025+419794682+419194768
3078+418319942+417486277+416859460+416352549+416000783+415906729+415803778
3068+415136992+413785942+412425889+411844996+412044208+412297786+411978353
3058+411042471+409851155+408824442+408222672+408044057+408065354+407969584
3048+407447295+406372732+405014290+403854676+403118147+402689211+402440818
3038+402265776+401875793+401078348+400124496+399293528+398418457+397343929
3028+396439364+396101715+396122593+395945519+395265317+394181752+392998282
3018+391995214+391347905+391171322+391423324+391711546+391490650+390591830
3008+389366220+388245628+387354024+386624115+386090617+385834902+385722423
2998+385464536+384914504+384080768+383008727+381878607+380995620+380479567
2988+380108885+379564458+378752090+377885917+377234580+376801721+376415486
2978+376084213+375952082+375924584+375694861+375150363+374424833+373548607
2968+372392320+371019481+369817937+369173991+369150170+369480498+369749804
2958+369634663+369130169+368519500+368018159+367484976+366588468+365275389
2948+363945532+363093616+362873806+363062545+363314897+363340573+362986426
2938+362369802+361844045+361601887+361347433+360601551+359338039+358012175
2928+356953936+356105943+355357259+354722491+354149339+353494709+352759371
2918+352148317+351875053+351956916+352152591+352143904+351830530+351371504
2908+350942919+350567369+350137698+349493611+348565296+347579988+347007432
2898+347087054+347463795+347500927+346898736+345816606+344547174+343361463
2888+342525310+342127866+341924415+341585050+341116426+340862358+341040342
2878+341398658+341413896+340806381+339808497+338909221+338386617+338150554
2868+337994077+337827582+337609909+337282454+336880316+336472398+335950004
2858+335184751+334394627+333976131+333920679+333764167+333243875+332675908
2848+332473017+332579051+332650862+332529835+332225219+331697606+330974283
2838+330242203+329590550+328895496+328103340+327392908+326954620+326766196
2828+326625413+326343496+325915647+325508499+325269879+325179048+325073504
2818+324789695+324319040+323819625+323380146+322829483+321958931+320913583
2808+320151167+319942777+320026322+319878778+319324157+318680596+318226405
2798+317824127+317278088+316707178+316250149+315737563+314994904+314198685
2788+313657585+313438371+313367681+313242206+312940287+312426160+311736921
2778+310974891+310237661+309516300+308741098+307931078+307169853+306489651
2768+305946345+305673115+305676758+305743699+305651011+305283027+304592562
2758+303717702+303017638+302708468+302581066+302262088+301613028+300745349
2748+299786943+298782509+297799863+297005781+296539224+296344250+296197442
2738+295888167+295380415+294836968+294437913+294183844+293973283+293751879
2728+293424529+292861798+292198674+291810635+291798462+291802070+291454386
2718+290785131+290115788+289662945+289270668+288634586+287802935+287148042
2708+286800637+286516636+286126303+285695651+285280430+284899222+284650495
2698+284534478+284299203+283734983+283007860+282481770+282284362+282219855
2688+282042764+281646931+281045581+280371141+279848782+279575588+279379440
2678+279040601+278559051+278098431+277780066+277616479+277550221+277507117
2668+277447112+277359853+277218072+276984968+276654115+276254902+275847650
2658+275517007+275321823+275214300+275022216+274588534+273999584+273568932
2648+273449149+273383627+273035399+272439093+271927435+271707310+271678726
2638+271615341+271406880+271116837+270858092+270671718+270517430+270320285
2628+270042151+269734908+269449488+269110053+268624580+268096861+267766499
2618+267751121+267933922+268055054+267902711+267486018+267023191+266736791
2608+266664297+266629688+266403030+265955739+265529904+265389979+265573621
2598+265909781+266177441+266234118+266065171+265733320+265336034+265042837
2588+265009104+265143319+265149169+264924315+264719463+264760325+264909725
2578+264893962+264716520+264597823+264586106+264511983+264312719+264118936
2568+263997611+263848929+263602864+263363789+263327778+263594633+264031572
2558+264340690+264335698+264121756+263937448+263885622+263881156+263779886
2548+263494781+263058104+262615420+262302274+262108841+261894006+261532712
2538+261052967+260634365+260435800+260418759+260391803+260217637+259919011
2528+259619072+259435868+259407301+259497344+259646622+259749223+259634940
2518+259225779+258689022+258302805+258200152+258302613+258436758+258503139
2508+258574494+258762374+258961779+258895854+258480632+257964141+257615107
2498+257447719+257343945+257284867+257331894+257464323+257552002+257477144
2488+257244391+256974437+256783631+256667509+256526357+256287369+255968619
2478+255668889+255509610+255507947+255522116+255437397+255346881+255372715
2468+255401422+255230093+254891131+254586234+254365689+254104335+253752691
2458+253415323+253178016+252993954+252785283+252597561+252567470+252713140
2448+252851804+252810680+252633536+252474888+252377681+252274589+252126555
2438+251932229+251679842+251427893+251346397+251511245+251729409+251737098
2428+251511911+251229941+250988466+250748164+250514763+250411811+250516427
2418+250716970+250836841+250868368+250961616+251182914+251411622+251498827
2408+251440136+251369989+251408767+251524889+251595386+251615370+251733840
2398+252041171+252463223+252972603+253840598+255614926+258889303+264136713
2388+271747261+282178135+295999771+313687570+335283429+360290805+387964202
2378+417622857+448528840+479512973+509091726+536186822+560373633+581187600
2368+597851839+610029754+618074544+622367262+623007390+620098685+613394611
2358+601698842+583953910+560400781+532528067+504383139+482382830+471446114
2348+473053090+485818447+504979375+522762525+533697244+538347367+540054212
2338+541232392+542519198+543684663+544535598+544628005+543094242+539666121
2328+535206663+530538290+525293297+518444131+509617168+499376767+488513718
2318+477667342+467348931+457739025+448490798+438945030+428575861+417294526
2308+405416183+393413626+381747807+370795118+360717499+351408145+342666584
2298+334384294+326546842+319176438+312290631+305868754+299893047+294392375
2288+289378909+284838866+280843093+277495119+274713835+272254207+269980499
2278+267953766+266259550+264904208+263830416+262893623+261903692+260830477
2268+259884069+259255133+258849282+258395809+257747396+256969602+256220515
2258+255648450+255304741+255048203+254630652+253976127+253278988+252737258
2248+252310915+251857179+251390691+251045511+250830693+250584156+250187045
2238+249742311+249497823+249574503+249786693+249827170+249642302+249466262
2228+249452880+249477366+249376919+249197971+249099416+249130294+249201930
2218+249230041+249220775+249213910+249221739+249268783+249413350+249660097
2208+249927705+250163733+250409412+250700279+250984665+251193248+251332875
2198+251454865+251572704+251674185+251786734+251968414+252248632+252601081
2188+252936506+253133967+253144213+253034150+252896327+252801957+252839842
2178+253060247+253382640+253660196+253785794+253696837+253414430+253097886
2168+252904261+252802553+252673522+252531425+252477655+252486115+252411712
2158+252200064+251958361+251817315+251796157+251802165+251763773+251770095
2148+251984983+252444412+253137469+254221998+255870852+257994406+260401804
2138+263100402+266216621+269792286+273781421+278102390+282710004+287708986
2128+293262868+299366275+305876146+312717500+319856465+327120694+334223859
2118+340982333+347345746+353100207+357733271+360808330+362271650+362215813
2108+360636686+357573782+353268699+348121613+342531545+336693714+330573861
2098+324117480+317393685+310602352+304052583+298002964+292486440+287436632
2088+282899566+278967477+275638927+272850864+270522510+268533783+266757423
2078+265149099+263774299+262687037+261792806+260956075+260217094+259727207
2068+259516698+259453172+259339852+259040911+258632065+258336399+258243938
2058+258255778+258270561+258232011+258104854+257953071+257905291+257989047
2048+258108077+258167066+258184511+258289809+258543825+258825375+259022222
2038+259185898+259382343+259594236+259816848+260071617+260369332+260754726
2028+261262320+261812983+262269556+262573332+262826875+263271013+264014005
2018+264731023+264908079+264458809+263812376+263387836+263267983+263330195
2008+263429136+263434583+263291418+263108599+263049942+263085287+263002232
1998+262763717+262727111+263308179+264397104+265292667+265410839+264891247
1988+264249543+263778047+263542666+263544716+263648508+263671680+263658509
1978+263815371+264181236+264546803+264694539+264705836+265011451+265920219
1968+267046311+267559702+267189021+266551467+266318206+266548105+266958737
1958+267391999+267794540+268072761+268216154+268396836+268798816+269433620
1948+270242957+271349467+272906333+274474391+275007784+274084916+272616289
1938+271681616+271419386+271397825+271399839+271532496+271905822+272444102
1928+273068922+274009428+275500421+277129079+278247254+279042615+280026960
1918+280654810+279956918+278411770+277569977+278177966+279656173+280934572
1908+281421569+281333207+281242288+281415457+281705010+281984737+282451785
1898+283375406+284573536+285445839+285890432+286669469+288136888+289279163
1888+289023973+287821728+286768971+286208324+285942504+285853774+285887717
1878+285996536+286216539+286626208+287539093+289645641+293160529+296571276
1868+297328052+294910530+291549788+289352742+288666270+288764090+288907623
1858+288781289+288477251+288275324+288384493+288932371+290043487+291825295
1848+294484642+298091203+301449475+302068411+299384000+296087344+294508848
1838+294590256+295082595+295473453+296665120+299617926+303449691+305740932
1828+305656966+304719929+303762399+302216305+300232343+298950440+298846788
1818+299370058+299969166+300821398+302426271+304624684+306335417+306666900
1808+306021553+305607645+306424356+308819844+312157905+314832613+315565639
1798+314961311+315055750+317433653+321672286+324743176+323656703+319804481
1788+317016873+316962402+318670368+320702706+322633774+324307270+325296922
1778+326004131+327991491+332493615+338746755+343508797+343919167+340981668
1768+337300845+334537793+334020233+336315992+339791122+341830852+342276426
1758+342710896+343382516+344171974+346499645+351596744+357877207+361710829
1748+361749571+360097828+359105934+359723258+361758819+364051110+365289436
1738+366294956+369790474+376337125+381285454+379948485+375112076+370815365
1728+367979452+366784107+367268529+368776371+371322591+376498611+385274922
1718+394808919+398902144+395649205+389658926+385017280+383204612+384639488
1708+388985275+394499714+399003379+402923313+408841011+416803308+422429211
1698+423133618+420679525+415779502+409829157+406395221+407035979+410546314
1688+416012833+424442598+435187002+441448129+438361020+431805996+428041627
1678+428781134+433053709+438047366+441607723+444961372+449406888+452349991
1668+450984368+448325003+448878924+452780468+456392984+457185805+457216210
1658+460213925+468541683+482663556+497995241+503397306+500002568+499609642
1648+504558602+508826658+506878356+502060722+500010695+502525318+509653528
1638+521018900+533867943+541527095+541225211+539356916+541522050+548213198
1628+557264980+566866304+576969705+587448972+596904363+605270094+615001272
1618+627547555+639809750+646902651+649969829+653387021+658467550+663827405
1608+667960878+670755807+673044561+675354752+677564689+679574398+681645199
1598+684057816+687011919+690651617+694777805+698935449+702948562+706943879
1588+710972265+714957144+718835463+722507038+725821244+729075338+733486035
1578+740102746+747232848+750969088+752067821+755651613+763788601+773475992
1568+780585217+785800960+792577265+802657406+816905070+837173663+861989078
1558+878155724+878470359+874078087+871486680+870291966+869385754+868578466
1548+868638296+870905401+875757959+882070614+888012308+889259636+879922119
1538+864716820+853984571+849616330+847516946+843908213+839810819+838205140
1528+839220924+840853436+842420933+844980254+847847834+848355060+846454993
1518+844417051+842341626+839267723+836193890+835458202+839006894+847628269
1508+858660931+862521315+852903983+839738309+831978027+830456278+833143316
1498+836432721+836142256+832208591+829301217+830514007+834438004+836936724
1488+835273316+830724814+826152141+823259690+822198158+822448899+823982487
1478+827120985+831483761+835885911+838690648+837855126+833094555+827715014
1468+825235140+826381794+828816410+829384097+828556632+829891043+835297276
1458+842191911+843984857+838726869+832060977+827733720+825869874+825378551
1448+824590809+822001293+817962959+814607699+813807767+816059949+820659455
1438+825506478+826938201+823437429+818637836+816166229+816078305+816621261
1428+816911585+817329697+817839515+817886104+818071830+819749670+822006127
1418+821355700+816969384+812015310+808817333+807264128+806349579+805659149
1408+805627482+806504409+807470381+807587519+807355624+808042762+810092054
1398+812938756+815375264+815726749+813205120+809533335+807257682+806982911
1388+807308685+806687543+805352641+805091462+807250676+811631528+816968683
1378+822158715+826830661+830671989+833122649+834509674+836085369+838122611
1368+839763320+841248778+844165329+848598164+851980467+852072314+849637558
1358+846796390+844776172+843705042+843058539+842279204+841505404+841420702
1348+842244945+843420813+844531106+846079337+848898507+852770801+856032812
1338+857189274+856672029+856003668+855974593+856665234+858325909+861071237
1328+864148363+866529874+868093798+869670964+872131992+875551075+879160228
1318+882332564+885478068+889338942+893662486+897419463+900194706+902630232
1308+905447300+908626922+911858177+915241040+918779294+921641339+922992565
1298+923304887+923825425+925002063+925944566+925238022+922440291+918848722
1288+916227539+914884160+913647271+911453868+908462213+905693347+903967236
1278+903315548+903214453+903373347+904134186+905751986+907571135+908459621
1268+908004239+906958680+906503648+907279409+909157057+911658089+914289991
1258+916603055+918423815+920073842+921869030+923536222+924681194+925583692
1248+926828989+928401670+929608084+929687741+928447139+926397426+924053957
1238+921312203+918142739+915479100+914408881+914805274+915576062+915925656
1228+915748127+915242582+914645330+914078343+913434642+912528221+911452186
1218+910621848+910400322+910850100+911999696+914117997+917211376+920403539
1208+922572071+923707025+924878129+926702883+928662570+929998592+930539377
1198+930658897+931100549+932783923+936016650+939809007+942538501+943559679
1188+943936175+945221616+947514923+949330849+949887537+950555899+952947148
1178+956762765+960814200+964723065+968093037+969626415+968774219+966993042
1168+966250348+967293034+969654439+972421204+974858833+976556219+976950300
1158+975544219+973486730+973433695+976690942+981882585+986526508+988898211
1148+989346378+990293924+993518244+997552164+999455383+998516805+995947535
1138+993019144+991634711+993433543+996827475+998218844+997376386+998132251
1128+1002525854+1007495620+1008995581+1007688632+1007754278+1011048026
1120+1015152005+1017428568+1018673234+1020861523+1023291725+1023483476
1111+1021172164+1019261308+1020241081+1023477031+1026910196+1029662319
1103+1031498632+1031922769+1031438732+1031503887+1033017228+1036155516
1094+1040535947+1044425336+1045139866+1042092445+1038155417+1036774346
1085+1038683380+1041477679+1042635542+1042992211+1045351164+1049789253
1077+1053443454+1054881273+1055438451+1056053358+1055923328+1054500152
1068+1052575985+1051509549+1052152550+1054075386+1055937130+1056961951
1060+1057598156+1058034693+1057106062+1054477243+1052800594+1055129982
1051+1060956148+1066196622+1067192439+1064606216+1061566781+1059261003
1043+1057297043+1055970058+1056503766+1059577810+1064759224+1070539222
1034+1073741823+1072221966+1067890015+1064372079+1063697762+1065619897
1025+1068079595+1068678528+1067095968+1064711864+1062327761+1060496422
1017+1060535585+1063813359+1069264851+1072409653+1069234095+1060724253
1008+1051858162+1047229442+1048497998+1053780157+1058459950+1059032752
1000+1056584684+1053872425+1051125556+1048217062+1047586042+1050906833
991+1055359004+1056566889+1054100957+1051250471+1050707445+1052775163
983+1055991846+1057745840+1055760161+1050266635+1043534887+1037222933
974+1032070523+1029210439+1028950801+1029045521+1026875727+1023148665
965+1021147994+1022357070+1024262041+1022750380+1016859970+1010074978
957+1006137669+1005102129+1004493107+1003158906+1001749812+1000257207+997972517
947+995617278+994967762+995859892+995681172+992747386+988527109+985576650
937+984713805+984882226+984632887+983323066+981579441+980674420+980820283
927+980458288+978195317+975011421+973203622+973687098+975539455+977433076
917+978583793+979070422+979852559+981281690+981694968+979230927+974724880
907+970935325+969316055+969018795+968655119+967808598+966853415+966240750
897+965915957+965292713+964204209+963550419+964208692+965536518+965830135
887+964305233+961812258+959567992+957910329+956695999+956581523+958607345
877+962238427+965157009+965743612+964546796+962865524+961389523+960229418
867+958879103+956531781+953365330+950748561+949597423+949142391+947878178
857+945489521+943240561+942749869+944917000+949161657+953249803+955133686
847+954973321+954215914+953296812+951441373+948558030+945944063+944897033
837+945395572+946553855+947962809+949946176+952856142+956591401+960064289
827+961516120+960814830+960103663+960844325+961895278+961555282+959925573
817+958637610+959176083+961675503+964407099+964524728+960603533+954377400
807+949514824+948806458+952115199+956485962+958823967+958546954+956916124
797+955100408+954154893+954988454+957041529+958545833+958880294+959325378
787+960745822+962344426+963460113+964646420+966502350+968935845+971099894
777+971651817+970047049+967472455+965405788+963696282+961648110+960089861
767+960373599+962170680+963728088+963691658+961721392+958385258+955160588
757+953688371+954764686+957804120+961440176+964858699+967923074+970331208
747+971578956+971109632+968598652+964835509+962308906+963680589+968670462
737+973688359+975171505+972428000+967630578+964591564+966244393+971492223
727+975360804+973991644+968768474+963785537+961593394+962227287+963844526
717+963764099+960997053+958120226+958426033+961469390+963431109+962074559
707+959356905+958061656+957851200+956621386+955034763+956564078+962396409
697+968350223+968707663+962562799+953527446+945274720+939937915+937706820
687+937066482+936560587+935633778+934790480+935590272+937941307+938516701
677+935124730+929949761+925992556+923551985+921315705+918795477+918103506
667+921629219+925844521+926094001+923009659+920099694+919193552+919420052
657+919756685+919580277+917822920+915369108+915409742+919035219+923304117
647+924496238+921993875+917488109+912163984+907430176+904644425+902257939
637+896921555+888928468+882443398+879852760+880140702+881200763+881043901
627+880088368+879961352+879621706+877405814+875040766+875559412+878693987
617+881174141+881159919+880402863+879623177+877223311+873396975+871117329
607+872982927+876980697+877661599+873837715+871020998+873410917
##END=
