##TITLE=<SNM>
##JCAMP-DX=4.24
##DATA TYPE=INFRARED SPECTRUM
##DATE=3/5/2025
##SAMPLING PROCEDURE=Instrument type and / or accessory
##ORIGIN=Admin
##XUNITS=1/CM
##YUNITS=ABSORBANCE
##RESOLUTION=4
##FIRSTX=4497.3318
##LASTX=599.83466
##DELTAX=-1.4281778
##MAXY=1.7102512
##MINY=0.17859964
##XFACTOR=1
##YFACTOR=1.5927956e-09
##NPOINTS=2730
##FIRSTY=0.19901884
##XYDATA=(X++(Y..Y))
4497+124949391+125262955+125850564+126331719+126347343+125686677+124577207
4487+123798487+123992507+124876728+125707858+126389891+127277545+128098758
4477+128126075+127362838+126637274+126515814+126823006+127152464+127295479
4467+127199175+126931219+126747405+126935981+127492091+128002660+127914804
4457+127045607+125848450+124984913+124566692+124150435+123486149+122811104
4447+122426038+122392611+122496652+122317694+121724050+121196371+121136150
4437+121172720+120742692+119966039+119411809+119350148+119664385+120257346
4427+121084406+121773521+121694206+120684764+119265613+117931615+116792929
4417+116020972+115971033+116677671+117723786+118631788+119015517+118588043
4407+117509960+116507151+116188638+116407778+116600274+116464416+116031151
4397+115479110+115156051+115364310+116000755+116791488+117698209+118641630
4387+119152423+118798117+117701361+116349401+115159643+114349292+113957032
4377+113906831+114098953+114412834+114701998+114894017+115028968+115152898
4367+115251719+115286212+115220640+115007806+114609670+114150051+113957827
4357+114204284+114626491+114912887+115109639+115304548+115307701+115024477
4347+114690445+114373691+113758698+112809112+112129670+112236667+112907867
4337+113578496+113979419+114137281+114143016+114092900+113959876+113626367
4327+113325387+113618041+114544726+115363347+115519703+115264068+114995663
4317+114696479+114329599+114115652+114120788+114132940+114177650+114648420
4307+115654991+116713333+117369256+117732842+118120528+118522948+118719439
4297+118618120+118292498+117872358+117500811+117357880+117656147+118443998
4287+119372423+119905613+119806633+119187674+118193724+117011039+116095253
4277+115942789+116533982+117272615+117616368+117583016+117515115+117596572
4267+117798975+118124363+118618906+119138895+119355032+119157709+118900830
4257+119017360+119488355+119926803+120111150+120193674+120372688+120518014
4247+120340263+119969931+120008971+120745293+121678283+122162601+122165099
4237+122009706+121739280+121176874+120438176+119960847+120001674+120426341
4227+121043186+121765213+122337695+122359231+121811803+121238881+121178605
4217+121589651+122029596+122264069+122448519+122704968+122792029+122391311
4207+121658880+121312920+121989704+123513981+125017479+125776217+125690700
4197+125089104+124404900+123948565+123799310+123998120+124678788+125731283
4187+126657884+127079464+127038928+126711911+126304186+126190538+126629622
4177+127358871+127858662+127991976+128119630+128614369+129393426+129958293
4167+129917747+129403305+128833611+128365236+127856894+127365579+127296911
4157+127861805+128636475+128958664+128666777+128197204+127997093+128089393
4147+128240426+128282123+128168539+127987663+128010013+128466114+129210323
4137+129826691+130048722+129867555+129375277+128821019+128676647+129229979
4127+130094338+130463613+129960183+129024919+128421658+128556964+129282958
4117+130124322+130684249+130970617+131290523+131774466+132194484+132322455
4107+132233626+132168120+132317282+132794414+133529324+134111311+134046553
4097+133332422+132565189+132295503+132446638+132554300+132427750+132321454
4087+132515700+133002066+133578926+134003743+134096352+133902780+133679318
4077+133621717+133723073+133875668+133947723+133873545+133755190+133649381
4067+133347877+132747890+132224224+132179253+132496568+132839404+133150582
4057+133544021+134034382+134580968+135135572+135591982+135898576+136154716
4047+136441439+136680711+136737161+136509405+135959180+135249904+134760769
4037+134761508+135182845+135800438+136414346+136829031+136961970+136981224
4027+137091776+137298669+137567860+137952562+138369408+138579679+138536859
4017+138413902+138211742+137763911+137198895+136907429+136940780+136948349
4007+136859258+137120581+138092574+139573386+140924251+141446888+140874574
3997+139693695+138729552+138367574+138455243+138826052+139484435+140412345
3987+141523293+142607466+143200633+142864888+141756017+140682621+140474970
3977+141289101+142473890+143137606+142933481+142273658+141775588+141657337
3967+141796610+142157811+142761801+143345977+143578364+143547772+143548483
3957+143577794+143490854+143381752+143567166+144391812+145789109+146849051
3947+146687971+145895619+145787415+146375530+146494465+145757010+144943581
3937+144739869+145333157+146680206+148253093+149011728+148544194+147870955
3927+148270054+149645571+150597768+150260209+149489515+149601854+150638913
3917+151358948+150697880+148906742+147070343+145952827+145734548+146714886
3907+149638396+154764398+160692276+164851796+165725511+163616665+159528021
3897+154978926+152013401+151953125+154087426+155768686+155237648+154376329
3887+155704761+158358509+159653252+159725269+160371144+160564033+158517550
3878+156079227+156110456+158680857+162327404+166191426+168872127+168379474
3868+165800036+164268883+164315454+163789402+161569733+159146323+158535531
3858+161127206+167819089+177373521+182813340+177789179+168007487+160786840
3848+158256741+159876489+163935626+168506651+172706417+176541849+179149092
3838+178821730+175849404+172668940+170498386+168686685+166848022+165775824
3828+166013543+167340862+170268450+175708980+181692007+183577073+181359874
3818+179301304+177804822+174323995+169604239+166852831+167661170+171518905
3808+176143629+179066372+181011649+184148517+187106267+186574004+183680880
3798+181587976+179997211+177467374+174949980+174220618+175426448+177685634
3788+180467261+183438633+185969143+188071870+190901452+194931812+198621188
3778+200457831+201370183+203529304+208441294+216167878+224739999+231445353
3768+235949318+239846570+244037580+249297215+257103918+267686972+278731562
3758+288108467+297146709+308928763+325003089+343483050+358803485+367937301
3748+375310852+385494451+396942518+404087948+407270564+412601168+423500825
3738+439185632+455903569+469134767+476705528+479528936+479922309+480300602
3728+482480773+486752726+491565418+495100618+496836522+497191613+497280190
3718+498903119+503619937+512169118+524293615+537571365+547758931+553582150
3708+557637021+562349162+568554603+575141144+579613526+581317809+582375300
3698+584271929+587142712+591555070+598184795+606172581+613064593+616181571
3688+614930723+611858351+609719643+609979048+612833553+617234422+622592531
3678+628999375+633520853+631706738+626690848+624855590+625705618+623586556
3668+617410827+612075508+610701469+612869103+616794272+621103833+625408828
3658+630021802+635707012+643267258+652734648+663254403+672278575+674481348
3648+667807690+658267552+652599557+653018676+657022916+660132859+660876498
3638+662243501+666963687+673840394+680189983+685759934+691219567+694265894
3628+692454623+688520436+686523256+688263127+693305661+698846424+701387262
3618+701366081+702798797+707151954+711968089+715108493+717521949+719122687
3608+717017883+711549343+707379776+707339211+710285847+713928521+716732956
3598+717852380+717900953+718494606+719965117+721626553+723922281+727246275
3588+729456757+728757126+726876327+725132190+722327830+718428595+715590181
3578+714756807+714606223+714415299+715526041+719231059+725202393+731835710
3568+736677741+737062133+733033644+728196404+725368394+724009698+722178144
3558+719574962+717549042+716915947+717387905+718881244+721903771+725916393
3548+728256653+726356543+721244480+716976644+716722403+720604350+726204388
3538+730953613+734118790+735743628+735193458+732300709+728602651+725944459
3528+724555676+723533323+722543527+722139151+722450872+722173205+720042206
3518+717517907+717971006+722619043+728447876+730577753+727149204+721691741
3508+719295274+721188947+724703790+727698625+730621087+733792326+735447549
3498+733884532+729930213+726127749+724181237+723682709+723064283+721576708
3488+720420386+721810591+726331097+731212719+732073187+727431586+720773195
3478+716713871+717003962+720492909+724999868+728782348+730785366+730434204
3468+727769351+724181537+721762393+721247399+721527985+721453816+721320221
3458+721451720+721335190+721240963+722508052+725492633+728363977+728285018
3448+723982305+717666021+713310769+712548046+713837812+715627154+718027737
3438+720662652+721776613+720962098+720088309+720242485+720411705+720323390
3428+721519677+724073763+725517107+724726168+723898107+724922555+726609138
3418+726687423+724399629+720978639+719051736+720559295+724292454+726681586
3408+725747173+723098935+721615701+722431412+724290583+725295272+725039535
3398+724541680+724517880+724533298+723722152+722230460+721516085+722351705
3388+723278034+722393542+720173704+718872562+719286667+719725396+718669813
3378+717210079+717476744+719112882+719576309+718674079+719266460+722249395
3368+725075160+726076257+726271597+726382065+725782948+724519377+723446431
3358+722509773+721050039+719158237+717452195+716490989+716957559+719132641
3348+722035269+724771148+727909457+731671281+734265482+734279777+732806422
3338+731237342+729495451+727410704+725357242+723224447+720954240+719677721
3328+720441567+722722776+725251115+727375379+728945506+730151598+731474968
3318+732583839+732121311+729739962+727332943+727085363+729170408+732010244
3308+733909230+734143414+733239088+732392616+732144662+731897680+731182857
3298+730580372+730750639+731568821+732553004+733199795+732884782+731435676
3288+729718632+728823362+728779355+728617320+727771522+726713319+726257901
3278+727028258+729263513+732149676+733799286+733176220+731388450+729993904
3268+729117045+728131216+727306972+727563084+728863179+729834788+728860484
3258+725629446+721989541+720462822+721533598+723529581+725344519+727488765
3248+730101902+732065178+732637277+732040929+730321640+727570793+725055027
3238+724394539+725615824+727040532+727310864+726982454+727510170+728915943
3228+729747372+729341948+728292727+726782174+724594220+722538288+721947928
3218+722858915+724352403+726101329+727760594+728005256+725883986+722395787
3208+719676748+719121340+720656066+723037115+724596615+724333542+722682735
3198+720823714+719301636+717851108+716505658+716541583+719181813+722967362
3188+724038587+720635410+715569974+712412505+711879176+712810370+713842228
3178+713363458+710465245+706780135+705235454+706790463+709535099+710762446
3168+709509353+707091406+705279088+704422811+703789042+703246956+703419244
3158+704136388+703935435+701576165+697654552+694201005+692641132+692734311
3148+693635044+694923837+696188681+696839289+696705246+695913633+694353685
3138+692165131+690095578+688678130+687763551+687103138+686657449+686467124
3128+686720168+687368456+687446218+685806936+682944273+680797332+680446095
3118+681213833+681929330+682096379+681872898+681609901+681456698+681192128
3108+680434644+679044888+677503126+676767496+677041196+676853640+674836702
3098+672067218+670704406+671129812+672161745+672953582+673234167+672783240
3088+671625796+669995570+668203982+666891240+666499213+666513209+666305894
3078+666192582+666380961+665967156+664359008+662708799+662629466+664133507
3068+665742403+666197597+665464885+664295541+663252757+662018299+659749140
3058+656651696+654585286+654929114+656476040+656767029+655133734+652963817
3048+651426321+650539359+650038211+649729335+649261867+648673453+648628996
3038+649049463+648565080+646673129+645070969+645316379+646448900+646237993
3028+644023619+641272622+639735276+639675926+639923955+639501542+638668841
3018+638175103+638143818+638099362+637563562+636225223+633973203+631311194
3008+629448132+629166274+629690847+629495059+628210906+627024273+627001895
2998+627620097+627386774+625735704+623662521+622221573+621245810+620144086
2988+619078212+618531635+618415928+618335023+618248468+618319606+618373904
2978+618019336+617168112+615941887+614301969+612461809+611197901+610760856
2968+610207095+608961411+608019065+608346240+609258050+609504321+608770038
2958+607115638+604260272+600558472+597625308+596923320+598092477+599234802
2948+598803296+596824939+594548969+593322969+593442867+593866028+593339771
2938+591657866+589384479+586968029+584918085+584110643+584811695+585792436
2928+585496919+583944791+582438280+581725889+581493315+581335322+581197911
2918+580814865+579692335+577986181+576607053+576104895+575997458+575432133
2908+574137165+572522282+571151012+570394464+570314120+570502724+570230595
2898+569166630+567813846+566800774+565990825+564771823+562985737+561072942
2888+559483767+558296199+557215544+555921512+554646976+554037344+554173109
2878+554378814+554168992+553585518+552615218+551259927+550014057+549280073
2868+548662433+547644496+546444167+545580032+545135541+544890430+544652505
2858+544094739+542813355+540974206+539420806+538718331+538529840+538264634
2848+537770073+537093269+536205971+535145448+533931909+532481867+530970155
2838+529856307+529192975+528381230+526902523+525005445+523500731+522912354
2828+522879236+522576048+521696645+520630621+519726745+518874360+517784087
2818+516394930+515069352+514304758+514048271+513656432+512825041+511949904
2808+511254539+510386138+509183452+508018299+507164230+506527542+505954508
2798+505218654+504011963+502458189+501161725+500419284+499881913+499099132
2788+497991795+496798576+495891332+495545932+495571079+495257525+494020935
2778+492099084+490331222+489205137+488368357+487192764+485605273+484101195
2768+483076035+482473139+482028274+481497002+480641436+479397175+478071746
2758+477050516+476374723+475798770+475039752+473876320+472328945+470708973
2748+469221023+467776594+466391329+465329010+464717731+464371845+463980792
2738+463298263+462297839+461154615+459951704+458636978+457342833+456340202
2728+455625865+454907823+453952978+452741797+451414984+450136482+448906552
2718+447639127+446445871+445509101+444699002+443752877+442747663+441897786
2708+441039039+439871417+438534574+437403026+436531893+435750272+435036085
2698+434435771+433862774+433214897+432524435+431906982+431415863+430912770
2688+430165465+429174097+428207277+427395645+426522154+425322462+423787697
2678+422163010+420844205+420179825+420121747+420129493+419649414+418692773
2668+417774789+417284382+417063483+416630330+415695843+414401025+413116648
2658+412112557+411431075+410937263+410352553+409356695+407890936+406385099
2648+405496303+405480773+405887319+406005084+405572081+404851270+404118110
2638+403411856+402705415+401980786+401190072+400346107+399548695+398808200
2628+397980551+396996667+396060122+395446673+395088700+394571873+393658603
2618+392579145+391708686+391227746+391097557+391068294+390793434+390187955
2608+389524174+389035825+388651769+388174010+387496346+386668697+385904814
2598+385439703+385271157+385128432+384754667+384136540+383426132+382754156
2588+382206382+381848783+381616283+381299661+380806597+380271658+379782747
2578+379247359+378649664+378155590+377858089+377653694+377421382+377124031
2568+376747609+376331259+376021222+375925873+375965539+375988030+375925237
2558+375715564+375276087+374720529+374345267+374209465+374036840+373713856
2548+373510284+373574686+373603351+373304017+372869068+372651126+372613218
2538+372458667+372158323+371969570+371997000+372078204+372093060+372112407
2528+372250230+372549190+372945033+373208293+373037951+372370989+371511307
2518+370846366+370515636+370397122+370298667+370098163+369790671+369466751
2508+369204839+369012381+368892557+368830400+368669526+368212498+367509013
2498+366840555+366407402+366226619+366252964+366385847+366446470+366305429
2488+365990228+365648459+365466403+365523097+365641685+365529833+365127478
2478+364661432+364359628+364267459+364275954+364182213+363817766+363251842
2468+362779883+362617213+362685207+362774420+362842452+362994682+363180143
2458+363150655+362812066+362350211+361907553+361439149+360954393+360582012
2448+360381022+360318678+360341243+360321110+360115929+359749386+359337489
2438+358897488+358432826+358077734+357957799+358002293+358011237+357816571
2428+357359206+356737786+356206290+356018921+356252506+356773112+357298247
2418+357541972+357460880+357328408+357408827+357628229+357729641+357639754
2408+357513270+357510651+357639642+357754900+357700340+357480863+357240431
2398+357092392+357058974+357109531+357166486+357141825+357007146+356758929
2388+356319939+355546513+354348767+352758020+350824456+348463877+345506650
2378+341938070+338006615+334067002+330370890+326975384+323775817+320693678
2368+317930182+315953808+315035749+314847295+314905672+315459808+317392062
2358+321131621+326216179+332090329+338799912+346383209+353866292+359593526
2348+362415137+362352007+360500583+358109206+355544343+352518149+348825629
2338+344544658+340029654+335721664+331903708+328834704+326842239+325960815
2328+325755671+325674691+325444400+325277950+325713834+326971979+328592887
2318+329952032+330855984+331485898+332096803+332890473+333964804+335323650
2308+336938983+338691352+340268028+341281512+341555961+341296331+340978399
2298+341023828+341531449+342312023+343115273+343754318+344096949+344118915
2288+343995911+343982701+344118653+344186835+344032472+343745636+343465575
2278+343233824+343105805+343144200+343231766+343126050+342768302+342380466
2268+342211920+342284780+342418037+342450893+342390084+342348209+342411676
2258+342598221+342868741+343127510+343257399+343212980+343072014+342952378
2248+342877610+342782185+342656150+342607090+342745475+343046754+343343581
2238+343474818+343463217+343495811+343706905+344059789+344442161+344768289
2228+344995624+345140295+345273365+345455795+345698959+345987665+346292911
2218+346583563+346861193+347156710+347458738+347695428+347864872+348141342
2208+348696301+349390842+349856701+349970163+350025098+350348269+350958799
2198+351667598+352320901+352889369+353427751+353988997+354568468+355148462
2188+355763221+356484069+357356699+358317718+359151317+359643109+359830590
2178+359976646+360283015+360757855+361328195+361931802+362523060+363102493
2168+363739780+364538465+365596106+366976432+368688760+370719919+373099472
2158+375893466+379134908+382772829+386651857+390530024+394181156+397509378
2148+400535871+403311791+405908986+408445222+411057497+413881466+417016706
2138+420406187+423856553+427311708+430932416+434768260+438591268+442192442
2128+445618072+449039473+452600793+456397195+460313831+463785564+465998030
2118+466594265+465995934+464764545+462955258+460463180+457670570+455308643
2108+453888426+453545235+454219082+455735173+457756003+459749404+461031798
2098+460887202+458777271+454656388+449108927+442934096+436527066+429847645
2088+422934826+416128210+409705574+403608094+397751906+392433239+388095725
2078+384763087+382029753+379582468+377431448+375681511+374355858+373416094
2068+372776562+372280018+371704514+370863917+369803207+368840093+368279707
2058+368105211+368020302+367764527+367333058+366899157+366608205+366535084
2048+366786743+367499209+368714544+370321232+372176360+374410343+377576980
2038+382216111+388246982+395093602+402348302+409922170+417582218+424710809
2028+430514793+434282904+435581801+434480302+431611802+427811022+423555198
2018+418854808+413713594+408436428+403372750+398655259+394339748+390546527
2008+387276009+384232077+381072962+377842971+374939819+372585975+370554666
1998+368568376+366774094+365554269+364901265+364248748+363055268+361363970
1988+359602881+358109580+357031395+356379027+355985354+355595348+355093153
1978+354543957+354029637+353562356+353159252+352920279+352970985+353287458
1968+353577100+353434936+352739085+351830718+351166301+350866144+350725551
1958+350572011+350415066+350282781+350111204+349835558+349504940+349268437
1948+349310723+349847870+350961344+352155012+352398026+351230778+349482787
1938+348291289+347966471+348087904+348170006+348036449+347826777+347774836
1928+348024063+348689565+349757160+350793359+351361940+351771517+352476536
1918+352913431+352147939+350532307+349381150+349364760+350051742+350577512
1908+350459785+349909241+349418197+349181357+349081929+349047913+349167586
1898+349522865+349992092+350304486+350526245+351172588+352277941+352869162
1888+352210470+350916064+349912010+349325991+348918472+348637662+348464700
1878+348338178+348290241+348438767+349141915+351073533+354405235+357690049
1868+358533003+356369934+353142488+350760466+349653952+349373591+349424559
1858+349494574+349433353+349275098+349214325+349524362+350393324+351872742
1848+354157319+357418444+360601995+361271876+358702335+355365768+353592405
1838+353484220+353882870+354208885+355267874+357992900+361529335+363538864
1828+363277588+362280083+361323330+359755336+357679458+356299357+356188515
1818+356769445+357349776+358022276+359342615+361270341+362801925+363051451
1808+362419590+362115616+363008865+365211900+368070110+370338071+371104424
1798+370943363+371621588+374470929+378848484+381743928+380644674+377265596
1788+375150090+375625865+377744740+380235247+382636541+384685063+386016105
1778+387118053+389508644+394373801+400985602+406120305+406873298+404326809
1768+401294815+399411508+399624099+402241801+405897984+408424228+409603339
1758+410702331+411995764+413485398+416382601+421641318+427761963+431509192
1748+431734282+430418957+429773925+430647677+432785674+435137422+436615455
1738+438036458+441924055+448880694+454649652+454651336+451231806+448209504
1728+446513042+446357219+447982094+450983852+455261904+461955433+471767175
1718+482070036+487162116+485267133+480791646+477800291+477789963+481071109
1708+487225882+494496599+500586857+505837679+513066109+522639140+530001914
1698+532221751+531632738+529693711+527288113+526995665+530196917+535869402
1688+543209162+553533353+566736746+576085922+575975267+572029330+570788100
1678+574043013+580957291+589090084+596233194+602992173+610418002+616181347
1668+617544870+617297103+620026583+626191909+632275169+635558972+637924754
1658+643018031+653153468+669029349+686619878+694545207+692644350+692772855
1648+697919421+702280960+700484583+696113389+694598945+696944593+702349815
1638+710131147+717878201+720161505+715523646+709802138+707151430+707224402
1628+708099838+708992189+710274546+711189499+710241241+708481836+708585269
1618+710569950+710726596+706368350+700046154+694728572+690636168+686935864
1608+683277024+679988356+677571907+676290822+676034860+676354888+676736886
1598+676939934+676970844+676814947+676415885+675816319+675014229+673739356
1588+671751981+669437467+667618337+666581839+666013932+666297063+668809386
1578+673945548+678852093+679472839+677412641+677648471+681225284+684938759
1568+686334128+687450783+690815641+696802242+706289840+721830125+742111478
1558+754820385+754716878+752944525+755544190+761868332+770155976+779031734
1548+787810944+797372936+809154691+822864022+836247787+845171519+844235610
1538+836045486+829889291+829113321+830872202+831199265+830342989+831422297
1528+835410820+841054042+847638862+855367953+862648437+866375534+866749823
1518+866719736+866906618+866431965+866108944+868033452+873647560+883000965
1508+893328898+896795617+889147206+879384486+875037017+876158237+880008750
1498+883552182+884609262+883350705+882693062+885430362+891136303+895540952
1488+894707877+890148902+886073262+884674450+885490536+886863153+888176345
1478+890698622+895696775+902414066+907740629+907884402+902828396+897547937
1468+896305696+899186770+902635152+903262035+902684174+905001232+911439211
1458+918567314+919791069+913811653+906397350+901351224+899348655+899851299
1448+901221596+901605090+900762136+899674969+898882309+898793545+900432902
1438+903882707+906466056+905756471+904005449+904223765+905874573+906633704
1428+906108756+905980850+906931279+908059160+908991327+910218824+910942404
1418+909278948+905710368+902648698+901129090+900541948+900018872+899498640
1408+899791574+901209022+902397227+902037083+901280273+902082138+904082911
1398+904915013+903146328+899544219+895705831+892718779+890833489+889632187
1388+888089078+885233750+881756778+879790059+880579875+883736745+888471675
1378+894247070+900080093+904339846+906101796+906385525+906999161+908556116
1368+910689211+913513030+917462634+921704949+924151635+923821354+922036952
1358+920711860+920688734+921477128+922039571+922224433+923036627+925054913
1348+927396146+928811573+929263324+929877933+931608523+934247780+936695589
1338+938221933+939167497+940039865+940549619+940167098+939243687+938881223
1328+939842729+942091157+945027240+947775543+949707310+950947381+951862035
1318+952115827+951163003+949505160+948383715+948415523+949151528+949805130
1308+950176649+950827932+952152574+953466739+953679742+952677372+951215318
1298+949804980+948623661+947951947+947752790+947209132+945457811+942703371
1288+940059698+938420716+937596846+936340310+933581604+929859896+926885493
1278+925406824+924447264+923000778+921203877+919310952+917085052+914828766
1268+913367535+912478852+910918529+908271938+905203458+901970248+898348081
1258+894656460+891453262+888676969+885901947+883010096+880328777+878489740
1248+877898631+878045772+877956709+877470531+877349435+878180864+879726817
1238+881185877+881878398+881902347+882117595+883222200+884920608+886259172
1228+886768776+886938295+887385631+888047990+888629593+889348308+890618990
1218+892392540+894271543+895893911+897234869+898846384+901397327+904760987
1208+907931553+910046910+911225235+912332834+914143057+916760908+919856332
1198+923295359+927072526+930695217+933468741+935506112+937474553+939307678
1188+940204968+940016888+939720436+940412283+942554284+945974600+949928097
1178+953387556+955724223+957020650+957740338+958301210+958861259+959412551
1168+960239938+962024864+965006078+968247819+970383908+971242055+972205432
1158+974566797+977839149+980255824+980880162+980574429+980826126+982221196
1148+984234392+986189661+988204878+990896824+994244992+997448488+999900414
1138+1001712582+1003217671+1004351615+1004678079+1003957492+1002797803
1130+1002523205+1003940204+1006607676+1009669645+1012558577+1014616530
1121+1015386288+1015909365+1018000997+1021467715+1023862835+1024006982
1113+1023878103+1025570074+1028315608+1029997176+1030672033+1032615701
1104+1036376402+1038688222+1036318474+1030948877+1027531854+1028828954
1095+1033067677+1036408061+1037188746+1036928368+1037030528+1036792528
1087+1035917242+1036455436+1040123707+1045308966+1049059638+1050447598
1078+1049875126+1047689117+1045260393+1044683580+1046383634+1048964289
1070+1051558565+1054549358+1057824480+1060018496+1060215632+1059516451
1061+1059964460+1062180930+1064763381+1066249235+1066752029+1067248536
1053+1068148296+1068659473+1067236187+1063856361+1061565871+1063629811
1044+1069190632+1073573202+1073741823+1071488156+1070069137+1070397547
1035+1071405680+1071858553+1071010959+1069151564+1067630534+1066836975
1027+1065599973+1064179981+1065094635+1068968573+1072536629+1072837572
1018+1070441779+1067253550+1064492075+1063012807+1063123799+1064310806
1010+1065912816+1067086950+1066434171+1063694251+1060978430+1060131883
1001+1060156357+1058590795+1054412920+1048864523+1044258398+1042230232
993+1042628995+1043929913+1044968506+1046037187+1047579547+1048647629
984+1047767852+1044674149+1040372409+1036063634+1032577232+1030235026
975+1028785845+1027590830+1025826486+1022664003+1017862837+1012303139
967+1007290168+1003265271+999536229+994966177+989248486+983438963+978818467
957+975912321+974663270+974825679+976010291+977615818+978710320+978200939
947+975504653+970849056+964882288+958717860+954211949+953083694+955414897
937+959251265+961776686+961572889+960034195+959425349+959801359+959397807
927+957737569+956464718+956745303+957619467+957553381+956220730+954163376
917+951918391+950237946+949924803+950736698+951562963+951941667+952166271
907+952125032+951413352+949974275+947912804+945845571+944912431+945256483
897+945543805+944808849+943732834+943358021+943440647+942847069+941429322
887+940622741+941463525+942804483+942581901+940217168+936728744+933540516
877+931989698+932590611+934205494+935024948+934487951+933342706+932198659
867+931130053+930378482+930528392+931968068+934550445+937576414+939725825
857+939621793+937161635+933841533+931493415+931328013+933678900+937426055
847+940249275+940516988+938475501+935498927+933128282+932350066+932775098
837+933130826+932839463+932315713+932147766+932575867+933230517+933342332
827+932675932+932160265+932964002+935127483+938022253+941199704+944483357
817+947965718+951482956+954052833+954499121+952743458+949791359+946803409
807+944737598+944069402+944452672+945246978+946330178+947781455+948999746
797+948962924+947399907+944988172+942741990+941588512+941875834+943244185
787+945451150+948459980+951012419+950745754+947144393+942928648+941298571
777+942923558+945764516+946883491+944875234+941314962+939165701+939362612
767+940011275+939340459+938187805+938596372+941102857+944323867+946646838
757+948043779+949389378+950153373+948972728+946294852+943922635+942420016
747+941583872+942279237+944866403+947216392+947321995+946471407+947187054
737+949806851+952520951+953462398+952471629+951353104+951903572+953398557
727+953676598+952370741+950674130+948984478+947425503+947348040+949548868
717+952264988+953100533+952124808+951526664+952738818+954615951+954501441
707+951357594+946658963+942497403+939925281+938527591+937029463+934402630
697+931104981+928868603+928673189+929908469+931070778+930277519+926120600
687+919484438+913618858+910788827+909380435+905986987+900670304+897378642
677+898473518+901649921+902323132+897445103+887229509+875076010+868722380
667+874366575+884380767+888133610+884952641+880306250+878857443+880674925
657+882705486+882449373+879770450+876161455+872837462+869690172+866282130
647+863010526+861019782+861067532+862026867+861288094+857871595+854500151
637+854556732+857881624+860760602+859916225+855963627+851954522+849849269
627+849371173+848889635+846823674+843336448+840490176+840014101+840744492
617+839281689+834927260+830959618+829772686+830882381+832800602+834372450
607+835148570+835585652+836146749+835893256+833233567+829200139
##END=
