##TITLE=<SNM>
##JCAMP-DX=4.24
##DATA TYPE=INFRARED SPECTRUM
##DATE=2/5/2025
##SAMPLING PROCEDURE=Instrument type and / or accessory
##ORIGIN=Admin
##XUNITS=1/CM
##YUNITS=ABSORBANCE
##RESOLUTION=4
##FIRSTX=4497.3318
##LASTX=599.83466
##DELTAX=-1.4281778
##MAXY=1.7017021
##MINY=0.26961049
##XFACTOR=1
##YFACTOR=1.5848336e-09
##NPOINTS=2730
##FIRSTY=0.28977853
##XYDATA=(X++(Y..Y))
4497+182844767+183636351+184542794+184668447+184081101+183351291+182550681
4487+181412112+180245262+180006442+181191402+182987608+183940480+183353077
4477+181768179+180313372+179808146+180275913+181121486+181749657+182015010
4467+182155688+182408103+182795311+183334178+184108782+184771234+184457064
4457+182897420+181174515+180586078+181135194+181797797+181945677+181883527
4447+182058637+182379821+182544193+182515835+182343528+181906431+181206520
4437+180620980+180511104+180749679+180833379+180343215+179293763+178200927
4427+177688687+177826827+178061021+177935217+177476890+176721919+175573459
4417+174433706+174160888+175005144+176219382+176991898+177166725+176909966
4407+176364949+175758893+175371027+175338213+175584234+175797104+175589801
4397+174954033+174285469+173735526+173072133+172480650+172732596+174082811
4387+175653774+176324087+175809270+174691237+173773022+173469533+173580105
4377+173634243+173405578+172967466+172403363+171738504+171131808+170876459
4367+171154016+171925460+172981513+173893410+174097441+173457160+172583869
4357+172217008+172530313+173212360+173817721+174014700+173854221+173678999
4347+173639227+173605002+173488789+173284156+172984353+172635262+172195853
4337+171524262+170826984+170580021+170710206+170604129+170164569+170119118
4327+171074303+172693914+173870205+173711512+172517244+171565595+171705633
4317+172488191+172924761+172662905+172065348+171532686+171236569+171276905
4307+171593595+171918183+172221409+172778761+173473933+173756493+173558498
4297+173389068+173437076+173375810+172998118+172533491+172455527+173076496
4287+174038789+174402284+173662150+172411731+171615559+171535469+171715506
4277+171813835+171969369+172287658+172549043+172666403+172842283+173101769
4267+173292581+173538527+173942452+173969268+173012560+171507187+170637620
4257+170931707+171808739+172526364+172958722+173345366+173836112+174420900
4247+174903504+174950911+174546497+174194191+174275785+174516823+174461613
4237+174114609+173783252+173626364+173627060+173751472+173967162+174273472
4227+174726044+175266999+175600914+175461797+174991209+174649942+174689601
4217+174855947+174767941+174439874+174145167+173899014+173590015+173470567
4207+173931922+174955612+176201856+177376529+178183984+178305181+177773215
4197+177078889+176683783+176651740+176840765+177166424+177455848+177226976
4187+176034607+174173807+172758151+172770581+174054453+175507060+176237547
4177+176253400+176060181+175975053+175995888+176113549+176456528+177029545
4167+177496090+177473073+177013429+176579323+176624511+177348322+178571004
4157+179654625+179888913+179188456+178197693+177664392+177856557+178509588
4147+179148007+179426825+179269599+178807304+178264957+177873124+177785400
4137+178046447+178653312+179584277+180661654+181441598+181477684+180805191
4127+180000218+179580346+179523067+179538826+179594281+179865256+180265101
4117+180415896+180194715+179969472+180116205+180558642+180931671+180977479
4107+180686928+180233340+179908112+180021448+180668067+181568718+182294918
4097+182698956+182976457+183285963+183560963+183724188+183820581+183950897
4087+184180785+184372574+184160626+183365206+182284951+181352031+180803649
4077+180810287+181404045+182187223+182627535+182618039+182354359+181948084
4067+181557755+181519957+181970123+182602074+182974444+182905074+182630657
4057+182702717+183481739+184585274+185143980+184790922+184083245+183796624
4047+184153537+184796470+185161018+184891339+184145564+183408194+182944545
4037+182702942+182733011+183258189+184252732+185298781+185959145+186160920
4027+186231325+186553092+187114074+187508089+187460080+187166031+187036824
4017+187245537+187579020+187688764+187437139+186976029+186538800+186249509
4007+186143112+186320384+187013036+188348396+190007102+191282512+191603960
3997+190957868+189808919+188685714+187890783+187577196+187809378+188366843
3987+188787053+188855051+188812364+188971884+189385795+189931526+190505126
3977+191069944+191606667+192033910+192228332+192177183+192016930+191870422
3967+191763499+191805057+192290218+193346704+194532453+195123278+194842731
3957+194057973+193364738+193246249+193972543+195489744+197195519+198074920
3947+197776716+197349999+197881232+198789179+198559405+196947090+195145769
3937+194259183+194903150+197311412+200630555+202739728+202196685+200180069
3927+199152054+200043679+201497075+201926894+201758780+202571933+204542045
3917+205636216+203829140+199876674+196515371+195346490+195898483+197579774
3907+201205113+207643824+215592703+221815254+224114072+222511291+217726529
3897+211335356+206373811+205408133+208047204+210584936+210019949+208575842
3887+209978127+213721748+216279545+217035193+217850151+217449216+213730925
3878+209640169+209669410+214032816+219912030+225414944+228943308+228179874
3868+224510212+222339548+222519246+221598756+217530941+212767673+210836393
3858+213952651+223503409+238329768+248648397+243300265+229179645+217383061
3848+211479269+211196540+214941778+220671590+227019512+233547394+238884846
3838+240119656+236621888+231612786+227717975+224952330+222731626+221323831
3828+220998227+221737929+224684720+231424588+239728838+243058793+240167928
3818+236537060+233575959+228197720+220944220+216215797+216826668+222491546
3808+229742056+234193900+236205138+239287078+242909108+242962269+239555064
3798+236044245+232694940+228453577+224512412+222766922+223445904+225692671
3788+228764362+231878477+234117365+235755555+238399609+242386770+245466190
3778+245921828+245483227+247094734+252239700+260413633+268990665+274883494
3768+277963516+280247046+282635130+285817525+291785441+301464296+312237378
3758+320546593+326943012+335347735+348821266+366705440+383170987+392904714
3748+399089918+406964274+415904857+420980960+422272918+425509847+434635204
3738+450075443+468695671+484484060+492987847+494891033+494123463+494550781
3728+498349556+505288566+512917859+518533996+521039685+521131076+521024980
3718+523331790+529844911+541737493+558642619+575346195+583767693+583682846
3708+582039127+583738583+590181187+599746198+607619538+609730253+607095301
3698+603229656+601159296+603137212+609935036+619952978+628659103+630204737
3688+624507439+618335510+615881572+616282601+617639999+619852222+624802522
3678+633686239+642365586+643164485+638147617+636287305+638097446+635708722
3668+626316300+616366545+611132821+610960946+613694773+617527322+622415453
3658+628582944+634450462+638780884+644466147+655679240+671067954+680096768
3648+674635657+662051551+652533288+649374174+651079835+654213902+656007269
3638+656503713+657518114+659795438+663053391+667730571+673603054+677027991
3628+674654462+670217380+669504306+674327937+683586620+693590871+698213142
3618+695456223+691992998+694424070+701587007+707484838+709416156+709565691
3608+709294527+707729525+705750969+706063127+709375237+713168972+714952486
3598+715480221+716968199+719702403+722175672+723717357+725014731+726592671
3588+728117356+729105806+729640311+729411947+728069592+726646678+726910546
3578+728770030+729671828+727778495+724812317+724446001+728643286+735665112
3568+740559675+739586719+734713067+730300131+727916898+726449304+724728298
3558+723411216+724396357+727962029+731393511+732046034+730764231+730068231
3548+730749187+731405020+730402278+728043266+726400712+727051129+728958829
3538+729595180+728564457+727810012+728492021+730180608+732339839+734291541
3528+734605128+733171007+732829664+735914688+739958902+739861042+734627243
3518+728614026+725886141+726579282+728381750+729323264+728907153+728027018
3508+728169934+729747272+731281962+730870364+728756866+727599023+729308521
3498+732164429+732008951+727118526+720928920+718485062+721483659+727485217
3488+732801607+735339339+735181455+733677380+731959006+729755697+726639683
3478+724386202+725665449+730004370+733638567+734332836+733352134+732177065
3468+731154014+731218326+733237500+735831947+736516890+734732248+732303358
3458+731553727+733187856+735408014+736060011+735598618+735748830+736442047
3448+736300936+734965953+733367027+732437247+732669749+733884607+734885995
3438+734578351+733330320+732516753+732806948+733135127+731742075+728444031
3428+725220229+724184766+725413165+727169750+728213711+729259177+731731168
3418+735544160+738434819+737825095+734063478+730577086+730031223+731915078
3408+734182023+735643148+736212930+736524863+737496539+738866951+738869132
3398+736508164+733335962+731752982+732231900+732944147+732399939+732040769
3388+734159683+737778459+739400402+737775676+734956551+732830717+731422546
3378+730608829+731640379+735818633+742086842+747237751+749183887+748327069
3368+745593543+741167819+735337158+729881387+727601280+729519435+733046294
3358+734570302+733853918+733653836+735300526+737092915+737279533+736386310
3348+735676620+735264722+734705245+734155094+734267772+735465030+737741151
3338+740461965+742177481+742249691+741972058+742981118+745265965+746785911
3328+745694712+742845800+740650313+739775067+738834306+737116609+735503467
3318+734748872+734666281+735012213+735927851+737681427+740395322+743627850
3308+746065315+746521291+745574061+745152986+746127371+747099423+746413127
3298+744633450+743556392+743784907+744898371+746441560+747335535+746092093
3288+743058669+740486336+739909859+740866643+741861938+742451277+743860577
3278+746919650+750585213+752842304+752321865+749422631+746109393+744145731
3268+743908717+745250244+748287730+752322918+755275106+755674818+754361724
3258+753079995+752279366+751504462+751143186+751880030+752888262+752777992
3248+751952315+751571858+751208777+749815725+747738407+746211992+745814009
3238+746231022+746538968+745739693+743654101+741042504+739083957+739055900
3228+741442593+744529498+745282212+743040316+740615562+740434134+741643728
3218+742034264+741211671+740561179+741247475+743203465+745233546+745742852
3208+744242387+742144761+741434319+742718003+744386055+743954826+741071539
3198+738389462+738401798+740520862+742390651+742849937+742216068+741184969
3188+740582692+740595028+740071279+738260085+736480108+736357802+737581085
3178+738587889+738240905+736167273+732721198+728939723+726026123+724979604
3168+726230868+728653666+729748626+728276068+726035149+725355472+725964293
3158+725856580+724270742+722584035+722564704+724494518+727085429+728851943
3148+729211338+728538431+727567582+726546712+725058659+722829474+720041715
3138+716916599+714113645+713078259+714500947+717015587+718785410+719501644
3128+719556478+718493185+715666462+711835418+709066614+708852015+710479148
3118+711584488+710724888+708913619+707934571+708032431+708224765+707974888
3108+707285433+706052597+704711445+704464652+705399321+705623172+703938121
3098+701851325+701283875+702096388+702910105+702648269+701010830+698853405
3088+697755586+698250376+699069433+698895226+698080757+697729109+697811173
3078+697285393+696004643+695371150+696448509+698223823+698537110+696449938
3068+693064114+690183159+688778448+688678557+689139648+689288205+688347444
3058+686105472+683309890+681386846+681410841+683016010+684410642+683988288
3048+681953093+679801158+678568172+678334316+678734405+679123888+678753360
3038+677412585+675746489+674744649+674902684+675642536+675701733+674393603
3028+672211430+670150360+668884428+668518112+668661404+668746928+668433942
3018+667594350+666259291+664873610+664042443+663751797+663379991+662640364
3008+662085024+662443366+663437984+663549534+661659511+658782843+657029643
2998+657062965+657732939+657786871+656979021+655816138+654832502+653987569
2988+652823182+651374543+650075213+648752039+646995680+645335751+644550241
2978+644180842+643143123+641466722+640244341+640122486+640672562+640970353
2968+640411928+639235055+638341380+638345066+638856629+639021358+638612619
2958+638018165+637334878+636246311+634656787+632804073+630945905+629260703
2948+627727067+626114601+624329697+622561453+621188033+620917772+622398980
2938+624867173+626166728+625149506+622873047+620745972+618952981+617205761
2928+615514842+613621623+611125562+608645147+607475419+607641615+607628527
2918+606556283+605193318+604342706+603755774+603059812+602406236+601893394
2908+601305860+600487178+599400868+598023123+596522771+595256688+594456059
2898+594090007+593896657+593416761+592310819+590753677+589172352+587779563
2888+586781334+586488432+586662413+586386247+585207644+583795524+582904783
2878+582284528+581118148+579244560+577504561+576769072+576870204+576792653
2868+575818269+574079623+572085272+570347266+569456600+569716030+570420567
2858+570209766+568668458+566896077+565853469+565048741+563639780+561978573
2848+561067447+561083394+561256359+560784850+559424969+557593692+556132379
2838+555536119+555315691+554575199+553134270+551434965+549644757+547731379
2828+545995028+544633041+543233181+541459785+539722231+538627571+538310374
2818+538380741+538057300+536726266+534764860+533229005+532540979+532148449
2808+531505855+530738134+530211415+529858563+529127737+527611439+525629047
2798+523928087+522841852+522072514+521255337+520238642+518816781+516891180
2788+514990325+513880020+513563613+513328855+512702244+511734743+510618383
2778+509603380+508893540+508242221+507143500+505527649+503761624+502154951
2768+500951751+500412319+500364480+500066651+498994144+497406124+495801105
2758+494299061+492919962+491928917+491421904+491013993+490389752+489734784
2748+489226230+488570209+487460167+486079978+484800731+483727735+482784642
2738+481931698+481098800+480133480+478962812+477687778+476480704+475415568
2728+474352162+473094504+471764523+470756102+470156683+469537482+468525526
2718+467306041+466375960+465935328+465612038+464854434+463580002+462233548
2708+461237237+460691374+460502124+460389371+459901201+458786044+457253198
2698+455705232+454355581+453162386+452046439+451129823+450632063+450461504
2688+450137160+449283352+448041264+446877253+446066168+445418873+444540468
2678+443332792+442043467+440779490+439336417+437670358+436174406+435290774
2668+435053533+435121042+435119688+434867969+434350651+433613319+432715771
2658+431666920+430385793+428935838+427730343+427111105+426798382+426269745
2648+425584689+425198930+425088509+424743518+423934765+422879896+421763424
2638+420604565+419492831+418612771+418085751+417873521+417734516+417352330
2628+416646853+415833399+415071019+414231878+413144703+411946279+411042187
2618+410657066+410524756+410214216+409675724+409158407+408697127+408103049
2608+407396632+406850054+406577386+406311713+405698680+404768788+403954619
2598+403537381+403270279+402704144+401693128+400455967+399343970+398610850
2588+398235245+397938883+397449171+396727221+395958033+395369559+395045930
2578+394917456+394853294+394640200+394022390+392996142+391925402+391183256
2568+390829126+390705429+390667180+390650068+390608848+390451941+390081376
2558+389474962+388658838+387696714+386789839+386202004+385981086+385888266
2548+385644557+385187979+384710904+384424922+384281216+384057215+383693381
2538+383311232+382934085+382471452+381977490+381657735+381549495+381391911
2528+380949474+380346520+379919541+379812241+379858162+379794076+379474058
2518+378958621+378470526+378197331+378109814+378009247+377740415+377317045
2508+376852419+376436083+376115124+375929935+375851181+375730154+375443232
2498+375050477+374714889+374485057+374217279+373741332+373095503+372526397
2488+372231540+372185769+372229734+372219129+372077153+371809525+371501579
2478+371262270+371129697+371014537+370779742+370422941+370120073+370008448
2468+369984942+369807125+369362995+368787910+368344157+368189732+368224860
2458+368189544+367930641+367514380+367098195+366809618+366720258+366782313
2448+366815447+366691336+366498964+366423745+366498250+366549323+366380344
2438+365964723+365439094+364946862+364552377+364287230+364194786+364302989
2428+364571557+364879766+365105348+365227428+365300766+365332621+365234122
2418+364903573+364383924+363943668+363868826+364119492+364355980+364339395
2408+364122163+363861680+363666111+363613383+363717711+363845057+363801919
2398+363572652+363353238+363259177+363129312+362768976+362279941+361972108
2388+361976321+362032396+361680147+360634191+358872943+356348600+352866007
2378+348413806+343406264+338409554+333765959+329553856+325727739+322168799
2368+318721483+315477090+313032685+312004858+312293755+313492009+315867757
2358+319969100+325501556+331818131+339189987+348033124+357070588+363751522
2348+366259392+364746178+361317291+358317189+356158710+353892104+351032173
2338+347639729+343808384+339769285+335965131+332925464+331085424+330416165
2328+330342902+330310069+330297921+330671420+331679577+333222804+335082589
2318+337179727+339452501+341675028+343603225+345171725+346451911+347569136
2308+348665751+349813365+350985725+352109607+353045479+353642980+353966571
2298+354299640+354809849+355405206+355967805+356513404+357062840+357525624
2288+357806942+357993222+358328886+358929470+359595721+360016156+360087238
2278+359917055+359594404+359131696+358650258+358429604+358607120+358932968
2268+359040869+358911154+358845864+359043727+359418355+359779781+360019014
2258+360140606+360214546+360301461+360425798+360611551+360856501+361070084
2248+361154179+361159745+361260275+361559232+362002647+362487959+362974286
2238+363425148+363713348+363721886+363533538+363389231+363463584+363768070
2228+364191251+364565089+364828843+365118398+365500021+365752944+365702698
2218+365558541+365592126+365740570+365821318+365868631+366032532+366378351
2208+366900444+367555337+368244567+368852109+369285106+369494741+369532614
2198+369535434+369602078+369755036+370008674+370351370+370670975+370824986
2188+370826904+370900167+371273252+371892265+372438279+372739079+373031116
2178+373613422+374373169+374896128+374960365+374729293+374570017+374807370
2168+375482948+376263117+376758809+376950429+377130917+377493960+377967801
2158+378393690+378715965+378982691+379205113+379289659+379180855+379015336
2148+379015298+379269650+379700692+380181942+380622686+381002729+381375175
2138+381785757+382166740+382370470+382363588+382322443+382429705+382630803
2128+382728926+382684133+382671571+382871841+383316272+383869468+384273281
2118+384322963+384111259+383986546+384173089+384546739+384869239+385086772
2108+385257180+385336611+385246311+385078460+385053187+385275985+385614921
2098+385816770+385766599+385674193+385886912+386432587+386917786+387007559
2088+386809095+386629961+386585845+386608298+386640943+386684683+386760578
2078+386883411+387018240+387100643+387133400+387179284+387248786+387291134
2068+387291435+387290871+387324644+387383240+387396478+387247620+386895559
2058+386482607+386210578+386117232+386096058+386098540+386169509+386303662
2048+386412203+386445336+386462975+386531199+386567680+386384259+385948291
2038+385494119+385261994+385240105+385279257+385354250+385561591+385897179
2028+386184553+386300879+386372148+386613789+387080446+387714842+388449316
2018+389026808+388989838+388218394+387249200+386707549+386660199+386778368
2008+386877845+386997518+387118545+387120688+386993644+386869082+386801949
1998+386748468+386891422+387639510+388924097+389825858+389505613+388244796
1988+386913348+385897743+385123403+384555539+384164439+383789097+383372987
1978+383079897+383024761+383059588+382924720+382627832+382606056+383242219
1968+384149658+384356209+383484085+382242185+381423390+381036803+380734198
1958+380500042+380467961+380484397+380310039+380012850+379848986+379905325
1948+380161445+380873127+382362309+384037319+384295320+382374006+379542356
1938+377449205+376453270+376079734+376003086+376098050+376152019+375940654
1928+375586223+375763439+377017487+378739471+379784674+380190667+380658904
1918+380576464+378742103+375834520+373862697+373725799+374664078+375349735
1908+375021932+373905685+372727683+371899862+371335458+370918520+370849056
1898+371417898+372415976+373104266+373323529+373988914+375457223+376340781
1888+375362748+373356926+371820995+371027061+370525502+370132597+369858048
1878+369678275+369628066+369890129+371073132+374203137+379460932+384537562
1868+385670620+382079223+377024896+373579009+372242597+372005996+371915997
1858+371629376+371307063+371253996+371506694+371965115+372835810+374612854
1848+377835228+382590373+387142389+387922145+383973834+379006347+376367596
1838+376051113+376283652+376292641+377393881+381129247+386446239+389799493
1828+389640255+388087852+386547672+384172299+380927134+378456046+377690845
1818+377939331+378303202+379001232+380882718+383843067+386265864+386640191
1808+385404120+384350493+384962360+387692539+391687749+394910348+395720680
1798+394817453+394728883+397477265+402590940+406235855+404530570+399260665
1788+395401865+395097041+397038702+399302412+401288940+402795272+403359375
1778+403621776+405665057+411206953+419482827+426165905+426873714+422665786
1768+417320963+413189796+411911415+414315822+418509044+421022481+421408729
1758+421783695+422581203+423478751+426249360+432876739+441698024+447562383
1748+447763180+444861802+442468453+442318467+444366374+447154735+448916096
1738+450527283+455520646+464969181+472878551+472257657+466245456+460565608
1728+456941679+455921637+457649187+461082399+465911597+474225908+487848673
1718+503545220+512391027+510471292+503964678+499122881+498350722+502300687
1708+510655879+521178501+530387427+538091111+548213945+562221642+574229158
1698+578834843+578301956+574903269+570414362+568955267+572925617+581123225
1688+591925360+606386852+624401907+637339917+637370155+631711294+629254761
1678+632656418+640901753+650564737+658605176+666056953+674478901+680553572
1668+680245777+677311491+678277752+684309247+691062015+694368860+695883465
1658+700335892+711089624+728886920+747705612+753370791+748108935+746741532
1648+751462791+754243630+748376488+738831974+732862384+732329609+736790686
1638+745109058+752695627+750896469+738840699+726252531+718893424+716050981
1628+714912469+713805549+712469964+709298589+702380414+694480334+690530594
1618+690648237+688821397+680639998+670380454+663201271+659510434+657018210
1608+653647354+649296774+645135444+641754434+638673923+635338796+632022926
1598+629475566+627900484+626707438+625254850+623375471+621154410+618710062
1588+616214565+613891395+611996144+610673723+610031015+610875723+614738095
1578+621627273+626927679+624593639+617863888+614886653+617338222+620022141
1568+618078375+613664686+611067493+612387959+619912322+636508223+657950848
1558+665165083+653265694+639239719+630522461+626513675+625402580+625651855
1548+627478506+633081705+644107278+659915789+678010424+691879418+690594229
1538+677077786+666946415+666031378+670070327+672219629+671867004+674072720
1528+681080405+690531046+700005531+710053710+720227279+726516700+727519367
1518+726406730+724305643+720637147+717503005+718516879+725715845+739047175
1508+754688173+760915312+750327213+735793586+728598305+729584875+735833075
1498+742712813+745162765+742731768+740880182+744172660+751777958+757890990
1488+757181150+751049539+744706487+741525710+741866000+744453000+748551748
1478+754777308+763672006+774116138+782364030+783025053+775847374+768248920
1468+766275630+769806702+774142389+774976490+774315242+777903705+788708360
1458+802843628+808462097+800638288+789440615+782305961+779697448+779390555
1448+778382548+774919550+770131647+766162426+763997704+764273456+767984752
1438+774357816+778603992+776484702+771331462+768526177+768667212+768978242
1428+768052900+767496356+768632085+770778153+773473543+777413504+781204532
1418+780385023+774001278+766585080+761686982+759487283+758487024+757701965
1408+757729871+759262906+760991434+761065374+760541475+762150180+766286462
1398+770682700+773301142+773424802+771070829+767915400+766707687+768332789
1388+770712487+771119345+769907044+770155190+773690324+779653370+786392298
1378+793450605+801094265+808345207+813002831+814609504+815475122+817505804
1368+820470854+823843590+827986567+832368815+834461477+832399579+827546687
1358+822568481+818759326+816021361+813972476+812248010+810271260+807788061
1348+805444018+804077518+803929036+805085525+807767226+811359149+813973755
1338+814221450+813023441+812394536+813110845+814504499+815841588+817014926
1328+818153137+819434640+821212888+823706692+826720860+829906076+832931075
1318+835510779+837760649+840171412+842786845+844989026+846592916+848472032
1308+851473714+855218633+858528260+860675983+861716785+862136205+862695683
1298+863880304+864967968+864507854+862176974+859161828+856459593+853935024
1288+851151627+848070214+844666412+840667705+836044983+831444526+827886225
1278+825939337+825198958+824756295+824266997+824214269+824976235+826250743
1268+827662299+829191647+830662326+831579544+831797829+831688385+831591428
1258+831713207+832348280+833697630+835744484+838441680+841541823+844326498
1248+846111215+846958254+847481025+848198386+849362247+850983814+852735058
1238+854177153+855256844+856367750+857880325+859736049+861591696+863245307
1228+864803464+866542899+868610965+870835486+873026835+875390361+878152922
1218+880851697+882814156+884336058+886476785+889688327+893263402+896244850
1208+898624848+901398240+905232068+909295162+912107593+913463337+914553859
1198+916337598+918714136+921140017+923280068+925071930+926627304+928177865
1188+930070295+932694152+936207848+940274102+944189165+947374306+949665847
1178+951149538+951933694+952194176+952188460+952196057+952696713+954209062
1168+956531970+958792671+960738280+963022901+965917923+968841301+971263573
1158+973190904+974927706+976874218+978998999+980410330+980444930+980246654
1148+982029339+986289958+990604509+992060895+990599093+988893206+989262756
1138+991955664+995972047+999976922+1002574829+1003062623+1002181059+1001617219
1128+1002597696+1004928426+1007367847+1008838901+1009092012+1008682220
1120+1008917129+1011218598+1015611301+1020093063+1022407019+1022302014
1111+1021553060+1021829790+1023188693+1025052615+1027567105+1030509288
1103+1032102046+1031321426+1030136429+1030935177+1033179405+1034630000
1094+1034625412+1034427962+1035282674+1036831429+1037426033+1036620741
1085+1036228174+1037647402+1039693354+1040395371+1039732016+1039319291
1077+1040359943+1042804930+1045850164+1048451380+1050255353+1052202166
1068+1054919521+1057222570+1057600695+1056662190+1056840910+1059405570
1060+1062861423+1064687961+1063467310+1059699450+1055926249+1055364891
1051+1059089501+1064861641+1069377778+1071106532+1070407524+1068452738
1043+1067075105+1067985328+1070716147+1072310409+1070341106+1065766524
1034+1062066360+1062139698+1066094177+1071114957+1073741823+1073087645
1025+1070974373+1069196727+1068323812+1068199250+1067997814+1066587838
1017+1063700113+1060348814+1057982581+1057608292+1059128389+1060843001
1008+1060685644+1058469698+1055892626+1054478287+1054526502+1055463503
1000+1056254730+1055981234+1054701687+1053408751+1052801359+1052213073
991+1050103787+1046235133+1042274713+1039065879+1035251232+1030070010
983+1025455111+1023255412+1022287572+1020405974+1017750298+1015570533
974+1013534435+1010505900+1006771963+1003573885+1001076621+998067267+993408214
964+987239671+980845997+975502604+971532405+968364865+965200486+961801423
954+958786804+956833296+955506436+953355103+949511874+944824539+941136786
944+939676112+940321941+942029032+943541005+944055652+943863919+943897091
934+944268973+944171113+943322344+942362101+941652411+940706685+939070601
924+937177268+936005059+936112245+937273323+939004183+940856972+942136595
914+942338407+941791416+940825456+938868187+935529375+931871259+929473810
904+928915009+929584983+930166048+929487123+927736481+926381489+926291904
894+926574651+925928597+924513054+923600500+923769667+924398872+924671014
884+924133199+922646575+920603557+918870817+917882742+917197499+916286449
874+915073997+913775495+912815327+912544689+912891824+913748115+915475289
864+918211148+920830342+921686783+920378502+917854535+915496727+914701288
854+916147745+918724666+920444544+920693594+920094100+918800637+916857660
844+915150269+914278257+913780384+913360588+913474996+914216503+914886777
834+914965381+914664581+914620427+915531402+917619476+920030916+921311291
824+920798449+919104973+917464827+917153571+918937836+922364956+926135975
814+929153904+931182480+932682870+934054936+935187280+935335762+933814010
804+931075143+928513341+926896061+925721219+924762480+924956394+926632645
794+928565919+929993496+931719843+934111425+935728780+935112287+932723864
784+930180039+928615187+928531243+930141677+932998036+936131501+939111219
774+941869342+943142044+941069842+936159408+931478993+929358650+929256277
764+929187151+928497470+928314011+929371286+930478131+930281660+929753248
754+930883485+933289660+934577932+933927891+932900252+932967422+934370629
744+937033224+940646736+943690841+944332984+942982430+942287860+943869335
734+946416545+947668637+946964062+944811751+941355974+936964098+933464543
724+932974192+935586767+939549670+943598096+947182197+948904783+947767550
714+945043576+942030386+938048829+933186760+930101285+930181694+931001579
704+930302796+929520746+930641206+931870657+929375348+922813260+916179488
694+913172541+913596925+914240497+913147869+911669895+911684337+912236367
684+910498813+905603498+899395314+893966698+890256906+888424726+888252250
674+889131257+889491329+886481148+878424462+869295306+866294150+868116176
664+869247843+869757074+872064712+875270913+875554488+871547507+866090308
654+861791327+858168188+854555353+852955600+854985906+858454696+860019774
644+859293536+857379067+854120062+849684710+845599426+843259445+843252524
634+844898086+845807858+843849536+839838042+836913234+837769750+842125671
624+845879767+844671678+838887201+833070606+830503163+830396352+830126091
614+828577712+827337654+828554093+831838973+834474640+834518869+832859693
604+831956164+833006595+834624927+832906779
##END=
