##TITLE=<SNM>
##JCAMP-DX=4.24
##DATA TYPE=INFRARED SPECTRUM
##DATE=2/5/2025
##SAMPLING PROCEDURE=Instrument type and / or accessory
##ORIGIN=Admin
##XUNITS=1/CM
##YUNITS=ABSORBANCE
##RESOLUTION=4
##FIRSTX=4497.3318
##LASTX=599.83466
##DELTAX=-1.4281778
##MAXY=1.7382184
##MINY=0.18856196
##XFACTOR=1
##YFACTOR=1.6188421e-09
##NPOINTS=2730
##FIRSTY=0.20910618
##XYDATA=(X++(Y..Y))
4497+129170215+129099853+129095610+128936983+128674682+128348666+127946709
4487+127708332+128053642+129046898+130201653+130934090+130980676+130413290
4477+129544262+128795523+128494332+128762993+129447639+130084144+130198274
4467+129685308+128795137+128024131+128044778+129167684+130795870+131915702
4457+132089553+131607616+130909495+130216749+129615802+129213441+129031691
4447+128806974+128179776+127122933+125963198+125092633+124885690+125614556
4437+127056345+128336617+128603833+127948274+127333797+127476085+128105603
4427+128497066+128316578+127710339+126974192+126340605+125802390+125170469
4417+124483688+124029807+123815334+123545136+123273069+123444214+124077902
4407+124554123+124509323+124255482+124008737+123456834+122446788+121455953
4397+121041782+121259679+121812585+122425590+122898755+123053350+122926746
4387+122872898+123071004+123083532+122419303+121328586+120468478+120072219
4377+119969788+120020562+120112223+120113576+120041493+119986099+119912653
4367+119746092+119468705+119071498+118657750+118507040+118722810+118969877
4357+118923236+118786912+118926126+119233880+119381802+119439424+119667391
4347+119925126+119828383+119306985+118622763+118063993+117807592+117773314
4337+117562164+116956707+116479529+116902233+118051557+118774596+118477418
4327+117908330+117869918+118050986+117794963+117234665+117000504+117310900
4317+117805530+118045721+117919044+117596839+117263780+117077355+117269653
4307+117943446+118820528+119425129+119530764+119387647+119462142+119837781
4297+119978919+119427900+118579150+118283160+118851438+119879700+120862021
4287+121580504+121994748+122037266+121604050+120750311+119858676+119445021
4277+119713562+120360873+120876721+120996062+120837030+120694990+120725633
4267+120812747+120778782+120649960+120511197+120286747+120069218+120331795
4257+121259200+122261017+122688185+122584124+122349180+122223157+122337573
4247+122743009+123268181+123729831+124142815+124458485+124429499+123977634
4237+123338948+122746553+122316835+122149104+122156440+122019371+121648187
4227+121421702+121669275+122165065+122436009+122386975+122358891+122668514
4217+123270455+123917996+124504113+125046480+125420610+125396770+124975437
4207+124513806+124457822+124915026+125457512+125500066+125002619+124587113
4197+124781004+125389728+125876571+126075690+126138504+126071824+125824214
4187+125595944+125627894+125898120+126269728+126641106+126888679+127014362
4177+127275098+127873264+128691702+129479736+130071966+130388465+130383549
4167+130033020+129413729+128816639+128546993+128558435+128597426+128650474
4157+128893334+129376790+130061067+130871129+131487981+131485165+130885323
4147+130186557+129711265+129349571+129009628+128815120+128788518+128795109
4137+128824785+128985419+129231740+129326421+129089737+128645798+128359739
4127+128417131+128587715+128576329+128405331+128265703+128258900+128425333
4117+128764899+129192214+129598875+129852919+129763917+129347297+129040454
4107+129257523+129815455+130232701+130507382+131083457+132065170+132988911
4097+133426794+133368086+132959272+132323641+131713435+131459575+131683630
4087+132238285+132913708+133588606+134186975+134560672+134532837+134176849
4077+133938361+134194651+134730906+134947707+134574958+133900530+133322798
4067+133007569+132987015+133221361+133460428+133376526+132996938+132731296
4057+132817121+132992188+132907909+132646105+132538896+132622430+132631055
4047+132495735+132435480+132493010+132399379+132033073+131632166+131434989
4037+131431786+131547481+131793710+132167767+132552160+132729537+132526056
4027+132080505+131868831+132217132+132900453+133452429+133682283+133691258
4017+133633967+133612731+133599808+133402521+132911765+132373237+132182587
4007+132441601+132939748+133532778+134243989+134949769+135283223+135011074
3997+134296116+133477310+132802826+132448155+132545211+133042124+133739896
3987+134559218+135508604+136329812+136543281+136023522+135268523+134937610
3977+135277977+136051237+136806024+137099934+136655672+135596252+134526872
3967+134158154+134791971+136182599+137711862+138698076+138866966+138592975
3957+138456311+138612766+138762390+138665657+138531036+138749062+139247393
3947+139526354+139517987+139740366+140349045+140744935+140453455+139795255
3937+139422975+139753391+140840316+142247706+143034157+142540134+141343203
3927+140700191+141055423+141723565+142156578+142784798+144097094+145637439
3917+146325868+145491828+143503990+141492137+140476835+140675015+141702513
3907+143422021+146117710+149661495+152958397+154725355+154504366+152641005
3897+150054596+148136798+148060039+149724492+151402385+151546211+151092891
3887+151708216+152999294+153571300+153897510+155055882+155690942+154068895
3878+151752150+151412198+153401876+156479869+159738875+162155805+162374751
3868+161036590+160207787+160128939+159254554+157122697+155180258+154883163
3858+156978679+161955158+168969567+173103142+169850046+163168483+158134879
3848+156157534+156841379+159205860+162199362+165290509+168348315+170543114
3838+170505816+168549901+166562008+165217441+163791226+162151018+161163690
3828+161136720+161636174+163089892+166556246+171059800+173320358+172634359
3818+171500692+170458246+168175541+165253450+163831433+165077730+168646662
3808+172645534+174987242+176313768+178616705+181146449+181287154+179540041
3798+178370641+177994882+177535764+177442942+178650395+180975552+183655814
3788+186527554+189804951+193358143+197241899+202274289+208815957+215567495
3778+221151953+226253360+232600512+241307523+252597520+265465666+277852841
3768+288569781+297693127+305043937+310880920+316689865+323372422+330287125
3758+337125870+345309293+356659581+372006310+390498256+408728305+423105509
3748+434997593+448347501+463654834+476135033+483072748+488285809+495826514
3738+506755994+518989357+528496360+533266449+535669166+539077934+544038416
3728+548494988+550061318+548525327+546329203+545157060+543798317+540800047
3718+537125775+534824715+534856269+536658427+538534923+539121418+539117663
3708+539801471+541032119+542106212+542996245+544196997+546129937+549040356
3698+552827442+556870313+560579085+564400414+569443517+575082579+577871383
3688+576354318+574044053+573776671+575463253+578417892+582537899+587775520
3678+592748556+593565025+588092939+581773715+580112207+581736711+581507069
3668+577500650+571857060+566280003+561423020+558196323+557511006+558915994
3658+560195685+559476420+558211456+559611069+564746478+571548256+575884025
3648+575383908+572269657+569733470+568679038+568294129+567847695+567590733
3638+568101638+569485234+571492880+574121263+577924514+583099247+587781227
3628+589559526+589618952+590474633+592955886+597077329+602249852+606469824
3618+608114911+608886533+611531153+616267626+621316105+625090084+626893494
3608+626746364+625568809+624900539+625668884+627779661+630844353+634592043
3598+638413666+641215763+642168573+641479684+640792488+642421154+647303983
3588+653301701+657028183+658234236+659301923+661313877+663033633+662965149
3578+661427281+659776745+658130038+655959540+654669759+657104620+663410074
3568+668442390+666664091+660102375+655115788+654030355+654399137+653621366
3558+652011994+650973911+650583037+650518530+651351530+653381673+655608504
3548+656873763+656819270+655404967+652976587+650927297+650247024+649987742
3538+648910778+647709511+647934403+649446572+650522580+649931924+648044493
3528+646180920+645251675+645208596+645814127+647200889+648959305+649701362
3518+648754737+647297503+646643960+646501764+645503519+642893914+639590412
3508+637554009+637934795+640092701+642275055+642754516+640744108+637143179
3498+634360155+634395060+636678152+638753730+639333266+639285474+639382014
3488+639095118+638262118+637661153+637262989+636164522+634875331+635461936
3478+638178465+640339243+639681503+636994503+634405148+632593859+630761804
3468+628684385+627386284+627520601+628168326+627953448+626953657+626210790
3458+625897237+625769622+626577437+628839100+631070424+631322194+629551995
3448+626873391+623896771+621136943+619464020+619191189+619506952+619027123
3438+617078755+614660132+613561075+614220583+615107818+614574674+612598287
3428+610269871+608306629+606870712+606506790+607850437+610168397+611696546
3418+611752953+610947273+609704768+608460460+608263808+609298504+610208235
3408+610090671+609459883+608708327+607498887+605991357+605184351+605691132
3398+606967253+607814134+607415380+605900818+603970529+602296024+601363906
3388+601408605+602046978+602267673+601452383+600166101+599335825+599018222
3378+598773079+598918626+600071107+601570352+601945946+600974910+599938852
3368+599789807+600232154+600860623+602065204+603976568+605397388+604971168
3358+602913447+600461134+598125722+595700287+593691977+593477873+595648408
3348+598890275+601025831+600931648+599195065+597478033+597465883+599431960
3338+601575396+601869399+600454764+598864612+597647807+596315243+594981169
3328+594698875+596050880+597937722+598298920+596398786+593882775+592960451
3318+593983181+595461108+596222569+596552948+596933697+597015104+596733657
3308+597110024+598711186+600509846+601376572+601415122+600861286+599422461
3298+597733154+597452886+598836997+599976592+599446025+598219390+598003592
3288+599013509+600289887+601290415+602327504+603553293+604049470+602846288
3278+600748619+599919485+601590971+604757616+607183198+607575250+606356789
3268+604478452+602448493+600629877+599304161+598221820+597136019+596408985
3258+596255154+596287334+596331480+596662265+597226373+597654177+597677852
3248+596831818+594734001+592101089+590347275+590196500+591462826+593461710
3238+594980764+594922111+593582440+592373662+592010697+591792580+590961715
3228+590008206+589844212+590319992+590547351+590169953+589483457+588797403
3218+588266726+588061569+588193272+588166025+587217560+585329392+583541262
3208+582587274+582085795+581770364+582104794+582799280+582347838+580143871
3198+577664754+576640661+577253003+578391640+578692196+577398292+574966082
3188+572615206+571076822+570184874+569622901+569451949+569536670+569027349
3178+567307224+565216109+564339330+565138494+566471942+566868191+565823001
3168+563973273+562487872+562227559+563041229+563749080+563099440+560937226
3158+558315029+556450315+555688376+555445332+555055047+554430629+553712284
3148+552686903+551190161+549767758+549090724+548922350+548555040+547929959
3138+547424651+547035692+546585244+546259172+546244408+546171800+545335450
3128+543338923+540713780+538914420+538983788+540196910+540869599+540431339
3118+539631255+538915782+537891175+536300286+534433031+532644497+531236931
3108+530544139+530538874+530655444+530385853+529739564+528979540+528290172
3098+527734458+527278635+526950869+526863239+526760072+525991690+524472930
3088+523093642+522577435+522510498+522048158+521152528+520541401+520529177
3078+520519567+519923536+519063179+518618108+518577386+518367331+517731278
3068+516966320+516478059+516353831+516243336+515626428+514287421+512529188
3058+510930052+509849369+509137320+508443423+507766058+507397129+507352025
3048+507290427+507047235+506762843+506378191+505568314+504417158+503553488
3038+503250833+502955064+502111754+500944103+500035476+499571737+499262234
3028+498842899+498412003+498086373+497505769+496182962+494359964+492936824
3018+492453460+492592196+492761896+492752360+492569809+492008168+490925680
3008+489769591+489124038+488785815+487984333+486471464+484812939+483720473
2998+483503607+483912780+484195331+483564690+481941106+480124257+479026269
2988+478847216+479145048+479486657+479666409+479397444+478345627+476635407
2978+474980710+474078232+473982318+474207321+474320651+474201172+473788464
2968+472932268+471609866+470118132+468909317+468157246+467577305+466911023
2958+466373129+466203135+466087007+465530593+464587172+463751042+463235535
2948+462761487+462073518+461297477+460607704+459878645+458937102+457889703
2938+457038588+456647935+456670542+456586336+455885444+454734877+453658760
2928+452754477+451809363+450846206+450036292+449417175+448931749+448392715
2918+447509015+446350495+445512340+445370402+445443525+444940905+443789418
2908+442659212+442047091+441805262+441547932+441117035+440637353+440287423
2898+439933184+439127430+437752303+436326512+435356507+434847554+434650018
2888+434694165+434718097+434293681+433284243+432018911+430994892+430487264
2878+430383728+430352874+430128276+429592003+428742434+427716096+426737512
2868+425968688+425427445+425029759+424702509+424474708+424375627+424222754
2858+423688800+422698066+421595107+420702533+419833892+418595033+417121855
2848+416044817+415677913+415706411+415679643+415401436+414887108+414259412
2838+413637313+412998829+412248783+411358713+410354577+409373122+408687657
2828+408372667+408141037+407804950+407532230+407370777+406963924+405993588
2818+404558960+403035267+401801930+401048571+400692160+400536267+400470397
2808+400393666+400077682+399334632+398333736+397533468+397093072+396523257
2798+395312711+393774290+392707046+392286164+391903722+391165642+390461841
2788+390293430+390466812+390338092+389629614+388607032+387583013+386639997
2778+385766680+384969395+384280284+383721478+383193231+382532730+381771490
2768+381067947+380360280+379470725+378508895+377731529+377098273+376396461
2758+375676164+375133006+374630791+373763696+372437833+371044811+369987213
2748+369341513+369027407+368950381+368899718+368615399+368024965+367229263
2738+366317690+365370514+364555481+364041631+363800833+363565521+363048430
2728+362219075+361298335+360494238+359855165+359326845+358765756+357955878
2718+356854539+355766344+355025871+354596411+354222732+353846991+353578983
2708+353367198+353020103+352485081+351862467+351227371+350595330+349977723
2698+349365013+348713827+348008222+347302211+346682248+346195202+345818614
2688+345479140+345040769+344324082+343339349+342480207+342182781+342333998
2678+342323725+341758770+340822124+339861618+338966872+338065830+337190746
2668+336523469+336255977+336381126+336577594+336441878+335926592+335385495
2658+335088253+334872712+334412692+333705945+333097212+332811678+332644187
2648+332231737+331523775+330779694+330157116+329560165+328899406+328244574
2638+327672329+327180717+326796029+326576512+326492122+326450406+326393594
2628+326205779+325652016+324661614+323558618+322759418+322335775+322066037
2618+321768942+321409327+321033034+320729680+320518963+320238142+319715345
2608+319057310+318580095+318442207+318480941+318411352+318089073+317583065
2598+317060783+316618694+316220272+315806791+315412383+315099419+314832479
2588+314502283+314038617+313464163+312914966+312603364+312613600+312728623
2578+312620080+312210318+311689030+311202942+310721566+310198621+309672989
2568+309180457+308705120+308258851+307911940+307718049+307687011+307837915
2558+308163195+308503276+308586322+308280556+307740122+307230562+306855170
2548+306529080+306199087+305959762+305876734+305804274+305525533+305033296
2538+304532829+304176584+303912442+303633223+303395886+303399034+303716803
2528+304108560+304173767+303727278+302995863+302409257+302198043+302222363
2518+302172841+301901593+301580031+301544206+301940566+302524078+302877488
2508+302794866+302367081+301785336+301215483+300807857+300651540+300655830
2498+300574993+300258586+299824063+299475163+299245006+299049993+298849880
2488+298605142+298263495+297902795+297684328+297607891+297511037+297301388
2478+297024029+296734629+296434275+296132596+295921345+295905403+295999347
2468+295910981+295474175+294896167+294518548+294430440+294442940+294356654
2458+294140340+293880433+293630006+293337698+292948205+292544463+292301345
2448+292296669+292447020+292611621+292654129+292456354+292027170+291558699
2438+291252602+291156485+291220403+291353358+291378193+291135019+290694955
2428+290317079+290179006+290253050+290398781+290480096+290455979+290422124
2418+290499463+290669623+290813992+290903150+291012301+291142954+291195256
2408+291143028+291063553+290979255+290849044+290701785+290600937+290529416
2398+290463159+290461576+290565738+290728903+290905414+291063756+291104275
2388+290927285+290564560+290086111+289372387+288114419+286100642+283442582
2378+280484335+277582440+275012636+272915298+271202022+269654193+268199646
2368+266944624+265940101+265093827+264301089+263600013+263232372+263529964
2358+264734526+267006554+270644025+276150077+283539417+291393675+297384232
2348+299944941+299411227+297903458+297389166+297568457+296930139+295075808
2338+292698736+290299129+287835439+285248827+282826282+280983586+279805884
2328+278907217+277769776+276254294+274838996+274243573+274729606+275910917
2318+277191014+278122063+278477609+278358904+278203765+278436427+279128409
2308+280061705+280952216+281554617+281771741+281770820+281838531+282048511
2298+282228005+282282737+282358806+282608662+282967411+283250772+283359702
2288+283329934+283282179+283341219+283482476+283479033+283163971+282706233
2278+282431948+282418766+282459562+282377179+282199986+282052561+281990410
2268+281953112+281852062+281682472+281518092+281416913+281380830+281392888
2258+281463581+281627335+281868944+282071376+282121193+282066939+282067657
2248+282181889+282319980+282410427+282482335+282570830+282688376+282903235
2238+283289212+283794925+284295943+284736671+285117529+285429905+285691432
2228+285963398+286296226+286729276+287333352+288185462+289288218+290544254
2218+291830076+293073427+294247632+295375057+296566622+297933502+299439614
2208+300971758+302509516+304092121+305717675+307372537+309064992+310812436
2198+312654948+314614619+316615343+318525271+320274704+321890814+323435347
2188+324905578+326241567+327491656+328820465+330229245+331463686+332305265
2178+332776737+333032373+333207486+333353474+333414189+333265623+332812451
2168+332065535+331119831+330053396+328899185+327683006+326366127+324821336
2158+322993184+320979094+318895636+316760485+314474190+311943488+309324015
2148+306889854+304631321+302619072+301737986+303079553+306565973+311074589
2138+315818794+320736933+325758203+330592357+335158725+339672183+344327248
2128+349091151+353824052+358577572+363613644+369032083+374625047+380205749
2118+385803057+391498084+397357619+403507180+410061606+417163903+425332635
2108+435628565+449340702+467464086+490130751+516289691+544206275+572181070
2098+598255731+620186931+637228895+650773835+662107260+671194338+677680354
2088+681151310+680888862+676326508+666998263+652600220+633802343+611751627
2078+587088103+560638217+533895690+508230497+484549644+463328799+444432540
2068+427567640+412847502+400342965+389720300+380720373+373194322+366736878
2058+361059341+356284282+352412253+349191152+346570685+344619630+343284673
2048+342613125+342729990+343633830+345553699+349222780+355494507+365114914
2038+378863906+397380226+420784898+448511604+479186285+510772686+541285620
2028+569288545+593812229+614467640+631492962+645284959+656242680+664948090
2018+671938457+677278582+680386573+680451964+677361499+671803919+664243516
2008+654497445+642364378+627990930+611711310+593923203+575032247+555442718
1998+535665411+516320436+497860854+480296093+463379904+447158458+432067770
1988+418406334+406122639+395160721+385557620+377150594+369589307+362700267
1978+356567164+351250088+346617372+342446039+338606264+335173269+332312077
1968+329946620+327664007+325163829+322647745+320492637+318761909+317295175
1958+316028922+314946287+313925803+312873102+311841094+310904153+310065262
1948+309380386+309066869+309284030+309698394+309530425+308406902+306886356
1938+305757311+305239834+305062254+304939830+304813411+304763981+304817479
1928+304967260+305364209+306113464+306869640+307205432+307334061+307661679
1918+307832300+307181923+305979681+305206181+305349279+306036106+306578105
1908+306639538+306399255+306169521+306052307+306017568+306099160+306384804
1898+306895893+307493746+307953766+308300383+308861326+309669528+310157715
1888+309908154+309288338+308873899+308826145+309043084+309368493+309604321
1878+309685692+309780685+310085954+310799402+312251040+314498822+316631654
1868+317203826+315991477+314307767+313298881+313060991+313144350+313167694
1858+312990445+312707268+312551670+312687901+313149357+313935192+315100928
1848+316844764+319248476+321496258+321967030+320361266+318435064+317639951
1838+317870771+318281343+318549461+319323845+321297802+323882996+325417330
1828+325311475+324615958+323986532+323129562+322135809+321681938+321981610
1818+322552199+322950952+323345287+324226630+325630956+326864697+327270704
1808+327066356+327026886+327701968+329153680+330987208+332486895+333158958
1798+333373025+334185664+336371737+339419161+341290833+340427568+338146464
1788+336840447+337244944+338559651+339967805+341362889+342686801+343606878
1778+344266386+345607603+348513788+352616453+355828827+356270253+354654880
1768+352707617+351355465+351277408+352847383+355168141+356723352+357436800
1758+358204040+359056996+359886315+361642448+365092307+369133189+371513005
1748+371598058+370811708+370547566+371303945+372963281+374840329+376082392
1738+377147022+379797386+384473696+388228787+387993917+385457140+383266943
1728+382062768+381925174+382897498+384620753+387089671+391271571+397825666
1718+405066293+409087956+408403264+405705992+403723309+403615429+405773224
1708+410010390+415140682+419623065+423693660+429182425+436237630+441807103
1698+443989162+444192184+443145853+441443475+441127124+443410289+447705298
1688+453346127+460849607+469705314+475477182+475219668+472994051+472935803
1678+475962387+481177474+486687225+491136066+495299961+500190486+504589914
1668+506819434+508337825+511825534+517529103+523039517+526289153+528276843
1658+531459946+537574160+546993092+556542437+559165997+556152741+555142346
1648+557432065+559197404+557320539+554040528+552712014+554233351+558354499
1638+564487602+570553104+572647092+570074490+567121766+566789803+569018549
1628+572518519+576399605+580467992+584020429+586010218+587238216+589927571
1618+594683227+599098341+600555686+600350713+601063129+603165033+605591094
1608+607415417+608737046+610142218+611793712+613297044+614267380+614819486
1598+615448544+616512474+617904060+619274916+620498054+621670233+622728347
1588+623459946+623979835+624791701+626139729+627774580+629797507+633075088
1578+637874116+642091253+642955991+642052151+643129042+646746244+650249601
1568+651437024+651514860+652683873+656055491+662550269+673182581+686093566
1558+693847786+694812305+696231763+701626675+710215073+720139497+729891827
1548+738753277+746895499+754622693+761901576+768985611+774979794+775860954
1538+771277613+766898030+765520767+765551400+764587986+763093932+763328398
1528+765853540+769242094+772346404+775540994+778840814+780885759+781178619
1518+780708879+780029931+779446124+779796128+781923253+786378242+793283335
1508+800790424+803564170+799022066+793061830+790333372+790928372+793520231
1498+796331237+797499440+796810625+796209807+797321235+799720160+801400814
1488+800949336+799149976+797648559+797352826+798242896+799893653+802193387
1478+805344678+809187583+812974817+815552242+815655851+813436163+811232159
1468+811187828+813347649+815655851+816160718+816123898+818465165+823869061
1458+829142469+829162720+824272011+819766580+818161921+819092124+820882573
1448+821230368+819295219+816841801+815868225+816712786+819037852+822754761
1438+826913060+828968093+827866091+826147587+825708848+825585430+824308168
1428+822206595+820547517+819642867+819168561+819385426+820743249+822303872
1418+821986637+819484249+816560944+814413789+813092786+812211258+811424282
1408+810790033+810628764+810789591+810701372+810452694+810846661+812227974
1398+814010323+815356142+815724335+814989201+813807228+813303908+813874533
1388+814625721+814443833+813886389+814798477+817911918+822250484+826766151
1378+831500157+836736452+841753745+845220799+846864412+847823776+849146031
1368+851036335+853461033+856318727+858771924+859448147+858059618+855880651
1358+854057506+852605574+851232729+850253851+850107752+850347004+849982861
1348+848822831+847679224+847317143+847914057+849215767+850531395+850956805
1338+850304735+849475711+849429466+850328888+851850851+853722009+855722549
1328+857608066+859349913+861181821+863231405+865388133+867633227+870181859
1318+873114223+876049826+878365834+879815116+881010712+883006024+886067329
1308+889063095+890430564+889792559+888368315+887686274+888244307+889622749
1298+891375863+893110936+893993863+893234281+891085580+888650793+886727941
1288+885096330+882953667+880026459+876965522+874441853+872320104+870129355
1278+867824245+865656472+863840985+862620204+862163719+862360113+863058722
1268+864309106+866169807+868505624+870902855+872640947+873074163+872216642
1258+870659627+868998929+867650827+866933955+866886752+867107005+867164296
1248+867225416+867873068+869161375+870282597+870508447+870141579+870178104
1238+871278928+873361280+875955421+878575410+880794951+882351819+883364939
1228+884174743+884838006+885147141+885259072+885838607+887313442+889421642
1218+891819241+894575387+897671523+900567583+902794046+904594731+906453591
1208+908455309+910556293+912788500+914871442+916549077+918486288+921576238
1198+925182689+927457607+927833606+927864313+929064549+931223412+933359006
1188+935209471+937139097+939524693+942848814+947340254+951986925+955151471
1178+956489263+956939269+957101716+957135810+957813875+959966773+962740151
1168+964223454+964271834+964922947+967601183+971464707+974890154+977355281
1158+979420034+981799077+984709128+987604819+989685993+990831958+991772396
1148+993335008+995715081+998162314+999199882+998033299+995839899+994574788
1138+995034440+996867158+999565939+1002266267+1003533735+1003235572+1003461275
1128+1005741126+1008951255+1011381918+1013109185+1014998090+1017366381
1120+1020482620+1024306673+1027594343+1028931473+1028311289+1026974306
1111+1026324077+1027275856+1030092533+1034230434+1038555746+1041936715
1103+1043648003+1043471786+1041933696+1040279037+1039382192+1039047210
1094+1039119007+1040000977+1040987293+1040291555+1037983205+1036468901
1085+1037110956+1039061864+1042030384+1047000475+1053163512+1057436540
1077+1058386772+1057869387+1057786544+1057795233+1057157670+1056905973
1068+1058699589+1062339914+1065439879+1065610205+1063203842+1060900500
1060+1060223614+1060280021+1059869265+1058746055+1057214077+1056584394
1051+1058618513+1062384466+1063989640+1061682542+1058042070+1055924076
1043+1056012148+1058709825+1064158862+1069634187+1071205341+1068672614
1034+1065439069+1063734040+1063013560+1062566132+1062868860+1063993322
1025+1065324119+1067264423+1070373372+1073169356+1073741823+1072802710
1017+1072437315+1072872151+1072690853+1071394887+1069862099+1068806047
1008+1068079382+1066931429+1064710930+1061648889+1058837588+1057387938
1000+1057525201+1057810256+1056292932+1053632148+1052721827+1054390626
991+1055953532+1055230548+1053445474+1052648336+1052889061+1052456286
983+1049867153+1045621445+1041308284+1037051088+1031844617+1026352060
974+1022570422+1020948090+1020349481+1020128345+1019817442+1018278174
965+1015403028+1012503140+1009904359+1006472947+1001833935+996902578+992226820
955+987902613+984815388+983934007+984460597+983987027+981057609+976821548
945+973601405+972546016+972951471+973140501+971822517+969243987+967049630
935+966683793+968146551+970144514+970969266+969615347+966568991+963463724
925+961680270+961462595+962159069+962821522+963002599+963039345+963343398
915+964006661+965054907+966029588+965778480+964219109+963360409+964698864
905+966733868+966668403+963664021+959305351+955883807+954760229+955460974
895+956464300+956966073+956898031+955787340+953306676+950595228+949574965
885+950916366+953143419+953823987+951832431+948259412+944890960+942603966
875+941512273+941572436+942272077+942652862+942668105+943424153+945089269
865+945899441+944425343+941933265+941044668+942612950+944929031+945354515
855+942623112+938273058+935525380+936210882+939161287+942024283+943830122
845+944724979+944604727+943544773+942663319+943053456+944228213+944723653
835+944092350+943410014+943703906+944783743+946039944+947378178+948970024
825+950569087+951234485+950007519+947190621+944629470+944322691+947041797
815+952326914+958942313+964990768+968309366+967487559+963034116+957607318
805+954116185+953126188+952725078+951539128+950637350+951491042+953495706
795+954514349+953416103+951166517+949307952+948747415+950354357+954921718
785+961379015+965852045+965243422+961581226+958985097+958157104+957103704
776+955446099+954743071+955654201+957272925+958075071+957119610+955067596
766+953641658+953836138+955216935+956927413+958319698+958711309+957707025
756+955758474+953665296+952271759+952672942+955276804+958876333+961547942
746+962610842+963104368+964142746+965155129+964687450+963036915+961757738
736+961345067+961068112+960315673+958963742+957389937+956682565+957391115
726+958570438+959399830+960468989+962193090+963708793+964630160+965471334
716+965775535+964107546+960239752+955722759+952119695+949952290+948955149
706+948753748+949671211+952198930+954920172+954772453+950803258+945755478
696+942598296+941080677+938702886+934230666+929264036+926470850+927092139
686+929563966+930769725+928880305+924094531+917918902+913036515+911470295
676+911581195+909528960+903981542+895954933+886683390+880516524+883768773
666+893276108+899889224+899953878+895826728+891187937+887600190+885171663
656+883929158+884386748+887191717+890601553+889833355+882329580+871940202
646+865608239+867395595+875409023+883281212+885583008+881936939+875947469
636+871858169+871543953+873101189+873318644+871442332+868825068+866427836
626+864653882+864372067+865417809+865888949+863741794+859160736+854649634
616+851627947+849804287+847935486+845378974+844223511+847374654+855272175
606+864065289+867911802+864417649+856982653+851053198
##END=
