##TITLE=<SNM>
##JCAMP-DX=4.24
##DATA TYPE=INFRARED SPECTRUM
##DATE=3/5/2025
##SAMPLING PROCEDURE=Instrument type and / or accessory
##ORIGIN=Admin
##XUNITS=1/CM
##YUNITS=ABSORBANCE
##RESOLUTION=4
##FIRSTX=4497.3318
##LASTX=599.83466
##DELTAX=-1.4281778
##MAXY=1.706216
##MINY=0.17815626
##XFACTOR=1
##YFACTOR=1.5890375e-09
##NPOINTS=2730
##FIRSTY=0.19591391
##XYDATA=(X++(Y..Y))
4497+123290933+122924789+123733437+125257681+126476359+126826063+126480775
4487+125659899+124456797+123363252+123085960+123731618+124686658+125248866
4477+125135108+124583459+124146656+124219153+124643671+124887476+124682410
4467+124330501+124275005+124617330+125211900+125893586+126399126+126440780
4457+126054475+125557497+125105034+124575957+123923997+123427085+123536323
4447+124459395+125739945+126319126+125403707+123401418+121602753+120794649
4437+120630796+120477728+120241012+120091648+120002758+119931883+120047770
4427+120430568+120818074+120899498+120581105+119782688+118407547+116768054
4417+115574086+115238522+115581372+116299649+117235109+118100284+118409666
4407+117906386+116967945+116371565+116461748+116812410+116985884+117153937
4397+117500079+117572304+116872135+115687966+114814360+114684932+115113736
4387+115722447+116271207+116502212+116127141+115269965+114430024+113748619
4377+112966332+112233857+112115832+112699092+113500951+114179214+114608290
4367+114550666+114008235+113533669+113549367+113753486+113705202+113542652
4357+113604985+113840566+114103379+114530842+115187715+115789327+116023164
4347+115759666+114959852+113830091+112960246+112872716+113461050+114088515
4337+114203014+113815237+113447180+113647221+114538653+115729208+116563494
4327+116567545+115841091+114992448+114554379+114551950+114687961+114820878
4317+115128824+115771510+116462949+116568342+115811645+114769658+114385209
4307+115011653+116147922+117022981+117228254+116921338+116623716+116708948
4297+116993611+117007958+116687455+116534855+117012853+117956574+118739031
4287+118978429+118889071+118771833+118430165+117518965+116324237+115686147
4277+116085852+117173696+118311896+119242226+119952448+120299171+120302960
4267+120453431+121093828+121807988+121947835+121462419+120805574+120334262
4257+120104157+120081539+120304432+120757326+121262622+121740911+122325972
4247+122872360+122799769+121961629+121132876+121081187+121675128+122314241
4237+122710214+122868525+122763975+122456488+122219303+122191583+122157431
4227+121990568+121967762+122224630+122367008+122177930+122186107+122899995
4217+123925638+124477043+124375072+124010120+123672624+123384380+123170648
4207+123168754+123490223+124063056+124657841+125087114+125296944+125254952
4197+124961690+124598313+124421510+124497692+124706294+124921854+125062967
4187+125107481+125111729+125076995+124899752+124649223+124662595+125087470
4177+125614315+125948285+126188189+126497805+126887036+127519143+128588129
4167+129703505+130135515+129823583+129416104+129298191+129284988+129144579
4157+128825135+128342120+127871033+127729058+127985701+128365929+128691459
4147+129069803+129485216+129626609+129407683+129219608+129344732+129624706
4137+129969928+130520695+131057284+131039129+130493669+130141676+130422832
4127+130950156+131069156+130614836+130016215+129841503+130316998+131148874
4117+131724238+131695515+131464398+131786467+132784634+133685275+133628232
4107+132504163+131003720+130063243+130192849+131145263+132243900+133054527
4097+133643798+134196197+134556311+134351451+133578250+132815570+132701287
4087+133357110+134368602+135138662+135295969+134961606+134639105+134751184
4077+135298726+135948529+136268357+135915604+134920795+133850225+133431905
4067+133936779+135008427+135993025+136352107+135976417+135286348+134881484
4057+134977247+135273125+135384370+135295969+135363543+135914263+136856193
4047+137699754+137978752+137622596+136938640+136312694+135976896+135979924
4037+136198926+136360256+136294642+136251271+136654465+137462625+138176898
4027+138598585+139086457+139863494+140534602+140585691+140068260+139534626
4017+139423446+139626412+139626009+139084722+138287496+137822645+137862753
4007+138079148+138278982+138714434+139632442+140826964+141774849+142092482
3997+141836430+141404588+141146286+141146689+141383020+141801752+142183050
3987+142267719+142130649+142135112+142412592+142671382+142669816+142589385
3977+142706829+142946170+143013566+142810103+142507576+142330483+142366924
3967+142522665+142646232+142723530+142911652+143344563+143920387+144364326
3957+144515510+144406206+144103510+143751339+143670965+144012643+144417787
3947+144436158+144075640+143620983+143297666+143282278+143647606+144261427
3937+144958474+145652051+146192296+146373666+146192184+145920321+145854370
3927+146058114+146283286+146134569+145504702+144782693+144463906+144721824
3917+145407373+146153924+146460314+146096280+145446337+145080681+145030164
3907+144937159+144753726+144806652+145313486+146163873+147072166+147748807
3897+148059830+148075256+147936788+147808279+147900066+148379836+149250301
3887+150199423+150532127+149914582+149196783+149349064+150099422+150525084
3878+150449736+150285968+150204928+150260227+150637398+151209415+151427938
3868+151087658+150575873+150310875+150524944+151236581+152143290+152857338
3858+153350780+153942959+154721805+155119560+154829055+154441034+154385519
3848+154782149+155565150+156366483+156785984+156962544+157409212+158207197
3838+158826279+158921367+158787888+158797772+158998225+159266139+159541612
3828+159815284+160113769+160654625+161633652+162633385+162920186+162825173
3818+163322892+164410267+165190885+165254877+165075917+165246550+165970097
3808+166843647+167326849+167739008+168791592+170223570+171142226+171685969
3798+172475796+173282991+173631214+173724370+174047236+174836820+176203850
3788+178159973+180445151+182731511+185016952+187488142+190040241+192388999
3778+194756249+197803347+201803516+206439984+211215858+215703899+219764253
3768+223900620+228901328+234914860+241353510+247755288+254242345+261169224
3758+268778203+277266000+286769078+297085259+307678619+317984597+327707727
3748+337281192+347643904+358504447+367644523+374518851+381517449+390377739
3738+400925787+412528388+425242933+438627668+450635902+459117304+463675282
3728+465679249+467147874+469620977+473678724+479040165+484712638+489562969
3718+493397494+497433560+503559452+512645627+522699444+529992157+534406398
3708+539882357+548544182+558339406+565822294+570250301+574056056+578569135
3698+582316488+584149972+585266604+587786745+592380583+597335716+600272704
3688+601389862+602512158+603624064+603783181+603466410+604430602+607687250
3678+611827968+613355222+610819664+607336307+605413812+605078286+606481831
3668+610076443+614738924+618952637+622394471+625239710+627399193+629175962
3658+631557728+634931519+638172600+640086356+640850207+641318406+642280685
3648+644817030+649395714+654672682+658573112+660150104+660343130+661100305
3638+663539424+666734143+668591708+668333565+667517950+668402883+671834589
3628+676261434+679597564+681202838+681727902+682434289+684099728+686208385
3618+687973901+689656296+691574252+693211935+694326204+695564106+697262029
3608+699198816+701629383+705004899+708868119+712041007+714121231+715978497
3598+717910257+718436821+715992450+711307613+707191051+706069505+708469014
3588+712599755+715247129+714801961+712513782+710347135+709413438+709990190
3578+711556229+712900659+713151450+712964426+714105027+717455037+721497254
3568+723062918+720898746+717698851+716517064+717491496+718713494+718925725
3558+719013498+720287035+722069355+722387064+720595291+717867871+715985699
3548+717032825+722528626+730666851+735845318+734202609+728316180+723739071
3538+722991649+724093090+723741697+721083670+718012959+716464550+716024559
3528+715099940+713867514+713844708+714748772+714605259+713627301+714771203
3518+719194671+723983486+726181716+726564767+727228168+728263516+728589327
3508+728605681+730105027+733373640+736130318+736318843+734946206+734449049
3498+735414854+736652081+737456143+738210543+739123834+739612663+738863515
3488+736504742+733245657+730622364+729272382+728494727+727866436+727604092
3478+727192608+725689286+723613188+722725028+723578304+724762867+724451009
3468+722445204+721034982+722618275+726311275+728842744+729053850+728742818
3458+728885655+728608982+727893818+728026003+729294513+730646295+731344279
3448+731428827+731323199+731662363+732150442+730850049+726715782+722060128
3438+720285834+722233649+726000693+729059176+729859712+728882279+728122554
3428+728220905+727766510+726387946+725936551+727158549+728020527+727153373
3418+726149383+726701829+727927802+727780838+725817645+723856027+723949802
3408+726115174+728232233+728057061+725617492+723539443+724716879+729114166
3398+733288118+734197358+732704989+731339403+730454770+729193837+728357816
3388+729336524+731050877+730523413+726687125+721845121+718876287+718577483
3378+720148398+722995775+726698678+729863388+730611711+728435386+724898952
3368+721698832+718997744+716824270+716809116+720303314+725589360+729453180
3358+730782531+730804962+731075934+732308959+733825560+733860369+731669715
3348+729058201+728523760+730317333+732296356+732567177+731415473+730226259
3338+729723551+730019505+731182612+732898390+734243120+734657679+734585660
3328+734571182+734719421+735176141+736240823+737822315+739078522+738955189
3318+737055013+734140868+731973246+731990500+733711455+734951832+734352949
3308+733189767+733379717+734713944+735460466+734847104+733780998+733309648
3298+733151432+732198230+730099251+727608293+725722145+724960169+725431893
3288+726917886+728390074+728591202+727589013+726668820+726533334+726990505
3278+728110701+730052363+732196279+734077401+736236396+738410320+738642282
3268+736211265+733369514+732876184+735175166+738568912+741399935+742838140
3258+742393572+740253332+737711886+736235421+736054698+736198586+735643815
3248+733865545+730993937+728174392+726953295+727572583+728416781+727922776
3238+726522081+725959282+727335971+730064967+732138364+731946989+730391828
3228+729895572+731192965+732618791+732524716+731021844+729260754+728186921
3218+728106274+728522634+728180244+726358688+724192116+723435016+724036900
3208+724395419+723739371+722535378+720955536+719131880+718564130+720896045
3198+725301884+728754896+729075380+726554715+722744684+719029853+716259521
3188+714758675+714349292+714380050+714068192+713177407+712299150+712165690
3178+712945671+714272021+715417424+715659963+714973756+713967291+713100137
3168+712424508+711697641+710341283+708430454+707565025+708888374+710999057
3158+711688339+710808056+709589585+708364436+706612423+704232345+702004031
3148+701171987+702353099+704718473+706781218+708071634+709155145+709809318
3138+708794825+706193363+704068277+703948695+704974516+705137909+703799556
3128+701940190+700284652+698545468+696520158+694886452+694410151+694903256
3118+695298986+694617881+692923033+691504034+691750174+693296557+693941352
3108+692085812+688550054+685360286+683641132+683127697+683075483+683216220
3098+683634456+684068295+683903176+682821091+681150400+679564706+678539935
3088+678165511+678395522+679069950+679602441+679279330+678140605+677001054
3078+676488443+676541858+676718379+676577342+675953852+675122933+674474162
3068+673972804+673453442+673127181+672998522+672421544+671002845+669399747
3058+668457498+668140389+668043838+668130411+668269948+667921556+666752748
3048+664909736+662762369+660939912+660151979+660500897+661345320+661935725
3038+661815619+660893100+659663450+659050914+659373574+659697884+658953613
3028+657313230+655614931+654069673+652528991+651278261+650506007+649699919
3018+648333508+646532808+644812229+643775080+643781831+644238852+643860302
3008+642281810+640630099+640085005+640548778+640880065+640104060+638371028
2998+636760427+636111581+636177223+635924857+634590704+632400426+630305648
2988+629230989+629342843+629637146+628762378+626787031+625413756+625838818
2978+627188087+627746910+627164981+626606383+626952862+627715364+627796085
2968+626698770+624765360+622600363+620551497+618567823+616541801+614818596
2958+613931636+613675819+613032674+611434527+609630000+608726574+608679199
2948+608414604+607369503+605959806+604492344+602910251+601664472+601482174
2938+602241749+603053276+603212656+602481400+601051560+599586161+598696276
2928+598336368+598154257+598148443+598418102+598395409+596999778+593914213
2918+590221100+587333925+585716835+585012925+584777025+584657556+584429833
2908+584063174+583488972+582588172+581621917+581104280+581022658+580690133
2898+579558234+577832891+576069475+574455049+572888860+571566936+570844346
2888+570608371+570336611+569635851+568436697+567013496+565956055+565628706
2878+565623342+565190402+564116681+562835906+561853521+561268854+560697654
2868+559656304+558157820+556767066+555906776+555255116+554130457+552468655
2858+551023174+550544247+551143205+552348549+553300663+553170728+551941041
2848+550325602+548640395+546638078+544535911+542989490+542012732+541043513
2838+539942748+538989208+538197224+537410679+536671171+535998581+535253297
2828+534462926+533758302+532884471+531352154+529238433+527349997+526349721
2818+526074961+525912618+525489769+524703486+523480888+521994971+520836290
2808+520463479+520535798+520185193+519032026+517496220+515988172+514460806
2798+513010861+512118387+511872172+511691075+511174863+510513564+509780395
2788+508590056+506822589+505066188+503945542+503406900+502978799+502427103
2778+501728669+500632029+498864938+496727211+494930599+493806464+493046326
2768+492236787+491321433+490449853+489648791+488828037+487956119+487065859
2758+486171323+485216133+484068480+482703270+481357864+480217788+479072311
2748+477691009+476347441+475516709+475225407+475012801+474396289+473260376
2738+471903530+470683746+469622028+468505545+467269407+466036081+464877512
2728+463774796+462737872+461802825+460974344+460218445+459410069+458332371
2718+456911871+455425916+454228225+453262945+452156853+450803758+449535661
2708+448700053+448288607+447965046+447337918+446299644+445129710+444134910
2698+443292062+442412342+441448413+440423867+439286867+438067307+437016918
2688+436381837+436066492+435641392+434761147+433535361+432361001+431430155
2678+430610488+429796523+429093213+428564586+428045298+427328109+426409867
2668+425471219+424682385+424063509+423528656+423045341+422622866+422103054
2658+421197340+419889520+418553904+417469606+416491197+415416839+414401708
2648+413772629+413614413+413674616+413542544+412921004+411869489+410741491
2638+409814772+409093419+408484258+407984363+407618754+407291555+406824069
2628+406188877+405587105+405121420+404541142+403615847+402588676+401876513
2618+401491249+401123689+400606052+399981663+399288367+398486855+397530465
2608+396495754+395653770+395231558+395087445+394863098+394443475+394027640
2598+393816835+393808545+393753518+393246196+392085377+390623429+389542881
2588+389187812+389266883+389277123+389045462+388742119+388537428+388417509
2578+388232397+387809061+387097648+386264890+385584273+385213938+385065924
2568+384862582+384403161+383802628+383329102+383096804+383142753+383554274
2558+384159609+384409500+383996516+383276063+382714165+382282276+381717302
2548+381064142+380635591+380568411+380649807+380581389+380289637+379921928
2538+379606432+379334223+379101736+379034031+379212803+379460706+379507293
2528+379331934+379135383+379044308+379038232+379061263+379066889+379059950
2518+379103949+379139959+378901358+378235145+377397811+376818508+376660066
2508+376757930+376890227+376935202+376832199+376604139+376385269+376186879
2498+375724344+374806965+373788908+373237513+373226372+373281062+372960577
2488+372289825+371668436+371456317+371648030+371947547+372084758+371963039
2478+371633476+371274582+371059725+370948396+370752144+370406828+370004571
2468+369627259+369325830+369162061+369127327+369136555+369183892+369344735
2458+369563380+369595226+369252273+368640749+368106720+367954693+368188642
2448+368515128+368655678+368633772+368634597+368628821+368364001+367760504
2438+367062069+366539106+366260445+366127960+365931971+365474237+364823028
2428+364298489+364093273+364101638+364151863+364176620+364151488+364066528
2418+363967540+363921552+363970015+364138135+364405843+364642643+364670100
2408+364456969+364200064+364123693+364219269+364267469+364123431+363903923
2398+363843457+364000061+364172119+364126357+363863862+363604856+363478786
2388+363265917+362519207+360910932+358321099+354620896+349602071+343193504
2378+335640734+327459561+319203744+311168353+303332196+295660802+288343144
2368+281712706+276157564+272009812+269305854+267953360+268234196+270673109
2358+275438424+282334001+291401739+303113420+317111629+330659456+339704857
2348+341795134+337839790+331628862+326786634+323742705+320949867+317747046
2338+314469393+311145416+307348757+303154230+299602811+297844853+298020456
2328+299287465+300691780+301747778+302592801+303882785+306263408+309780974
2318+313851624+317691719+320757254+323007586+324916502+327149392+330053146
2308+333352067+336359762+338569958+340035695+341169544+342268209+343279476
2298+344002217+344473529+345049119+345999095+347147798+348089934+348660422
2288+349011590+349322772+349631966+349898512+350058717+350018619+349710812
2278+349193963+348649019+348258879+348100324+348122493+348204227+348251152
2268+348245263+348206365+348163941+348167955+348233035+348287199+348285961
2258+348305954+348392152+348423547+348291175+348081945+347940757+347906473
2248+347996272+348278271+348745757+349253529+349649971+349866403+349888534
2238+349784107+349744384+349927882+350236851+350400732+350333702+350268209
2228+350456997+350872494+351308134+351664103+351985488+352283579+352489434
2218+352593861+352701064+352887451+353109322+353323879+353623433+354127566
2208+354765009+355291123+355575036+355797882+356259442+357000787+357740183
2198+358226686+358531567+358896575+359396282+359884361+360246257+360565129
2188+360989853+361555915+362218228+362926115+363552417+363924666+364079432
2178+364302728+364799697+365505033+366267009+367018670+367752927+368500874
2168+369335732+370291260+371327058+372464508+373897199+375826334+378197935
2158+380770064+383486044+386574159+390162582+393974489+397521463+400490072
2148+402906310+405071269+407386305+410098497+413100452+416023149+418600417
2138+420915303+423282666+425985930+429139425+432680172+436425499+440175889
2128+443816638+447372540+450926228+454382016+457369605+459514234+460722428
2118+461109455+460777267+459724402+457904759+455408137+452575539+449816273
2108+447337806+445112268+443001135+440857969+438584869+436136298+433522270
2098+430808728+427978643+424825148+421167782+417082128+412768414+408380393
2088+404068554+399972848+396164767+392719482+389728142+387189885+385039892
2078+383248981+381783244+380563085+379512095+378565532+377678685+376862657
2068+376132077+375468827+374886185+374383815+373863065+373270034+372725202
2058+372354004+372138210+371988845+371807973+371552005+371370945+371495327
2048+371868326+372140910+372151188+372179921+372628877+373628178+375069946
2038+376919147+379318431+382341729+385757194+389141900+392183128+394775550
2028+396875092+398389217+399189978+399144291+398189214+396446617+394197710
2018+391727083+389244940+386865686+384565542+382267197+380008313+377934615
2008+376162648+374706100+373425137+372056101+370490287+368959658+367740323
1998+366817317+366037861+365380688+364875017+364425123+363859436+363080618
1988+362160800+361351036+360907482+360817345+360778748+360517454+360051318
1978+359583232+359208208+358853927+358482016+358177511+358004815+357918167
1968+357845173+357753086+357619438+357409195+357093699+356679590+356225795
1958+355819375+355513257+355292736+355105299+354924539+354761784+354588300
1948+354337059+354071714+354007722+354198760+354353563+354183156+353789677
1938+353481721+353374855+353349723+353308125+353321891+353489523+353750141
1928+353948456+354018637+353984128+353866760+353748454+353789977+354000670
1918+354127116+353978314+353730449+353664131+353780449+353865935+353811620
1908+353721972+353731912+353850180+354006709+354161325+354302775+354378282
1898+354322430+354168152+354028765+353934690+353804868+353632098+353552314
1888+353620845+353664544+353534835+353355575+353338508+353480333+353639412
1878+353786826+353960947+354094970+354111287+354090469+354153786+354251649
1868+354242909+354149472+354111324+354145308+354149022+354084317+354033416
1858+354086380+354248911+354457691+354642652+354770561+354872925+355058900
1848+355428260+355901560+356238248+356340500+356389826+356509933+356623100
1838+356677302+356712486+356785255+357002888+357480614+358131824+358673467
1828+358964243+359129850+359314661+359548985+359811367+360094642+360425329
1818+360856018+361436221+362155661+362890818+363464682+363825340+364120580
1808+364541216+365176709+366037561+367058543+368052068+368787712+369226203
1798+369616531+370273180+371331522+372705810+374127248+375314811+376280729
1788+377283068+378527309+380066678+381822517+383602625+385187568+386484736
1778+387597355+388755248+390197316+392003793+393935703+395656133+397164969
1768+398635207+400132490+401756631+403631489+405614675+407358323+408804367
1758+410222767+411793644+413542581+415503186+417648340+419741018+421510660
1748+423006780+424476268+426033380+427686066+429486654+431473554+433553666
1738+435660859+437953840+440577958+443259541+445569251+447647337+449802169
1728+451976280+454027547+456039391+458193697+460598832+463306635+466303902
1718+469424688+472372066+474958224+477248317+479465790+481880452+484661362
1708+487772208+490998848+494127324+497255500+500787958+504914948+509133649
1698+512889104+516444893+520167526+523976244+527817633+531876955+536273004
1688+541038300+546352965+552286020+558115434+563000349+567254197+571424511
1678+575690438+580266646+585386636+590873322+596363722+601793393+607152996
1668+612278312+617228494+622380630+628028834+634009301+639676597+644540657
1658+648795030+653157432+658469585+665051223+671476670+676095265+679661256
1648+683371361+687633011+692172985+696579049+700666728+704125592+706601095
1638+708254907+709709241+711365454+713045597+714418910+715285239+715528003
1628+715242777+714698134+714011327+713130895+712104324+711034391+709747201
1618+707771930+704949384+702025862+699625078+697299164+694353811+690760212
1608+687249060+684573178+682814789+681563384+680496002+679539499+678716532
1598+678119824+677864307+677833024+677606014+676838111+675628716+674310843
1588+672921026+671204498+669231477+667625753+667018093+667422974+668168596
1578+668423589+668007829+667841060+668756977+670419716+672256351+674195013
1568+676554836+679601691+683372411+687808108+692907054+698796559+705305353
1558+711495313+717428780+724721681+734185880+745104713+756025497+765721733
1548+773604139+780065821+786145876+792262241+797576495+800890270+802402369
1538+803922946+806128153+808157064+809556558+811193491+813937415+817243538
1528+820049504+821984340+823682789+826160243+829815583+833955852+837496712
1518+840293750+843052904+846360677+850153079+853738201+856230359+856992935
1508+856087221+855351127+857523700+861969149+866102891+868747114+870010598
1498+870573696+871266654+872599907+874409759+876101981+877123451+877374167
1488+877476944+878135843+879326858+880634903+881874081+883192029+884864070
1478+886893356+888702534+889505396+889217695+888859100+889599246+891406098
1468+893289395+894521671+895463694+896883294+898258557+898395093+897282099
1458+896356130+897242489+899456924+901045393+901358076+901038566+900853643
1448+900986203+901377131+902212101+903245799+903388487+901786439+898941838
1438+896581189+896668888+899392107+902581199+904621363+905793172+906818843
1428+907491546+907286291+906757027+907124399+908559302+909857520+909960898
1418+909053008+907889000+906803614+905864816+905056928+904238762+903412793
1408+902726362+902078416+901192807+900079963+899011756+898193740+897761176
1398+897737995+897794485+897417435+896373084+894850782+893089017+891006992
1388+888415808+885629347+883679957+883544172+885290558+888114454+891125674
1378+894144096+897530265+901278705+904683854+907066183+908539272+909748442
1368+911208627+913075495+915166147+916980351+918044357+918537537+919178807
1358+920356093+921712676+922599260+922957105+923571292+925122101+927274945
1348+929239189+930873345+932445235+933908347+935350977+937324224+939845414
1338+942064125+943591754+944711049+945175722+944580590+943711110+943826116
1328+944867916+945789834+946288566+946869894+947564503+947817094+947472829
1318+947192179+947736673+948988229+949988318+950102948+949731750+949628523
1308+950106624+951050823+952053838+952584453+952481826+952074619+951649031
1298+951150000+950410679+949411716+948379893+947570204+946780321+945509335
1288+943664823+941449413+938757102+935477686+932020023+928794246+925686700
1278+922552748+919642654+917202635+915234865+913752024+912703322+911631889
1268+909978527+907853741+905950864+904519111+902946545+900562641+897527414
1258+894521971+891760941+888910264+885915248+883337417+881691032+880945485
1248+880832806+881125158+881483753+881524863+881263344+881267846+882179036
1238+883936000+885570232+886119452+885674884+885224615+885615844+886791029
1228+887858636+888092923+888026755+889019417+891557788+894673286+897210756
1218+898977322+900257310+900990779+901335420+902322606+904730366+907682771
1208+909617832+910507642+911864450+914682720+918529735+922468651+925861347
1198+928314569+929684206+930374838+931087302+932026925+932888977+933819748
1188+935546329+938228362+941067187+943444040+945747298+948662268+951978743
1178+954415912+955156733+955308948+956706717+959418533+961688107+962608450
1168+963304784+964971950+967316844+969184312+970006904+970212834+970565502
1158+971553738+973085567+974511019+975198125+975364819+976237600+979166448
1148+984268995+989742891+993086824+993606636+992967017+992840984+993277224
1138+993704087+994252932+995614917+998245561+1001708026+1004573857+1005869450
1128+1006744631+1009110831+1013025289+1016949201+1019647213+1020568831
1120+1019427180+1016759400+1014136633+1012888678+1013113738+1014140309
1111+1015428249+1016976883+1019500399+1023980282+1030283972+1036422618
1103+1039655822+1038614097+1034663328+1031196063+1031141523+1034640747
1094+1039100675+1041945276+1043054669+1044059560+1046145035+1048720691
1085+1049711552+1047954588+1045335422+1045145696+1048275523+1052012260
1077+1053034105+1051086815+1048870805+1048902839+1051378868+1054526849
1068+1056580741+1056862141+1055488003+1053709133+1053467419+1055363995
1060+1057812792+1058802978+1058487970+1059562929+1063836432+1068887291
1051+1070679364+1069207100+1067391846+1066060470+1064214682+1062229133
1043+1061654106+1062906862+1064834346+1065982074+1065784322+1064975758
1034+1064977709+1066391307+1068469731+1069486249+1068077752+1065116645
1025+1062975055+1063169056+1065630456+1069130580+1072110442+1073692085
1017+1073741823+1072200316+1069113401+1065519502+1062889907+1061529573
1008+1060460916+1058648287+1056367685+1054947560+1055024380+1055694907
1000+1055338788+1053222404+1050211259+1048027432+1047986022+1049835860
991+1051835738+1052253298+1050177725+1045670610+1040177359+1035811657
983+1033529479+1032650172+1031983471+1030631464+1028290095+1025519989
974+1023252815+1021494726+1019051631+1015024792+1010198693+1006239222
965+1003617805+1001227674+997962512+993646322+988735000+984363145+981963637
955+981243372+979495560+974721749+968527213+964189118+962742136+962397045
945+961353444+959794757+958810798+958618297+958561732+958275906+958207038
935+958855734+959979606+960872942+960832281+959345164+956782937+954459799
925+953213945+952562923+951736204+950746768+949850506+949014561+948580121
915+949247047+950784953+951680015+950887430+949331144+948694451+949204286
905+949680587+949553353+949422894+949403163+948556340+946651437+944986372
895+944437752+944050050+942595641+940430044+938727094+937641557+936350466
885+934619459+933280731+932915834+932809231+932100669+931543647+932639837
875+935098911+936356093+934343386+930262534+927211403+926557680+927150037
865+927692355+928255754+929104528+929750148+929869955+929885484+930073784
855+930137401+929883759+929297479+928464909+928197613+929717515+933022213
845+936235236+937563312+937323848+937007865+937069306+936606959+935055624
835+933315315+932415452+931906143+930771918+929396880+929189075+930180837
825+930578067+929424487+928232573+928937609+931463376+934296349+936879431
815+940208585+944787119+949220415+951689467+951792994+949813297+945666877
805+940305736+936704935+937601422+942547778+947832399+949764309+947973136
795+944906701+942692641+941484147+940532446+939556963+938769180+938598960
785+939459813+941065612+942500065+943523036+944805424+946465988+947585808
776+947483106+946815055+947086326+948850567+950442188+949391310+945515337
766+941112049+937854914+935650607+934555542+935308216+937410121+939046228
756+939892227+941449038+943653720+944247802+942406291+940077151+939000991
746+939061382+939663566+940566355+941589550+942896470+944810000+946490069
736+946472214+945031084+943967303+943835043+943591154+943108401+943458368
726+944544130+945234012+945681581+946831409+948072162+947494959+944723878
716+941780175+940313838+939562140+937740208+934958174+933312464+933508866
706+933741052+932326254+929496957+926615296+924897567+924375204+923485469
696+920975831+918058011+916691375+916130227+913628616+908557877+903242799
686+899994141+899099379+899524967+899933825+898704100+895282071+891575267
676+889931208+890259045+889536754+883531943+871080380+859733184+860449623
666+869803693+877162161+880001061+880391389+878907347+874683807+867524816
656+858953128+852379967+851657226+857412896+864974818+868256109+865947000
646+861270790+857275985+855050822+853679685+851248743+847669323+845469817
636+846895119+850274011+850992025+847660096+843920508+843495371+845899981
626+847141859+844535145+839558631+834692621+830872387+829467491+832339475
616+837903544+840979056+839756683+838422831+839964713+842086274+841513497
606+838556742+835744549+834170933+834257806+837335644
##END=
