##TITLE=<SNM>
##JCAMP-DX=4.24
##DATA TYPE=INFRARED SPECTRUM
##DATE=2/5/2025
##SAMPLING PROCEDURE=Instrument type and / or accessory
##ORIGIN=Admin
##XUNITS=1/CM
##YUNITS=ABSORBANCE
##RESOLUTION=4
##FIRSTX=4497.3318
##LASTX=599.83466
##DELTAX=-1.4281778
##MAXY=1.8585719
##MINY=0.39764139
##XFACTOR=1
##YFACTOR=1.73093e-09
##NPOINTS=2730
##FIRSTY=0.42427701
##XYDATA=(X++(Y..Y))
4497+245115064+245181868+245607072+245880882+245318024+243900299+242344679
4487+241439244+241700778+243253265+245288961+246250405+245461567+243947028
4477+243043797+243111410+243830017+244710780+245136689+244783730+244051727
4467+243596995+243618845+243844497+244034751+244193255+244162023+243483825
4457+242244938+241433321+241545786+241645458+240896703+240103096+240487287
4447+241823109+242891112+243095518+242722879+242159849+241608596+241218825
4437+240988059+240733154+240364595+239983968+239771469+240101615+241383304
4427+243095621+243618982+242139584+240031798+239152895+239546315+239848758
4417+239399571+238867549+239035420+239953200+241115796+241837520+241641068
4407+240773684+240077545+239956971+239960483+239657007+239257096+239160385
4397+239516598+240260584+241017191+241109942+240256314+239162468+238922645
4387+239724500+240483878+240072776+238643945+237233796+236362452+235763729
4377+235394551+235726109+236642925+236977702+235890158+234096591+233050713
4367+233451571+234954816+236635470+237418833+236803306+235472443+234590183
4357+234480835+234627511+234704404+234840371+235094622+235351818+235531620
4347+235529365+235221205+234704404+234258195+233950621+233591929+233189366
4337+233060510+233347388+233714466+233743994+233466499+233308632+233708870
4327+234722982+235786319+236087953+235384359+234275154+233528671+233321889
4317+233309802+233159786+232750457+232135051+231620626+231624517+232177372
4307+232796410+233113867+233342877+233774262+234136467+233915721+233133908
4297+232365404+232163133+232759393+233995456+235301818+236056531+236073714
4287+235549612+234686360+233625744+232616349+232022466+232062600+232491488
4277+232702747+232343039+231647003+231101259+231102723+231815631+232944257
4267+233781252+233875381+233529326+233396957+233856390+234833742+235767724
4257+235777486+234670331+233711522+234298725+236024540+237264615+237445864
4247+237303389+237223052+236823072+235871890+234577064+233345270+232737802
4237+233105775+234051103+234713530+234651185+234124622+233618857+233391069
4227+233471337+233807251+234169094+234129270+233546354+232884977+232657413
4217+232834478+233159011+233609525+234184263+234595641+234486293+233703619
4207+232411513+231271076+231154358+232155953+233321889+233854530+233994216
4197+234255681+234590769+234758037+234738461+234520005+234119646+233756304
4187+233485593+233066777+232619552+232760012+233659146+234572415+234734139
4177+234289927+233931252+233985538+234257059+234474654+234525411+234388428
4167+234173209+234140806+234323759+234211226+233333700+232162806+231784502
4157+232582982+233833370+234666973+234817541+234398845+233692806+233213092
4147+233331944+233803377+234079443+234006595+233821025+233639845+233390208
4137+233145530+233145461+233419048+233607304+233338487+232738646+232368624
4127+232545207+232871840+232661511+231798862+230959972+230912469+231778235
4117+233003072+233861727+233945404+233373576+232649373+232241472+232239355
4107+232369226+232308965+232008037+231709554+231595626+231538636+231383627
4097+231274967+231439274+231843834+232288838+232568864+232422377+231696676
4087+230724488+230233238+230710559+231872243+232766176+232650475+231886327
4077+231513051+231848586+232135137+231697864+230784285+230038336+229727026
4067+229740748+229936701+230240710+230613057+231041687+231502376+231891716
4057+232051804+231949635+231840649+232055695+232519621+232754589+232513630
4047+232089889+231836275+231726307+231588136+231417614+231240515+231048832
4037+231004617+231273004+231598467+231556990+231269561+231309729+231874171
4027+232545620+232861458+232747495+232419570+232137737+232076907+232232106
4017+232339216+232057400+231422177+230941498+231028085+231544783+232122413
4007+232612803+233015056+233335990+233670733+234093785+234437791+234448879
3997+234168027+233967253+234123950+234486448+234729439+234762496+234647914
3987+234404837+234161037+234086450+233970835+233445166+232795050+232842536
3977+233768563+234699067+234757658+234061623+233386765+233244755+233573695
3967+234070352+234577563+235186856+236032478+237043491+237950716+238459356
3957+238380414+237768434+236997279+236669526+237362721+239022576+240508172
3947+240756363+240509154+241203450+242336346+241944217+239732575+237506848
3937+236825362+238155364+241267138+244943492+247054739+246460252+244477637
3927+243299546+243614041+244311970+244408939+244601741+245942607+247767974
3917+248057969+245844002+242355354+239378841+237609207+237036001+238272236
3907+242579319+250054289+258132095+263150366+263951548+261835997+257807648
3897+252798056+248954485+248300547+250529372+252565619+252003209+250973360
3887+252543787+255804958+257645735+258113414+258989769+258792181+255835726
3878+253050499+253804644+257390967+261375997+264905020+267074841+266200604
3868+263892785+263721781+265391691+264867555+260526863+255658265+254121601
3858+257772594+266996519+279483990+286333223+280052616+267850800+258307766
3848+253937959+254482721+258340169+263476758+268953634+274684262+279128948
3838+279356168+275318349+270590418+267449598+265245876+263001331+261252306
3828+260790412+261835274+265370617+272466318+280330507+282719679+279260197
3818+275263287+271756733+266451774+260431289+257045894+257942324+262522184
3808+267818707+270783237+272977007+277611465+282862395+283916572+281539453
3798+279435317+277217373+273550919+270237975+269588393+271526242+274791545
3788+278758083+283291266+288059986+293101259+299266405+306796075+314109630
3778+319686523+324652090+331557004+341920437+355282197+368840168+379100020
3768+385545054+389956562+393080888+395376052+398006304+400835797+402288301
3758+402675971+404985082+411635487+422682730+435210474+443587004+445856067
3748+447484879+453033328+460744195+465003637+465661105+468321970+476298158
3738+489444459+505507717+520290232+529430739+533155164+536462925+543593079
3728+554618629+566037564+574220845+579046021+582322446+584137723+583753497
3718+582456811+583116174+587362909+593455226+596426075+592620107+584266235
3708+576080096+571647824+572791343+577693274+580797938+578619508+574319329
3698+572526124+574282001+578299675+583598540+589744024+594681802+594238210
3688+587682398+580500763+577836662+581129065+588601676+596442535+602366188
3678+607311680+611034934+610398575+606526561+603884498+602053380+597293907
3668+590067438+583799158+579284518+575548040+572428983+571195692+573145921
3658+577244448+579943673+579917640+580596148+585171257+592174587+595557210
3648+591147458+581947517+573029771+567229774+564858921+564225661+563535066
3638+562749189+562866269+564260130+566999920+572033703+579729487+586221594
3628+585308102+577732599+569667981+565665459+567759901+574882066+581908605
3618+584128908+583134286+582931602+584432970+586366979+587608845+586899758
3608+583326847+578781284+576851820+578938652+583344409+587632605+591229069
3598+595249360+600033903+603831606+604819409+604094827+604477125+606606244
3588+608181440+607583579+605639721+602922658+599389830+596140746+594747986
3578+595041993+595338823+595163411+596121807+600023503+607010993+614593796
3568+618213745+615356945+609104988+604097789+601814677+601196017+600958553
3558+600614753+600117167+599223233+597630268+596209754+597060368+600976596
3548+605612311+607243636+604586628+599845543+595863682+593645789+592471072
3538+591327416+590002975+589101121+589209385+590168332+591060751+590894705
3528+589376740+587369865+586258922+586335161+586296181+584482625+580609509
3518+576283263+573627047+573448157+574945151+576743384+577657083+576965869
3508+574737646+572056327+570206270+569456653+569210615+569011374+568815576
3498+568599944+568148432+567037661+564976104+562527566+560960082+560916143
3488+561695753+562067376+561372649+559753065+557835447+556431392+555970548
3478+555959667+555423444+553991807+552410482+551725569+551768061+550902227
3468+548193807+545254295+544429472+545707184+546892060+546519197+545071685
3458+543606957+542767809+542683925+542794668+542263439+541050120+539848613
3448+538887944+537851380+537003590+537031620+537543084+537110269+535314620
3438+533520761+532945489+532963257+532109509+530230286+528556295+527739462
3428+527169080+526591914+526846871+528147792+529171581+528830123+527576067
3418+526088542+524149505+521389055+518179089+515621323+514751563+515502866
3408+516813740+517941315+518791206+519039414+518297649+516957953+515695806
3398+514665200+513903531+513694097+514061794+514639545+515158172+515444706
3388+515057001+513533044+511121283+508864686+507697958+507689108+508321576
3378+509196536+510129864+510773145+510603724+509481555+508099505+507529708
3368+508118478+509061964+509349152+508947846+508671402+508971779+509325013
3358+509000153+508099367+507352987+507071997+506970070+506884017+506915869
3348+506985979+506916833+506795346+506649101+506089703+504964917+503925254
3338+503566372+503464307+502886935+501985322+501458879+501516248+501754366
3328+501687390+501103131+500197214+499359857+498597534+497470475+495876615
3318+494522181+494276487+495249759+496750748+497936037+498267818+497700329
3308+496809047+496368795+496422134+496277817+495642077+494980236+494602105
3298+494245151+493701181+493145950+492822949+492858934+493361341+494350075
3288+495452271+496034155+496016455+496136771+496842758+497496439+497374298
3278+496812834+496651610+497153948+497991408+498753903+499095155+498784998
3268+497954425+496987007+496010395+494844562+493631932+492929974+492813652
3258+492667613+492131563+491421788+490707708+489996693+489472627+489258234
3248+489023525+488356139+487424189+486872299+487083730+487759277+488278660
3238+488309170+487788546+486559491+484591700+482442644+480909252+480225372
3228+480003817+479856366+479664700+479340219+478734231+477836785+476942610
3218+476603391+477133656+477950662+477860270+476413447+474565422+473569973
3208+473565084+473530959+472534753+470757836+469124134+468208782+467870526
3198+467643049+467111785+466220503+465343855+464751745+464174889+463281541
3188+462254447+461471841+460946466+460385588+459537074+458301683+456737195
3178+455037344+453404882+451982612+450887612+450141818+449602496+449140722
3168+448727811+448181603+447226168+446003965+444944261+444030355+442998062
3158+442176648+442118212+442528919+442498237+441596831+440073666+438316136
3148+436638667+435323214+434584445+434497565+434822838+434947734+434342470
3138+433198228+432307737+432094550+432030845+431346036+430049935+428716886
3128+427624744+426762008+426284394+426312528+426490213+426190318+425170283
3118+423902178+423158691+423172534+423281693+422581663+420900097+418979827
3108+417693437+417216271+417140307+417243199+417646295+418250837+418657549
3098+418689229+418497426+418188165+417669814+416835694+415740763+414525723
3088+413188783+411699674+410409599+409888597+410194208+410746064+411065656
3078+411254084+411583145+411887035+411617649+410530432+409020662+407578075
3068+406310693+405291726+404811116+404830950+404746343+404174171+403467185
3058+403028620+402648561+401952319+401072607+400422783+400037971+399487872
3048+398456335+397234615+396467540+396358518+396374909+395945987+395186074
3038+394617758+394405328+394208670+393667282+392729891+391557309+390385864
3028+389513521+389147648+389150472+389096375+388638802+387756197+386755653
3018+386064783+385809757+385626562+385086414+384102536+382736291+381090331
3008+379622262+378978671+379205288+379531284+379217478+378363213+377611359
2998+377250204+376960433+376401001+375657342+375032105+374701253+374612308
2988+374475428+373943407+373008530+372083742+371559813+371423554+371383885
2978+371227343+370914260+370395978+369564406+368521403+367724232+367550507
2968+367744824+367606361+366794004+365675967+364797873+364331864+364151562
2958+364100667+363995640+363593921+362773162+361699787+360743181+360170871
2948+359880343+359514918+358893985+358171538+357553567+357103363+356861422
2938+356855878+356888695+356573236+355741044+354676416+353838646+353423703
2928+353253491+353047260+352709693+352275054+351681118+350866110+350039083
2918+349503377+349229137+348958133+348653934+348465505+348359652+348148944
2908+347795124+347429355+347108971+346701329+346040280+345160327+344337432
2898+343865225+343739089+343583443+343076628+342451769+342222467+342357142
2888+342200463+341354600+340148410+339090565+338343772+337841537+337536959
2878+337402181+337336995+337172637+336796675+336268682+335786936+335525918
2868+335469858+335395031+335104365+334687907+334406573+334323344+334195245
2858+333727548+332863298+331858724+331057972+330584456+330374092+330426433
2848+330718236+330946781+330739723+330079948+329270518+328611569+328261605
2838+328207852+328230993+328051242+327589984+326992295+326421776+325950773
2828+325602049+325347712+325041481+324505018+323773652+323105371+322661848
2818+322388193+322259819+322337229+322448592+322159062+321310341+320328770
2808+319717617+319448301+319133565+318652955+318258915+318077683+317874137
2798+317444526+316949557+316633477+316422700+316071980+315587341+315212171
2788+315010692+314714137+314066276+313176165+312413635+311992013+311746146
2778+311384027+310871049+310386100+309963616+309470403+308928981+308534528
2768+308299887+307981019+307443109+306865151+306471456+306224178+305904724
2758+305398322+304778285+304160072+303576502+302986457+302363941+301786637
2748+301398348+301215635+301047627+300700831+300165573+299524152+298826670
2738+298167859+297710355+297474991+297239318+296783432+296126549+295424660
2728+294794361+294332208+294130901+294155970+294211376+294082726+293672192
2718+293042926+292367758+291766315+291232986+290775791+290473211+290304548
2708+290108337+289783098+289371324+288949081+288578612+288316751+288141012
2698+287919543+287554411+287121700+286787835+286589920+286387028+286061583
2688+285647725+285208851+284747628+284309579+284010356+283887303+283837699
2678+283735375+283535032+283261222+282934554+282532077+282047507+281582100
2668+281311475+281321668+281485080+281545375+281377797+281092400+280789199
2658+280360173+279712519+279024971+278559134+278353368+278272239+278199391
2648+278043211+277711929+277223330+276733199+276349403+275999991+275583396
2638+275167902+274917422+274881454+274977063+275104094+275163081+275061687
2628+274817819+274547176+274268890+273875538+273384219+273046394+273060598
2618+273281998+273395600+273317931+273215573+273134858+272876268+272330971
2608+271724347+271378274+271367789+271516703+271628979+271623417+271510023
2598+271349504+271235989+271236333+271311402+271326002+271155497+270799094
2588+270422392+270258877+270382034+270579003+270541124+270187907+269732245
2578+269445143+269423259+269553217+269650737+269651168+269654181+269739735
2568+269806883+269697638+269437946+269237431+269274534+269573982+270031606
2558+270442933+270596995+270487870+270335426+270263836+270099701+269637704
2548+268963534+268359905+268016140+267941537+268035183+268134580+268084959
2538+267868930+267631002+267487218+267353576+267063805+266605492+266107836
2528+265672715+265371839+265308840+265497906+265745115+265803706+265602020
2518+265247029+264881174+264603369+264474927+264525288+264713803+264904521
2508+264941917+264791264+264573204+264439975+264420571+264400805+264284656
2498+264158159+264196227+264400788+264569055+264552612+264404817+264249171
2488+264156695+264146916+264156024+264038945+263736123+263368202+263080480
2478+262909355+262828691+262767482+262587594+262214490+261771879+261455559
2468+261328993+261312344+261284761+261155217+260917718+260670096+260541033
2458+260579480+260704135+260761366+260653119+260419546+260176452+259973044
2448+259752057+259451818+259106538+258833881+258745418+258852339+259018367
2438+259033794+258810724+258494955+258309763+258300810+258309591+258190497
2428+257972403+257782700+257683183+257642395+257633269+257668118+257732373
2418+257776089+257803551+257875623+257981786+258014792+257931287+257832562
2408+257807924+257790190+257641947+257329466+256974389+256790885+256966435
2398+257524541+258333075+259343400+260803222+263206013+267157985+273354794
2388+282507869+295140812+311513503+331734620+355750479+383158740+413177832
2378+444816404+476913650+508083010+537116433+563728522+588343137+610693614
2368+629194047+642202228+649592539+652576680+652080815+648050813+639899488
2358+626994061+609351956+587440113+561493894+533989663+511300035+499522872
2348+501053475+514403665+533690009+550207982+559264053+562728701+563921324
2338+564347044+564373628+564694425+566082192+567896953+568296434+566388388
2328+562891819+558450388+552760893+545573817+537427175+528890350+519737963
2318+509530177+498634689+488086410+478563089+469697581+460303082+449315342
2308+436622379+423052184+409748274+397551589+386660371+376710469+367251266
2298+358126945+349398144+341107081+333219218+325669611+318437323+311639639
2288+305494843+300121083+295445837+291348894+287786778+284708699+281953999
2278+279384026+277096592+275335205+274138174+273232774+272324739+271335850
2268+270314817+269284830+268251452+267242092+266274037+265339022+264452527
2258+263679649+263074574+262616054+262234032+261859775+261412928+260818907
2248+260113212+259450114+258943264+258564496+258220542+257860024+257497389
2238+257173682+256895154+256628042+256374445+256195968+256119453+256082212
2228+256019747+255947140+255900360+255832730+255634229+255273315+254875625
2218+254607875+254504140+254473062+254459667+254493517+254568947+254600248
2208+254541984+254457911+254428779+254470755+254566071+254705344+254871803
2198+255009681+255037022+254923920+254747906+254618206+254576075+254628554
2188+254800212+255048678+255215275+255169184+254949282+254697320+254508307
2178+254399561+254371479+254406155+254413266+254288559+254056743+253840577
2168+253677630+253523998+253436103+253541061+253798876+253983413+253957673
2158+253828662+253771965+253802440+253794210+253674651+253513960+253427012
2148+253440837+253475100+253448224+253392715+253435810+253666749+254075010
2138+254610579+255233250+255907419+256617418+257401194+258334418+259470878
2128+260806699+262310856+263968404+265770889+267711459+269823808+272137274
2118+274522934+276685214+278391866+279650071+280603043+281304364+281621615
2108+281332240+280329646+278759856+276920715+275020985+273119758+271298747
2098+269703612+268333149+267001030+265634802+264406194+263445870+262646925
2088+261861221+261097848+260448145+259966588+259649699+259419725+259154558
2078+258827408+258567767+258502685+258583539+258640116+258598139+258609486
2068+258913599+259507930+260031153+260139607+259932669+259774664+259802849
2058+259869636+259860924+259813438+259795704+259868431+260100609+260485197
2048+260879857+261138326+261303253+261556058+261920931+262172497+262168123
2038+262099925+262242245+262604209+262978173+263204188+263278154+263291618
2028+263348918+263510384+263763499+264048053+264367334+264868846+265667343
2018+266532730+266966026+266738652+266172643+265771544+265766361+266058474
2008+266409281+266625963+266670694+266649964+266705198+266897742+267139579
1998+267301561+267530021+268260973+269592456+270829690+271106186+270347909
1988+269200206+268292103+267910872+268008737+268264658+268365432+268313142
1978+268336455+268577810+268970439+269352530+269708674+270307172+271371026
1968+272536945+273021945+272567557+271784367+271338071+271320131+271568511
1958+272061328+272732484+273304416+273563419+273599541+273684114+274041084
1948+274806627+276154501+278150063+280164289+280900941+279810021+277946707
1938+276658285+276267172+276372233+276617377+276889913+277197280+277536723
1928+277953611+278786905+280333193+282068995+283123843+283661564+284368343
1918+284737676+283688871+281729603+280568143+280985100+282260298+283168402
1908+283126960+282513086+282002707+281820494+281782547+281815002+282148591
1898+283015907+284189814+285062570+285605646+286678865+288513444+289701108
1888+288980521+287175298+285873843+285512757+285636482+285858416+286053439
1878+286235738+286497031+286992534+288254389+291239115+296154958+300961883
1868+302321103+299541782+295499832+292879463+292070721+292156223+292365726
1858+292494376+292634492+292895682+293296609+293931694+295109855+297174408
1848+300399111+304742954+308772267+309632799+306617563+302764558+300796630
1838+300732167+301176276+301554648+302976884+306636778+311456926+314409215
1828+314447438+313492829+312469386+310444330+307610946+305686578+305475250
1818+306193427+306906577+307711427+309316857+311713881+313668345+313990485
1808+313032881+312282507+313059464+315811478+319713554+322834367+323730023
1798+323142595+323382745+326219986+331123192+334526476+332975212+328219147
1788+324735492+324401782+326142335+328380957+330557149+332333446+333203309
1778+333782576+336018512+341368236+348822734+354292155+354260199+350229061
1768+345573788+342153183+341277431+343522424+347059040+348993532+349306409
1758+349842735+350652337+351382945+353801697+359641088+367196618+372000651
1748+372089665+369810720+368035800+368045270+369807035+372170174+373640757
1738+374932106+379033457+386708236+392603549+390916370+384674364+378728810
1728+374427150+372264630+372432845+374114721+377118455+383120655+393357883
1718+404787390+409878060+405627949+397496769+390938202+388090148+389438831
1708+394436320+400886554+406018098+410195861+416561901+425361019+431443039
1698+431607948+427926188+421405466+413900589+409615630+410218554+414171214
1688+420397001+430136884+442478471+448892342+443717719+434781172+429743153
1678+430391427+435229378+440596941+443926602+447004785+451533372+454238244
1668+451580789+447273723+446869180+450649459+454342273+454815720+454371198
1658+457429168+466880071+483349250+501039564+505844526+499860887+498220263
1648+503510932+507992963+504828038+498445021+495760775+498644847+506782054
1638+519398296+532914773+539429745+536622738+532911019+534814416+542554105
1628+553119740+563983066+575058753+586144391+595318024+602770938+612186649
1618+625662664+639209823+646479956+648945711+652259533+658122719+664729563
1608+670076430+674046239+677753654+681577665+684659532+686418887+687648632
1598+689582021+692607622+696123302+699266119+701824505+704381858+707508697
1588+711166732+714895909+718198918+720798902+722978915+725937023+731419908
1578+739982043+748489151+751911444+751853868+754651096+762424531+771957252
1568+779416433+785687054+793664276+804446920+819186909+840828230+868120204
1558+885480011+884868789+879735626+877215876+876026628+874009079+870797391
1548+868502709+870278593+876947214+886276011+895228709+898834746+890427706
1538+875319745+865415814+862432155+860463091+854526352+847179016+843548048
1528+844522835+847965719+852499368+858088175+862798544+863196269+860053245
1518+856739768+853179598+848148638+843607138+843200460+848993330+860254346
1508+871561780+871532510+857554707+843613818+837457384+837528045+840439665
1498+842936757+842230701+838532446+835861182+837529147+842744403+846795892
1488+845342113+839391049+833126902+829224379+827578797+826813168+826674326
1478+828304894+832346604+837860274+842227050+841928912+836794165+831625190
1468+830255708+832228216+834064086+833214160+831910105+834359814+841707357
1458+849461302+849101593+840060880+830556051+824676818+822296875+822361751
1448+822936471+821921258+819250407+816546016+815024263+815451877+818702890
1438+824215320+828074248+826623776+822489229+820105360+819679743+818501651
1428+815729562+813907604+815138587+818641940+822634752+826403529+828867150
1418+827735683+823113192+818065359+814566897+812414913+810777665+809640895
1408+809655565+810495229+810417612+808810804+807826582+809500814+813071796
1398+816256900+817801656+817437884+815126742+812119254+810553355+811065611
1388+811951624+811013614+808548822+807276792+809251366+814204227+820326020
1378+826040722+830871338+834608435+836626466+836989274+837009040+837650771
1368+838963642+841281533+844976620+848633208+849553588+847341067+844862364
1358+844580548+846129987+847387417+846970960+845574550+844778136+845108506
1348+845739631+845770003+845426272+845978542+848524944+852730082+856560086
1338+857809251+856397414+854375733+853684553+854742948+856817935+858924809
1328+860454964+861584709+863104672+865602383+868816550+871807440+873881256
1318+875412169+877519524+880889613+885159834+889312286+892439401+894402061
1308+895912795+897850317+900527160+903580170+906364450+908600731+910708224
1298+913090234+915251377+916395378+916649853+916772097+916951228+916628227
1288+915411844+913689334+912155184+910977575+909764566+908202662+906315690
1278+904393595+903127350+903255861+904578029+905920582+906522920+906843028
1268+907687789+909355271+911833286+914966943+918189788+920618285+921792451
1258+922149886+922544719+923451462+924703589+925834091+926584293+927115901
1248+927772715+928673329+929558517+929836270+928869196+926757915+924789539
1238+924503453+925969146+927320170+926712185+924465987+922190382+920563257
1228+919378348+918807552+918850252+918327459+916314386+913964539+913318056
1218+914888500+917412864+919465813+920653477+921356090+921991967+922832802
1208+924146912+926070040+928088416+929154800+929211274+929826008+932201682
1198+935436027+938010047+940000530+942405611+945438167+948632293+951807823
1188+954924608+957579205+959283533+959786147+959139388+958013293+957528861
1178+958165290+959470653+961108384+963108922+964879503+965384527+964701543
1168+964191973+965056292+967445533+970505638+972917881+974292459+975834529
1158+978726522+982651841+986154987+987714136+986889761+985104305+984567876
1148+986104092+988750975+991151924+992575813+993301635+994435306+996445485
1138+998260625+999179490+1000455928+1003496680+1007845964+1011459301+1012504060
1128+1011036164+1008702983+1007076409+1006832334+1007923442+1010053181
1120+1013294482+1017390324+1020433142+1020927009+1020599945+1022691874
1111+1027679445+1032465503+1033998964+1032749799+1031342301+1030561590
1103+1029513456+1028686257+1029713868+1033272247+1038274212+1042424599
1094+1043842978+1042717159+1040988382+1040095688+1040065730+1040443000
1085+1040123650+1037703830+1034361014+1033997243+1038528136+1045108466
1077+1049850378+1052228806+1053229626+1052452565+1049591977+1046301709
1068+1044707367+1045700129+1049236539+1054322250+1058762304+1061432053
1060+1063830729+1066553164+1066630780+1061987835+1056071344+1053653935
1051+1054777206+1056077198+1056375818+1057373746+1059986677+1063422743
1043+1066698824+1069034071+1069955897+1069844052+1069221535+1067637936
1034+1064255451+1059574765+1055656057+1054658612+1057599020+1063651598
1025+1070121392+1073741823+1072673373+1067991309+1062785626+1059455482
1017+1058543642+1059400455+1060875032+1061743277+1061429712+1060388052
1008+1059377796+1058693710+1058299015+1058369125+1059577864+1062156980
1000+1064510133+1064232655+1060996312+1056724714+1053156968+1050894862
991+1050278957+1051739691+1054961020+1058100188+1058295434+1054492359
983+1049639980+1047387377+1047307144+1045957428+1042214614+1038282546
974+1035670923+1033513499+1030808902+1028423931+1027929582+1029368829
965+1031389477+1032834578+1032946010+1031327218+1028673034+1025918851
957+1022674794+1018185773+1013375474+1009828664+1007324066+1004418575
948+1000875554+997693825+995221458+992794889+990230374+988441887+987744370
938+986803674+984621319+982077740+980046279+978065507+976252295+976256290
928+978963573+982824980+985518558+986452643+986813798+987459386+987496714
918+985683227+982643714+980429197+980115769+980474169+979449658+976999536
908+975436116+976309113+978385339+979471696+978975143+977538995+975430675
898+972976283+971405356+971483042+971936482+970638832+967334790+963877512
888+961771947+960855562+960454325+960782697+962278555+963945142+963893352
878+961858172+959423684+957847110+957473903+958546830+960686486+962380001
868+962513333+961565406+960443374+959541314+959348960+960233734+961169471
858+960395234+958111227+956609514+956987611+958028789+958958122+960797642
848+963606164+965050025+963544594+960328637+957182238+954104847+950871948
838+949111904+950208591+952405340+952622694+950743505+949435249+950192407
828+952191430+954363730+956347395+957910677+959041179+960070029+961047778
818+961584345+961545089+961733724+963365394+966663996+970323614+972625321
808+973198596+973071324+972558242+970509701+966137071+960790135+957435887
798+958200758+962499284+967230796+969110674+967448288+964589560+963011126
788+962728690+962721390+963811672+967408963+971670575+972718365+970377539
778+968666393+970291521+973637023+975479642+974562843+971620644+967907789
768+964864489+963742871+964445001+965447750+965651054+965547405+966104357
758+967251939+967969290+967795118+967596359+968455582+970492001+972572980
748+972997013+971355219+969115633+967797941+967571566+968273145+970187664
738+972814507+974719660+975505124+976266000+977012208+976164899+973412024
728+970438076+968421698+966847190+965757390+967258826+972528076+978761439
718+981388557+978842430+973249284+967529486+963893490+963792940+967158552
708+972468710+978099253+982093373+981975743+977370883+971515273+968152691
698+967497186+966125018+961863131+957454068+956525217+958389462+958602683
688+954526401+947857091+941905614+939603631+940865194+941728342+939014241
678+934133901+930671457+931100793+935923145+942507607+945054216+938102195
668+923362895+912938100+913504694+919575385+924542502+925026452+921818070
658+918834412+919454311+923996156+929831587+933417376+932188872+926377890
648+919903620+916360874+914134786+909327517+903278037+900791139+902538579
638+904482300+903689123+901061592+898407889+896174570+894997443+895860798
628+897875799+899179441+899810842+900468758+898828341+892770391+886054732
618+884507014+888008369+890343203+887163127+882241808+883628370+893758126
608+904703166+905797305+895991238+882637674+873125820+872003169+878983289
##END=
