##TITLE=<SNM>
##JCAMP-DX=4.24
##DATA TYPE=INFRARED SPECTRUM
##DATE=3/5/2025
##SAMPLING PROCEDURE=Instrument type and / or accessory
##ORIGIN=Admin
##XUNITS=1/CM
##YUNITS=ABSORBANCE
##RESOLUTION=4
##FIRSTX=4497.3318
##LASTX=599.83466
##DELTAX=-1.4281778
##MAXY=1.7095436
##MINY=0.17583799
##XFACTOR=1
##YFACTOR=1.5921365e-09
##NPOINTS=2730
##FIRSTY=0.19900496
##XYDATA=(X++(Y..Y))
4497+124992398+125221951+125702847+126208526+126540647+126575632+126346696
4487+125901319+125195914+124457733+124189957+124487879+124895109+125092120
4477+125178983+125254447+125222260+125046466+124848743+124685958+124467121
4467+124203134+124149487+124507159+125108733+125588702+125761595+125711532
4457+125618109+125565772+125512218+125432253+125396875+125372822+125096182
4447+124399341+123508006+122735618+122092695+121471561+121021195+121033072
4437+121521109+122105386+122334584+122128737+121848710+121796972+121802990
4427+121535447+120988784+120366396+119751017+119129771+118485997+117718690
4417+116751312+115857908+115633371+116426809+117853772+119009018+119217177
4407+118546046+117654037+117207901+117309664+117437492+117055524+116224256
4397+115455658+115075365+114937934+114754081+114534308+114543639+114826325
4387+115015569+114725208+114014750+113395731+113300098+113509089+113330441
4377+112574702+111930385+112014655+112606271+113139475+113358453+113250494
4367+112914058+112610595+112604212+112939328+113407654+113677078+113557477
4357+113159962+112676746+112107462+111422095+110826446+110593495+110729297
4347+110957185+111033575+111083169+111536774+112608901+113890384+114629632
4337+114409540+113423424+112167698+111090647+110487895+110441529+110791077
4327+111330871+111993644+112684972+113159635+113289400+113200900+112999470
4317+112711787+112553288+112733668+112984365+112809207+112224779+111819169
4307+112036575+112751264+113604076+114426031+115191485+115785936+115974459
4297+115545291+114548141+113465045+112942229+113217222+113988179+114877155
4287+115687954+116157993+115939390+115092567+114222740+113831421+113839077
4277+113954326+114112160+114338148+114599139+114925842+115317011+115590291
4267+115688104+115904929+116455860+117071257+117291666+117021793+116633750
4257+116505323+116566411+116539222+116526363+116938234+117876337+118950149
4247+119704259+119990707+119941618+119734901+119463175+119190896+118975194
4237+118830856+118866796+119298536+119999898+120315360+119784233+118828891
4227+118322070+118648988+119412448+119938155+119991615+119955676+120193503
4217+120448579+120323933+120100435+120352488+120905244+121014176+120510256
4207+119997193+119983435+120425247+121004068+121413169+121476512+121228736
4197+120867002+120615108+120625506+120910410+121360167+121830029+122147896
4187+122176881+122001649+121888327+121996379+122284990+122620443+122862828
4177+123015982+123254830+123615272+123891435+123999693+124109196+124325413
4167+124588547+124815986+124819608+124355166+123603676+123228802+123574372
4157+124140568+124261517+123955714+123673983+123596367+123612764+123622076
4147+123497140+123128284+122727438+122684834+123019221+123378119+123612249
4137+123952307+124554049+125182895+125484684+125437944+125400319+125694826
4127+126233936+126617758+126549361+126068212+125434668+124907444+124616737
4117+124534694+124543857+124593732+124790164+125258359+125891978+126295567
4107+126106566+125430063+124866862+125047346+126129805+127670858+128933005
4097+129424851+129235944+128824775+128526356+128323102+128053350+127761642
4087+127708407+127966656+128203070+128054492+127559062+127074282+126963899
4077+127381218+128116198+128675056+128678780+128148655+127393432+126767936
4067+126538916+126781030+127274176+127619663+127625269+127538378+127746546
4057+128250989+128601866+128428702+127889498+127471328+127415940+127502803
4047+127479574+127494549+127858295+128525495+129101939+129271931+128993316
4037+128424144+127922480+127994135+128899462+130239403+131153172+131092908
4027+130342448+129714350+129811312+130560069+131337811+131546746+131165695
4017+130725717+130627249+130647568+130367858+129895133+129746687+130103470
4007+130632949+131015385+131252118+131491658+131808505+132092230+132100756
3997+131776749+131423635+131348312+131462597+131476945+131389867+131549956
3987+132157042+132864094+133125076+132888465+132607932+132593865+132765860
3977+133019335+133382866+133747099+133810583+133437328+132871478+132458915
3967+132297599+132342046+132701159+133528299+134636815+135468354+135549236
3957+134906829+133965122+133131038+132665697+132859564+133825717+134971407
3947+135337933+134812366+134312565+134539049+135154333+135440061+135270650
3937+135024455+135008058+135292438+135790068+136261576+136467723+136422817
3927+136322861+136299032+136368908+136564937+136990126+137683673+138435565
3917+138801829+138449669+137496657+136414880+135728690+135811922+136749576
3907+138368843+140388142+142419487+143962467+144629536+144256861+142916882
3897+141155963+139933293+139956710+141072423+142194313+142351230+142066054
3887+142394114+143186662+143438126+142980563+142518610+142262944+142077772
3878+142285678+143146314+144272285+145284729+146389491+147524625+147915522
3868+147399866+146742390+146316283+145816014+145167018+144840643+145289764
3858+146792125+149510493+152717767+153912875+151807714+148760164+146813211
3848+146250956+146618830+147426634+148463392+149825786+151572217+153279255
3838+154199960+154211200+153907100+153490315+152708455+151758962+151273789
3828+151427243+151957976+153035363+155019462+157128217+157748528+157079418
3818+156754971+156929717+156523649+155441517+154729757+155247584+156981174
3808+158882866+159882674+160507739+161893915+163668236+164550867+164837241
3798+165584013+166481806+166694466+166511082+166868361+168036148+169665215
3788+171605588+173966302+176579753+179206250+182147274+185831195+189986447
3778+193955562+197626137+201501436+206230034+212111725+218652119+225095439
3768+231636787+238968971+246978950+255234103+264130026+274469328+286233853
3758+298404063+310295330+322550578+336466432+352429074+368475275+381795022
3748+392792110+404054250+416275898+426729813+433593119+439437879+447398909
3738+458614478+471814090+483736730+492208287+498221625+503403078+507800453
3728+510682719+511661469+510768038+508387426+505505721+503684042+504220812
3718+507282551+512225306+518438483+525051673+530241886+533113857+535615390
3708+539627914+544702822+549436455+553181904+556530933+560552741+565197798
3698+569308781+572442174+575658715+580248328+586291017+592137723+594948411
3688+593814260+591516720+590928175+592335765+594227376+595758582+598141216
3678+601889547+603297137+598789810+592313864+588607537+586930364+585171878
3668+583878434+584161232+585750952+588057551+591006942+594760066+598943376
3658+602471504+604682302+606345586+608300877+610364623+612532032+615216183
3648+617618658+618548965+618440809+618786988+620382025+622848629+626064047
3638+630824073+636819291+641501224+643022734+642636386+642320044+642240977
3628+642073484+642624780+644449305+647620958+652368031+658392226+663970098
3618+667535888+669918596+672782144+676791036+681579439+685699819+687297326
3608+686271555+684982603+685455880+687459802+689588239+690886850+691657301
3598+692996644+695313538+697472598+698422897+698583875+698356109+697429696
3588+696199819+695692774+696008442+696782936+698443487+701582795+705425392
3578+708179924+708835220+707572398+705193808+702933218+701773199+701225946
3568+699632557+696725807+694361817+693818907+694999817+697539311+700404581
3558+701743923+701331893+701449894+703223055+704377983+702749628+700126350
3548+699778337+701921150+703365240+701360495+697120093+694147753+693854622
3538+694439386+694295030+694750712+697338350+700627555+702217575+701995874
3528+701405045+701472131+702632301+704473297+705460433+703976510+700088164
3518+695902645+693720898+693955178+695178541+696017426+696165377+695858095
3508+695245927+694379637+693345930+692354676+692445872+694900759+698942146
3498+701837066+701787350+699854858+698440117+698356558+698416981+697513030
3488+696009190+695063984+695295868+696307113+697402816+698134183+697957706
3478+696387003+693989470+692876696+694559409+697696097+699460797+698718573
3468+697090218+696964730+698866074+700951609+701181921+699492469+697710398
3458+697309523+697760638+697576074+696719967+696728278+698172219+699482960
3448+699023384+697173927+695388786+694905551+696611026+700192838+703424316
3438+703647140+700334873+696121950+694248383+694953245+695721076+694852390
3428+693004430+691128018+689414232+688437279+689039863+690560999+691058910
3418+690099328+689230792+689149329+688624688+687103103+686099046+686808250
3408+688488792+690018314+691164557+691844036+691983601+692131477+692562450
3398+692319186+690565417+688177916+686939953+687596896+689310457+690644633
3388+690634675+689470687+688361956+687931207+687247610+685422187+683111207
3378+681419135+680747292+681604597+684566379+688449034+690611614+690075667
3368+688223365+686216373+684219714+682916760+683540908+686099795+688869451
3358+690138636+689605685+687774496+685226167+682819499+681385966+680785403
3348+680270346+679990019+680991231+683389214+685433043+685200336+682754733
3338+679822451+678112484+678736931+681977843+686296563+688683314+687863297
3328+686179535+686558471+688836881+690373665+689570494+687492746+686118363
3318+686205516+687130657+687915933+688024275+687481440+686582581+685597541
3308+684824469+684723614+685483359+686426169+686421303+684976837+682565228
3298+680361767+679813242+681407604+683826102+685117675+684657576+683405836
3288+682477775+682148330+682250383+682809316+684009768+685956336+688410175
3278+690473921+691041389+690073197+688500398+686550535+683868481+681485398
3268+681544099+684358305+687289764+687764913+686381170+685504099+685937768
3258+686565584+686711064+687242668+688657483+689449273+687835519+684355685
3248+681476713+681229105+683709224+686918390+688160621+686674151+684172918
3238+682315898+681243032+680760021+681012196+681582360+681354668+679561366
3228+676723725+674612134+674510306+675351663+674931770+673099010+671899157
3218+672739092+675212697+678122741+680128685+680274614+679246896+678884582
3208+679584727+679690524+678048242+675546634+673314497+671246558+669169035
3198+667798769+667736774+668564129+669156606+668268078+665429463+661861653
3188+659783231+660318878+662337850+663493377+662334031+659403921+656475382
3178+655121739+655969535+658364822+660552410+660962793+659488004+657181592
3168+655144950+654083689+654206482+655017814+655607071+655464511+654788700
3158+653951836+653021305+651757959+649715253+646669163+643422261+641544950
3148+641714240+642749969+642907953+641829396+640430155+639327938+638289214
3138+637075435+636105669+635771208+635590163+634774713+633402276+632425997
3128+632686708+634140757+635653806+635596902+633370755+630355288+628651610
3118+628954175+630001434+630099219+629005463+627919157+627691204+627657810
3108+626372414+623295027+619597123+617109217+616452611+616556236+616285605
3098+615727271+615248229+614666909+614041188+613989076+614619102+615097994
3088+614817667+614242936+614108537+614280710+613894885+612558425+610965074
3078+610072691+610007213+609936907+608872576+606608842+603978713+602196043
3068+601924401+602937144+604366747+605103280+604444840+602746815+601164881
3058+600535193+600634213+600773965+600842849+601079563+600976349+599631279
3048+597508869+596376853+596992839+597969830+597455222+595306457+592903832
3038+591457233+591150176+591392654+591297902+590049119+587413487+584274778
3028+582248169+582108193+582726014+582344345+580876631+579846480+580087162
3018+580711572+580443299+579053342+577276550+575949412+575380259+575200637
3008+574726910+573484118+571525831+569529846+568375929+568195857+568175716
2998+567647107+566772282+565842686+564762183+563574685+562694431+562247771
2988+561842143+561324016+561121894+561397355+561495290+560742359+559222197
2978+557385917+555597145+554260386+553539314+552957395+552176798+551753686
2968+552127007+552626789+552453906+551754173+550946884+549990708+548844465
2958+547740451+546768515+545860296+545106916+544552924+543902122+542819409
2948+541325378+539693429+538159789+536918232+536217039+536203412+536706077
2938+537290729+537479111+536931934+535615166+533846909+531992959+530184458
2928+528570254+527574769+527486456+527888191+527839261+526705485+524715939
2918+522705914+521355566+520687055+520297899+520008249+520008848+520230250
2908+520014164+518842502+517029396+515319016+514193514+513792303+513950773
2898+514090150+513571462+512326835+510884616+509770607+508973501+508039038
2888+506790518+505688526+505135508+504855854+504408296+503821772+503287922
2878+502657934+501626211+500215776+498920946+498372533+498730542+499341512
2868+499171436+497692192+495288819+492880915+491306245+490902488+491273338
2858+491435851+490654693+489247066+488147170+487714250+487499661+487052365
2848+486282476+485127323+483638682+482386381+482018788+482373465+482595653
2838+482198672+481536226+481074480+480603187+479527737+477855656+476391274
2828+475671475+475199396+474231540+472930608+472090824+471990680+472118040
2818+471878519+471130081+470066648+468929315+467893811+467000230+466117580
2808+465147141+464253447+463672240+463365632+463055467+462456402+461463500
2798+460349079+459598095+459252478+458749850+457683759+456277817+454881046
2788+453499176+452087880+450911575+450277881+450029562+449598813+448696509
2778+447680659+446954720+446271722+445061200+443330904+441754773+440785607
2768+440126643+439297266+438328249+437549450+437003545+436437499+435662705
2758+434658124+433473134+432236481+431194462+430542012+430161803+429678231
2748+428829536+427630246+426214232+424780549+423629252+422958795+422624034
2738+422221700+421433317+420355845+419441300+418908123+418394452+417491586
2728+416330256+415314743+414598501+414020812+413246916+411971217+410291573
2718+408745130+407741971+407186295+406784972+406414908+406029645+405471648
2708+404558225+403262273+401756523+400346275+399344801+398861491+398620173
2698+398123984+397153882+395999328+395051276+394318150+393547099+392691442
2688+391971268+391476652+390972152+390206306+389232947+388276659+387425194
2678+386634340+385891330+385160262+384313252+383344872+382497413+381970526
2668+381659576+381335484+380935546+380558107+380274261+380010855+379581379
2658+378863377+377957292+377066855+376242420+375404395+374555701+373736207
2648+372862842+371900339+371060031+370540519+370231028+369901509+369472070
2638+368931481+368250766+367516816+366928158+366559405+366275521+365927470
2628+365523264+365137514+364694711+363997261+363015030+361975819+361129333
2618+360562838+360225569+359997579+359741211+359320794+358616906+357658971
2608+356718032+356056297+355636592+355277161+354973473+354841957+354815863
2598+354590007+353950510+353107468+352507654+352261731+352033179+351598612
2588+351152401+350882144+350637569+350240252+349783072+349423079+349141142
2578+348837004+348451367+347942113+347326164+346749224+346374705+346228926
2568+346212978+346198452+346104411+345947550+345840855+345937255+346316266
2558+346807550+347009897+346711375+346163898+345684668+345208733+344551753
2548+343902747+343691378+344016630+344446106+344452321+343964967+343380390
2538+343047951+342899326+342647376+342234559+341901708+341796959+341756265
2528+341630066+341574696+341759373+342011847+342032288+341798382+341530334
2518+341347941+341136273+340753780+340265341+339883036+339717452+339680277
2508+339618357+339488376+339364422+339257802+339030523+338613513+338162211
2498+337818391+337530838+337257736+337061791+336908188+336649050+336217290
2488+335633686+334946083+334316207+333978227+333987212+334141339+334197382
2478+334072905+333838437+333582257+333332590+333112910+332991503+332982443
2468+332960655+332807351+332590067+332457054+332378698+332135283+331601808
2458+330955460+330532797+330498617+330685540+330752776+330500602+330032790
2448+329614021+329398572+329347321+329365328+329405460+329437656+329414370
2438+329273533+328941392+328419185+327885073+327556452+327431188+327331569
2428+327191105+327102342+327081827+326974383+326659838+326261510+326033220
2418+326051938+326156200+326216361+326293930+326470221+326691398+326864805
2408+326992166+327152845+327378926+327561693+327535113+327273991+326930208
2398+326667663+326555652+326614465+326833808+327116681+327275788+327115483
2388+326518439+325431459+323727519+321116782+317294513+312169440+305871637
2378+298608244+290670256+282528012+274684029+267369010+260529140+254125091
2368+248299312+243268617+239192114+236198472+234580319+234889061+237643799
2358+242899882+250259395+259549435+271279331+285328797+299081596+308432807
2348+310804266+306923052+300463616+295241750+292062515+289440828+286309681
2338+282676525+278934670+275387917+272173398+269516109+267867688+267485775
2328+268011520+268761512+269411623+270285400+271939306+274527243+277711625
2318+281078980+284351582+287319149+289919440+292369947+294993206+297869314
2308+300717513+303140167+304992301+306470609+307836382+309162303+310368201
2298+311388693+312265278+313115639+313989154+314773700+315337050+315719019
2288+316072049+316463639+316833927+317085653+317142856+316985359+316685827
2278+316367763+316101399+315885763+315721602+315627373+315586455+315539209
2268+315416529+315170493+314836781+314568695+314516209+314668015+314888669
2258+315070312+315147582+315036357+314719753+314363728+314188000+314242657
2248+314414530+314581237+314687183+314777331+314987764+315388451+315870863
2238+316289145+316620012+316914940+317218217+317581691+318059199+318633369
2228+319191103+319632297+320017074+320530221+321285510+322266731+323408894
2218+324593659+325674387+326652913+327723158+329094622+330876842+333042679
2208+335377056+337593657+339584813+341477435+343480646+345735508+348210461
2198+350718358+353117202+355448959+357804151+360143882+362368382+364500039
2188+366655618+368858816+371039141+373164471+375157386+376758899+377752250
2178+378286998+378759751+379392659+380064764+380523254+380645972+380505059
2168+380266212+380012802+379652808+379085452+378368386+377528414+376471384
2158+375327088+374468061+374007288+373731378+373491594+373253870+372968451
2148+372576487+372045482+371822508+373259111+377566375+384311942+391937201
2138+399440265+406610628+413405462+420012587+426703046+433300250+439517245
2128+445500597+451497388+457536670+463563111+469324499+474276539+477935172
2118+480143911+481029219+480884488+480068064+479090998+478788695+480159672
2108+483980930+490602543+499982245+511732487+524830383+537203576+546131900
2098+549426160+546317400+537870551+526524927+514372425+502131571+489868743
2088+477536581+464796020+451441981+437835805+424528524+412087571+401141510
2078+391938548+384239202+377836857+372641964+368452925+365079412+362335700
2068+359920309+357710709+355814380+354172473+352661370+351352202+350225239
2058+349149303+348218584+347514060+346884596+346395745+346407987+347090424
2048+348356315+350087022+352289210+355439562+360443826+367915369+377973913
2038+390754232+406378856+424505201+444350910+464764012+484006125+499980597
2028+510905731+515882254+515263984+510409056+502866607+493874004+484226217
2018+474320939+464520073+455258897+446611387+438206842+429701479+421005076
2008+412200593+403546269+395399589+387979672+381254658+375036390+369204696
1998+363905354+359433629+355872258+352950533+350276416+347664181+345226890
1988+343145623+341442432+340015188+338746489+337538700+336393243+335434410
1978+334722397+334126402+333476610+332752393+332089910+331643737+331400510
1968+331156833+330760002+330284815+329877315+329558053+329282330+329077550
1958+328998895+328985793+328880595+328592518+328158699+327684037+327310304
1948+327173997+327301544+327573673+327771714+327656334+327154080+326478756
1938+325933862+325672328+325690672+325889312+326086081+326108767+325938991
1928+325740987+325738666+326007463+326392277+326736509+327106985+327575657
1918+327935538+327936811+327675651+327456009+327435344+327560795+327689053
1908+327710280+327609425+327431974+327248271+327162915+327246737+327451217
1898+327679170+327886121+328064209+328257158+328560584+328928140+329101697
1888+328963330+328736463+328621943+328556916+328446289+328346632+328355954
1878+328487545+328651294+328750202+328888868+329362370+330232366+331008246
1868+331074434+330497869+329912393+329692564+329717684+329729589+329626675
1858+329461241+329336389+329347433+329553635+329948407+330435536+330936330
1848+331580469+332557048+333605281+333997357+333486643+332710389+332319173
1838+332459075+332912024+333412331+333981222+334845078+335901884+336616105
1828+336757617+336670576+336575187+336370332+336114638+336077650+336342966
1818+336726656+337054416+337386669+337950094+338858425+339916092+340771413
1808+341287855+341651816+342156428+342995951+344161399+345390527+346326224
1798+346917840+347579612+348789385+350487634+351853145+352151293+351879014
1788+352102363+353203569+354823800+356515124+358138275+359644848+360894679
1778+361919065+363127265+365013860+367556799+369882191+371105329+371469665
1768+371673284+372058323+372912520+374457129+376352409+377968335+379309437
1758+380791040+382390119+383972839+385901363+388482075+391170081+392994643
1748+393822747+394325637+394994410+395979150+397333167+398873733+400194843
1738+401420827+403393526+406465635+409359170+410484710+410440909+410553070
1728+411235432+412463849+414109200+415896775+417825111+420469204+424315620
1718+428720183+431835419+432751350+432674380+433035085+434348558+436552056
1708+439453303+442730154+446008391+449500130+453920303+459144060+463568539
1698+466299486+468195964+469808034+471406477+473738047+477156597+481214119
1688+485600712+490866286+497221723+502754409+505601522+507271170+509899203
1678+514173897+519764910+525662643+530873634+535568931+540535272+545651735
1668+550013956+553681911+557653815+562306210+566964221+570925493+574520334
1658+578675716+584245315+591859081+600723201+606976622+609234254+611064244
1648+614358578+618226820+621085651+622972246+624872430+627379878+630963188
1638+635849152+640913540+643521693+642952503+641760886+641835835+643153838
1628+644966458+646918193+649301276+652257667+655377059+658504761+662061191
1618+665906709+668540319+668683403+667170429+665133712+662588527+659264281
1608+655448563+652014552+649965481+649967652+652115856+655970958+660716308
1598+665291920+668639677+670160588+669988229+668739484+667111129+665646597
1588+664513757+663473161+662291129+661085736+660213905+660061462+660927003
1578+662793008+665028889+666762067+668193729+670373080+673744796+677807448
1568+681977993+686639560+692504798+699675535+708266104+719455542+734210694
1558+749027767+759723263+768950109+779645155+791304352+802124737+811080465
1548+818264979+824442890+830173730+835305729+839361118+841362419+840153507
1538+837257239+835178967+833846364+832165447+830545104+830641316+832857356
1528+835902697+838226705+839752258+841906976+845230848+848277762+850052196
1518+851602457+853739355+855947458+857660196+859092082+860872356+863365578
1508+866009372+867275712+866803558+866268585+866388383+866734524+867030875
1498+867343548+867843705+868816016+870356619+871929268+872603656+871893628
1488+870442124+869320590+869134454+870185682+872389741+874912838+876628945
1478+877246130+877653743+878897396+880823674+882160396+882389884+882320851
1468+882455848+882579165+882539332+882633149+883366238+885056289+887413541
1458+888816750+887081775+883283054+880882226+881156189+883085836+884681846
1448+884390736+882329611+879719061+877372442+875607068+874941590+875831165
1438+877892815+879937768+881110740+881541939+881320686+880274775+878976538
1428+878541446+879132949+879902951+880318725+880599577+880908431+880933814
1418+880436277+879577325+878532462+877395878+876202913+874756427+872980645
1408+871396241+870501424+869983672+869349342+868806282+868635719+868483875
1398+868015240+867504077+867114209+866450303+865323678+864044534+862626125
1388+860504651+857572219+855202314+855286023+858332263+863104344+868054025
1378+872737830+877430095+881861125+885253732+887565909+889641710+891957182
1368+894165060+895888579+897215717+898215806+898731537+898898431+899125373
1358+899466798+899745553+900111536+900862819+901874589+902702618+903266193
1348+904139596+905908564+908354690+910583458+912044770+913192211+914899108
1338+917296642+919605525+921339677+923101981+925638330+928480315+930435494
1328+931377481+932408493+934204191+936321098+938199531+939786481+941066224
1318+942040107+943229926+945138834+947110710+947856827+947287636+946718895
1308+947188803+948489810+949806241+950724568+951493222+952298714+952444119
1298+951115409+948959718+947527232+947161399+946734244+945424028+943615901
1288+942042203+940860021+939660618+937975509+935705785+933132822+930647986
1278+928578399+926818865+924769645+922225359+919825804+918149005+917210312
1268+917101371+917922287+918818601+918414732+916620232+914691783+913206512
1258+911319543+908162639+903952411+899683033+896232250+893710052+891564693
1248+889272507+886591501+883398808+880139403+878088460+878086289+879313096
1238+880175717+880057715+879503874+879119173+878949209+878822672+879001396
1228+880260623+883022343+886468783+889040848+889965988+889885124+889887146
1218+890471611+891629833+893359343+895640597+898118620+900274162+901978738
1208+903661377+905904446+908912575+912307877+915485370+918226574+920778348
1198+923309531+925549156+927097995+928024258+928908668+930453613+933073672
1188+936473166+939686300+942037711+943927451+946132633+948712410+951223901
1178+953451321+955398564+957129271+958879072+961053182+963535922+965379164
1168+966061190+966352299+967278638+968929530+970693781+972342651+974358179
1158+977210645+980706203+984022288+986290664+987169757+986892425+986116208
1148+986016102+987962296+992108881+996360215+997926724+996271190+993620808
1138+992377004+993252728+995917711+999628456+1002795841+1003573181+1001945350
1128+1000003798+999492335+1000634984+1003483931+1008537013+1015149043
1120+1020844617+1023610155+1023922753+1023701126+1024117799+1024862868
1111+1025102464+1024869382+1025298783+1027206268+1029551165+1030277141
1103+1028942965+1027436280+1027731882+1029901125+1032557872+1034573025
1094+1035962832+1037269679+1038462418+1039167729+1040616238+1044829161
1085+1050649250+1053883498+1053240482+1052017194+1052302688+1052642166
1077+1051981779+1051698681+1052894266+1054406641+1054739605+1054516781
1068+1055492461+1057856376+1060257803+1061991580+1063650259+1065891531
1060+1068701170+1071413847+1072423670+1070003001+1064820986+1060899546
1051+1062052677+1067368342+1071550567+1070717147+1066716341+1063598746
1043+1062450107+1061830003+1060854547+1059768578+1058825243+1058300752
1034+1058697284+1060174244+1062408178+1065164656+1068447348+1071622895
1025+1073463517+1073318112+1071709823+1069937636+1069357514+1070625576
1017+1072853970+1073741823+1071239092+1065665787+1059840082+1056236332
1008+1054981522+1055301383+1057480360+1061904876+1066441180+1066624995
1000+1060316055+1051438719+1046350671+1047141039+1050324672+1051502811
991+1049652306+1046250790+1042890679+1041157201+1042215542+1044802356
983+1045272414+1041422404+1034913850+1028809465+1024579471+1022074493
974+1020760009+1020073491+1019492770+1018365695+1015700413+1011107131
965+1005599490+1000271621+995159464+990440693+987158152+985528898+984100980
955+981611127+978460214+975672588+973316909+970863969+968462766+966782748
945+965677836+964164936+961994944+959927005+958434022+957492035+957175019
935+957332254+957515545+957893134+959048736+960619064+961562249+961805139
925+962159816+962619017+962170374+960534232+958889928+958234109+957896278
915+956557535+954226265+952261951+951786877+952653990+953865373+954688610
905+955094501+955205689+954775015+953436871+951235506+948819254+947120069
895+946550429+946330075+945088144+942598665+940411977+940348334+942915007
885+947036210+950620493+951683476+949681501+945961771+942712474+941372757
875+941686328+942094690+941228026+939147882+937107048+936120810+935948600
865+935604855+934709814+933869505+933692803+934013113+934307592+934543070
855+935297648+936961268+938851083+939326981+937330920+933913681+931443969
845+931174348+932424516+934101240+935593025+935940589+934174541+931098801
835+928922370+928895864+930745771+933885004+937711429+940876044+941849928
825+940930852+939801531+939122425+938495807+938113276+938362007+938596811
815+938194589+937923546+938865234+941018454+943925579+947371570+950714609
805+952997661+954018116+953932610+952416041+949612917+947069304+946386231
795+947470553+948689573+948624657+947616482+947216506+948228725+949837463
785+950642880+950522408+950273453+949478368+946993457+943307046+940638395
776+940591674+942646660+944976807+946012386+945337324+944123096+944641222
766+947908565+951731920+952773264+950747554+948853996+949688165+952126879
756+953194729+952355019+951818174+952780452+953840964+953529265+952030666
746+949889425+947662679+946690742+948288549+952386391+957765099+963008361
736+966719405+967824617+966609341+964371887+961596466+957879207+954364033
726+954016469+957715159+962136905+962881300+958739956+952425700+948193684
716+948764971+953055763+956936247+957492933+955123777+951031850+945977944
706+941405477+938715262+937610798+937350537+938181636+939598922+939397437
696+935959832+929965062+923321661+917598234+913816508+912294848+911643222
686+909377391+904818027+899737991+895608701+892471490+890532259+890451844
676+891793133+892754213+891036234+884288534+872312472+862332620+864866049
666+876623629+886396680+889715835+887978239+884287785+881199391+879432220
656+877746511+875316333+873625383+873926002+874297076+871945291+867496814
646+864372256+864502836+866234218+866176565+862525869+856996065+853671969
636+855202763+859570975+861540530+858790940+854308321+851001745+848103980
626+844564696+842309048+843387530+846543535+849345761+851991127+855811712
616+858656691+855745074+846997420+838832883+835816742+835313590+832068036
606+826381148+823012352+823515653+825227418+826075064
##END=
