##TITLE=<SNM>
##JCAMP-DX=4.24
##DATA TYPE=INFRARED SPECTRUM
##DATE=2/5/2025
##SAMPLING PROCEDURE=Instrument type and / or accessory
##ORIGIN=Admin
##XUNITS=1/CM
##YUNITS=ABSORBANCE
##RESOLUTION=4
##FIRSTX=4497.3318
##LASTX=599.83466
##DELTAX=-1.4281778
##MAXY=1.789767
##MINY=0.23289667
##XFACTOR=1
##YFACTOR=1.6668504e-09
##NPOINTS=2730
##FIRSTY=0.25278458
##XYDATA=(X++(Y..Y))
4497+151654026+151994826+152599115+152891819+152437467+151494864+150842390
4487+150880026+151236274+151488248+151716282+152021717+152072601+151488481
4477+150428660+149703194+150207331+151936593+153716954+154390096+154000700
4467+153277853+152544725+151840687+151495668+151755653+152149107+151943101
4457+151158337+150530626+150466064+150570480+150338083+149838738+149436540
4447+149253231+149249065+149371119+149361974+148952258+148476048+148706326
4437+149837298+151125099+151676554+151229122+150205650+149322746+149009758
4427+149072032+149032268+148637848+147887181+146938490+146192945+146110976
4417+146836103+148139227+149555179+150532575+150781296+150427891+149632418
4407+148413015+147098654+146446081+146894909+147951046+148553708+148033184
4397+146672578+145315431+144512216+144204145+144141540+144219834+144286623
4387+144040647+143426050+142855008+142793530+143298034+144001643+144373660
4377+144139055+143603665+143298865+143288155+143267263+143245388+143542901
4367+144165901+144642405+144500407+143735874+142771959+142013040+141618861
4357+141700418+142299477+143080656+143546298+143566019+143332595+143061704
4347+142911087+142714262+141945446+140613921+139722596+140069895+141185303
4337+142061207+142358363+142427404+142588551+142692431+142300067+141346352
4327+140427948+140088454+140191100+140447839+140994315+141887723+142625329
4317+142711472+142295052+141932833+142032037+142616148+143331030+143615197
4307+143109817+142051185+141178330+141145736+141999487+143192000+143988957
4297+143907195+143082998+142209579+141808946+141777317+141901454+142279604
4287+142829128+142973638+142326663+141375468+141089416+141869441+143057475
4277+143614276+143212525+142483054+142278102+142823353+143505292+143608295
4267+143239818+143108440+143462650+143830206+143823251+143725119+144124769
4257+145053096+145674477+145196730+143908920+142800977+142493728+142975793
4247+143891577+144795838+145524576+146251607+146933171+147150504+146715283
4237+145896683+145032928+144418752+144393041+145019143+145778339+146010351
4227+145694171+145435465+145596308+145904460+146071606+146143660+146090031
4217+145818237+145681727+146181046+147157852+147882800+147865949+147202551
4207+146345921+145814679+145935240+146638276+147445237+147775220+147497070
4197+147137550+147253159+147700770+147826918+147247553+146213086+145319124
4187+145020117+145369883+146118870+146934619+147507708+147677670+147627527
4177+147752540+148214517+148856084+149555644+150307402+150919575+151019754
4167+150492811+149650726+148917876+148582440+148764452+149282831+149633053
4157+149444443+148886497+148409010+148275575+148508509+148978889+149382499
4147+149428575+149142683+148755656+148357794+147918219+147520510+147301531
4137+147286361+147483419+147918908+148416581+148704896+148837061+149093246
4127+149420556+149441859+149101283+148804592+148798379+148812727+148499336
4117+147970561+147695764+147984892+148697199+149374507+149618678+149375553
4107+148877504+148406596+148276022+148884960+150271357+151615246+151872763
4097+151050757+150217307+150139228+150495225+150518933+149981943+149422871
4087+149539651+150400446+151328424+151595382+151048790+150071715+149235522
4077+148969181+149238659+149540348+149419644+148922667+148418754+148195064
4067+148325075+148656398+148854574+148724161+148488484+148529705+148910071
4057+149328638+149460489+149223158+148836346+148681590+149006871+149720903
4047+150471374+150865991+150717270+150269855+150063169+150307688+150535883
4037+150151636+149213709+148446181+148521578+149389633+150296478+150559269
4027+150263311+150016790+150186966+150601250+150864721+150826602+150715768
4017+150756461+150797781+150609010+150316038+150215180+150420793+150872463
4007+151365935+151594416+151523828+151560445+152041599+152764499+153205477
3997+153105871+152780197+152744939+153013613+153083182+152714705+152278912
3987+152195648+152466485+152830027+153046529+153047352+153041416+153425645
3977+154369481+155479436+156096491+156002391+155597762+155318503+155177685
3967+155007294+154907080+155208116+156025509+157021715+157655075+157603064
3957+157014456+156469652+156612902+157789761+159982672+162575725+164156051
3947+163733507+162334818+161809770+162206139+161886223+160228550+158531793
3937+158222908+159669979+162343418+165050219+166284435+165528619+164160718
3927+164020025+165283778+166412148+166444832+166477194+167883106+170083634
3917+170908733+169070389+165640043+162577209+160789964+160272533+161483078
3907+165587263+172840247+181000594+186450296+187613460+185346921+180545438
3897+174486710+169959712+169413620+172389740+175161122+174758906+173533558
3887+175253058+179220841+181769302+182470283+183422434+183411474+180314096
3878+176787076+176768321+180363533+185389581+190401058+193635767+192977465
3868+190173668+189069667+189709160+188767719+184966411+180988597+180048497
3858+183993663+193631941+206960425+214540477+208014613+195078226+184982950
3848+180182682+180319067+184196541+190078048+196268280+201581400+204654158
3838+203994032+200306401+196375163+193573905+191266512+189157866+188178485
3828+188655776+189905512+192539115+198233371+205320899+208194212+205981759
3818+203411931+201136686+196281117+189861690+185974685+186941587+192389697
3808+199130757+203300686+205719396+209812621+214325048+214711529+211661640
3798+208998607+206730012+203572471+200974895+200998871+203544740+207404925
3788+212068307+217477941+223202985+229247482+236747077+246116716+255368370
3778+262585130+269264471+278486873+291717807+308146081+324595149+336678993
3768+342653509+344132459+343303032+342530033+344087867+348167844+352630977
3758+356009079+359919810+367319101+379817818+395752889+409408405+417204762
3748+423506329+433088054+444281645+450843286+452738111+456638042+466983219
3738+484680235+506955420+526613058+537112606+539680091+540783895+545055610
3728+553476603+564466476+574991127+582560130+586327646+586555608+584360981
3718+581391888+579527029+580351234+582661613+580879392+571500849+559763688
3708+552163002+550238783+552712151+556924579+558984967+556908058+553132961
3698+551236813+552837807+558118495+567182647+579480792+590711465+592972712
3688+585219443+576184685+572009661+572742181+576295895+581312611+588308292
3678+597832589+606055764+606805913+602743065+600591241+598440310+589706499
3668+575848874+564180513+557917852+555724476+555330413+556623024+561014854
3658+567186115+570230695+568970195+569325853+576273010+587642105+593749394
3648+587270714+573762345+562399007+556758908+555412838+555278349+555005580
3638+555398749+557011329+559395729+562975011+569485230+578470820+583830892
3628+579956278+572022535+567700578+569032916+575057710+583549613+590609624
3618+593659818+594793516+596622939+598521411+599459580+600534312+601965381
3608+601459680+598758421+597542227+600421529+605888127+610889502+614518738
3598+617348264+618679852+617365285+614715412+614512874+619557445+628412265
3588+635116977+634875890+629950253+625003660+621632460+619602287+618913858
3578+619488002+620375036+620263611+618912070+618131740+620843906+627908709
3568+635382808+637152298+632239248+624874142+618379764+613693281+611210544
3558+611189733+613011002+615208669+616092127+614913873+613384539+614417183
3548+618020030+620126941+617337179+611219198+605430986+601576325+599473526
3538+598699705+598524451+597847822+596530252+595768517+596365582+597902283
3528+600078530+603049733+605770552+606055049+603270436+599271668+595852479
3518+592817196+589253828+585804851+584541313+586335620+589161248+590053681
3508+588556852+586593334+585317637+583971638+581683966+578941799+576782716
3498+575666039+575561838+575918103+575783149+575274194+575448196+576102118
3488+575644369+573724977+571975226+571076463+569618861+566885669+564279529
3478+563098200+562941612+562668772+561853864+561054010+560972086+561524739
3468+561873066+561486656+560772552+560310798+560168657+560511655+561666881
3458+562734747+561603838+557536591+552610596+549675260+549753321+551464739
3448+552234484+550513232+547269047+544706854+543721162+543434018+543006307
3438+542738187+543028155+543301603+542611994+540811894+538709846+537352404
3428+537316824+538229855+538758084+537677166+535243634+532896995+531635173
3418+531329757+531184612+530316959+528418772+526202046+524746518+524339725
3408+524528782+525116086+526336606+527947650+528879561+528377757+526957165
3398+525399510+523482121+520823093+518208264+516789817+516579985+516656795
3388+516309147+515463236+514599088+514406169+514986249+515588678+515521523
3378+514897531+514226087+513708621+513279264+513058740+513284342+513816791
3368+514172413+514191437+514243001+514646861+515254440+515601551+515215463
3358+513926571+512179895+510859463+510554405+511158407+512131477+512850838
3348+512840253+512002674+510673982+509414341+508743720+508841878+509282820
3338+509307673+508595392+507502137+506495848+505741372+505242250+505034991
3328+505113875+505279546+505176668+504579138+503580715+502384367+501151402
3318+500269267+500214699+500781155+501093366+500827069+500673557+501011263
3308+501005077+499838659+498032695+496694384+496206598+496258984+496458233
3298+496508045+496339406+496166298+496115305+496168157+496560539+497523381
3288+498611058+499045457+498757598+498527990+499077425+500322619+501508883
3278+501938919+501529838+500742393+500096624+499771397+499720762+499951908
3268+500292368+500231685+499615095+499047924+498976371+499003404+498692302
3258+498222610+497735253+496936650+495748777+494511056+493316210+491972286
3248+490765532+490381339+490774543+490973613+490427396+489673993+489306214
3238+489213741+489146479+489094485+488887370+488220361+487203486+486282088
3228+485499720+484293146+482315789+480238450+479154063+479206343+479426009
3218+478969548+477883766+476608212+475423236+474471693+473765241+473046989
3208+472100953+471317834+471288262+471682002+471360209+469963719+468550565
3198+468115487+468294210+468122174+467407426+466663070+466123147+465409115
3188+464025998+461975836+459951135+458828379+458755824+458948707+458623838
3178+457696325+456318787+454525875+452664412+451289699+450421796+449677691
3168+449054664+448729080+448220589+446741782+444383486+442144375+440779889
3158+440181822+439878516+439651626+439495467+439311166+438881023+438040332
3148+436807224+435431725+434293950+433543729+432846324+431764727+430374065
3138+429210794+428700623+428784227+428896724+428305237+426843130+425229440
3128+424270603+424021507+424053690+424086266+424002018+423723278+423341660
3118+422998518+422581212+421827523+420676875+419352975+418138497+417130134
3108+416280682+415611241+415147270+414713337+414137834+413595801+413367767
3098+413367624+413257308+412925823+412521355+412046478+411329620+410459429
3088+409828786+409662507+409821634+409994528+409808475+409008585+407766466
3078+406535611+405548488+404731005+403980319+403267074+402574961+401870726
3068+401100266+400309066+399698341+399314362+398867520+398147551+397398261
3058+396965793+396718449+396160647+395155931+394152502+393473835+392818268
3048+391848738+390840410+390274598+390168967+390156773+389928667+389402726
3038+388656117+387855441+387211138+386841427+386627876+386331935+385845937
3028+385169415+384286673+383307774+382480315+381766747+380772436+379393218
3018+378103682+377332972+376951997+376570665+375998237+375282596+374611116
3008+374283637+374455744+374736129+374365846+373064689+371425396+370250003
2998+369791611+369765578+369729819+369330000+368528858+367661242+367014436
2988+366446585+365624668+364508313+363438587+362831295+362794749+362985236
2978+362937749+362495448+361748374+360737543+359496282+358223017+357182792
2968+356539240+356303768+356255315+355992594+355317575+354515826+354035477
2958+353912574+353736605+353165858+352248930+351314158+350765688+350778347
2948+350953315+350589719+349505654+348199598+347107916+346226211+345547829
2938+345302059+345519508+345728447+345393995+344544973+343684365+343086191
2928+342488017+341607813+340664065+340058883+339731332+339258922+338553757
2918+337984655+337765775+337700837+337579651+337360556+336921938+336090724
2908+335029580+334252469+334064914+334182811+334128100+333832767+333543121
2898+333308364+332930965+332289666+331430452+330459743+329493038+328630392
2888+327959985+327534026+327215951+326747689+326193999+325971042+326177335
2878+326325734+326033585+325550411+325251932+325002192+324435665+323619970
2868+322973879+322636852+322358148+321946671+321419049+320752182+319864969
2858+318869193+318111928+317917328+318285323+318791167+318861791+318281854
2848+317378049+316623323+316153201+315760391+315247144+314641890+314106079
2838+313720956+313384537+312912699+312261173+311620983+311224775+311072120
2828+310924186+310593345+310165276+309831968+309576721+309245844+308879245
2818+308674347+308634976+308520369+308127379+307453182+306652112+305919592
2808+305297031+304584071+303610680+302563446+301835253+301549897+301423025
2798+301125404+300614875+300048598+299538248+299084379+298653735+298268970
2788+298010523+297860425+297628189+297195400+296690432+296222527+295667586
2778+294917830+294078856+293272118+292513262+291848666+291338298+290905509
2768+290428235+289914381+289422804+288939738+288454437+288012886+287624420
2758+287219505+286713446+286049493+285245957+284438254+283761160+283170924
2748+282526961+281856465+281351210+281056576+280749872+280217602+279489051
2738+278710295+277976076+277369821+276957110+276669216+276366696+276009554
2728+275633568+275257135+274907002+274594917+274240707+273767242+273253263
2718+272870679+272680495+272534260+272203973+271629293+270950214+270269795
2708+269562789+268843482+268218936+267777046+267559185+267526251+267471773
2698+267157453+266586205+265990945+265569885+265327672+265119234+264797083
2688+264340943+263854819+263467301+263252658+263182321+263122693+262910214
2678+262435408+261713312+260939294+260372838+260083960+259917377+259720489
2668+259478706+259236672+258999269+258735047+258450889+258201614+257975511
2658+257685739+257347175+257062874+256778287+256321039+255723187+255233702
2648+254981924+254820437+254531917+254113788+253777244+253637016+253551141
2638+253353037+253054433+252734910+252433069+252197186+252050682+251909881
2628+251667883+251325117+250954995+250583514+250177938+249769464+249501130
2618+249446973+249462081+249343094+249052732+248690656+248369148+248192052
2608+248220159+248390675+248548085+248579410+248510378+248480877+248586615
2598+248724323+248686633+248441202+248173654+247993573+247784831+247469616
2588+247225097+247233697+247377180+247398117+247234323+246996509+246755369
2578+246531322+246378811+246334792+246345269+246314838+246182477+245940264
2568+245654766+245471537+245516450+245780690+246168871+246618735+247070315
2558+247393915+247502604+247474873+247421038+247296758+246991789+246558606
2548+246209797+246067673+246016073+245861076+245557537+245178368+244758649
2538+244316348+243947835+243746888+243671133+243586277+243407537+243154042
2528+242913278+242782848+242802873+242901585+242917426+242727851+242375912
2518+242033968+241843821+241824350+241886910+241888823+241743034+241534149
2508+241442731+241517306+241611370+241586321+241479116+241402181+241351028
2498+241223190+241004775+240809979+240714377+240675990+240641090+240609193
2488+240574685+240500540+240360329+240149191+239871863+239565106+239291730
2478+239076569+238886171+238690051+238479450+238221003+237890412+237549148
2468+237281350+237074646+236861934+236626802+236375381+236082356+235749798
2458+235452517+235265820+235170112+235048514+234810485+234525880+234347462
2448+234292268+234236180+234122860+234014064+233943208+233875087+233792145
2438+233701246+233593665+233477109+233379988+233261823+233012834+232634291
2428+232326604+232277686+232434185+232596279+232652331+232612031+232498783
2418+232323243+232124227+231983069+231988504+232157429+232398050+232608026
2408+232770354+232882154+232873911+232721114+232573054+232637098+232950095
2398+233365953+233751022+234090838+234440596+234936910+235907316+237832715
2388+241105973+245868264+252127081+259988806+269706003+281470055+295181355
2378+310442407+326749477+343639523+360694596+377538299+393795807+408864620
2368+421743597+431341378+437160736+439708232+439984684+438377395+434212384
2358+426558454+415328603+401300945+385674294+370694486+359649759+355049062
2348+357644474+366649374+379448072+391793062+400305419+404372558+405175630
2338+404226448+402543815+400550975+398528705+396685265+394693390+391733058
2328+387413032+382273914+377028700+371738179+366037754+359752351+352952413
2318+345789237+338607038+331902183+325877104+320215263+314498676+308670735
2308+302890604+297169260+291431933+285797143+280547977+275864928+271697449
2298+267876956+264306060+261028422+258102437+255465169+252990889+250623439
2288+248377891+246302501+244515310+243156188+242193900+241384409+240520314
2278+239635068+238901493+238420698+238126117+237819359+237339261+236729823
2268+236154374+235700862+235417885+235389278+235545311+235571183+235241200
2258+234699793+234230173+233903820+233616944+233327923+233077021+232847146
2248+232569013+232243733+231960773+231818560+231854981+231991812+232065958
2238+232008637+231938978+231986770+232102003+232144306+232111050+232172054
2228+232461022+232902125+233302052+233566757+233766094+234038595+234465984
2218+234986007+235445848+235812180+236270250+237034292+238115174+239311987
2208+240380783+241198677+241830268+242475089+243314439+244369253+245517756
2198+246633539+247651754+248557222+249410410+250325657+251335290+252333409
2188+253182628+253832170+254360095+254905668+255512031+256092200+256572030
2178+256936949+257145942+257150680+256983901+256742564+256495274+256205681
2168+255765150+255154567+254496104+253881106+253263604+252551681+251710329
2158+250800678+249968605+249347993+248976923+248824215+248865963+249129953
2148+249612912+250223620+251128265+253068432+256761337+262033210+268116719
2138+274612456+281565764+288910845+296442301+304133045+312131369+320535126
2128+329271441+338201783+347284100+356489070+365675052+374692539+383341709
2118+391203756+397890803+403303798+407404300+410189199+412000849+413400737
2108+414808491+416474102+418514216+420848410+423202772+425174908+426450641
2098+427016489+426953446+426177229+424592790+422206745+418998998+414858482
2088+409525658+402667434+394187510+384201388+372839587+360533288+348065252
2078+335981552+324477825+313819401+304309264+296077507+289194055+283646463
2068+279198224+275518800+272297786+269292256+266541328+264261326+262432565
2058+260897849+259668585+258722245+257916831+257329528+257208538+257648389
2048+258667784+260361860+262875653+266451698+271300901+277370447+284634445
2038+293396953+303814183+315445784+327540713+339348319+350189506+359710477
2028+367966086+375120429+381273418+386423085+390452534+393300655+394928648
2018+395029344+393246444+389701777+384879876+379165792+372758343+365760087
2008+358189546+350043074+341443680+332734935+324347948+316501671+309127590
1998+302213331+296126801+291339371+287708096+284300546+280306552+275920604
1988+271886470+268593367+265998616+263946058+262249498+260755064+259446648
1978+258367285+257506534+256800386+256163879+255641210+255530321+256023400
1968+256662518+256589838+255558195+254263457+253460975+253225592+253264891
1958+253477102+253837784+254106619+254074078+253909015+253989687+254492135
1948+255339119+256542708+258216329+259888073+260348397+259065798+257138504
1938+255938741+255709384+255911439+256108292+256221593+256381257+256707395
1928+257301654+258501363+260546322+262790082+264266422+265194989+266392356
1918+267371398+266920675+265405966+264512925+265119234+266641166+267904938
1908+268254641+268011070+267912501+268239605+268721115+269131841+269649880
1898+270570205+271736802+272544862+272916522+273688323+275144012+275992104
1888+275088264+273260557+271934548+271323948+270905766+270460050+270083223
1878+269887765+269928709+270256064+271327077+274114550+278824330+283270709
1868+283992144+280437733+275686813+272477403+271238735+271116296+271247603
1858+271199686+270974387+270816780+270913508+271389208+272448921+274354456
1848+277482354+281973611+286327733+287307007+283998205+279693287+277403881
1838+277212375+277635741+277985588+279362751+283065221+288052114+291127392
1828+291080906+289948316+288866039+286896799+284051039+281973128+281560203
1818+282122815+282750883+283559873+285291603+287919449+290107979+290541055
1808+289541112+288703837+289485597+292369404+296446073+299649404+300465975
1798+299723354+299901379+302876765+308118690+311931584+310614335+305817644
1788+302196167+301807254+303560081+305761288+307834014+309536027+310424885
1778+311092896+313449547+318994349+326829219+332849292+333231482+329213261
1768+324281222+320615047+319772032+322317383+326174796+328226138+328535059
1758+329173390+330254809+331356432+334218462+340603454+348750821+354017777
1748+354354553+352219965+350625371+350901000+352972009+355558232+357048339
1738+358265748+362455970+370405840+376371810+374270084+367473830+361154384
1728+356663931+354443664+354677956+356549324+359898247+366474370+377464815
1718+389481217+394634638+390170433+381966174+375496684+372803578+374387194
1708+379733570+386519061+391719899+395683731+401884279+410951899+417803723
1698+418797140+415558568+408947330+401040049+396470819+397079828+401245984
1688+407868522+418359702+431853981+439221268+434138899+424812385+419431573
1678+419908167+424752167+430378428+434231479+437881599+442787247+445657824
1668+443185565+439232532+439278518+443494808+447549181+448347319+448311166
1658+451942656+462149839+479639347+498767181+505022047+499721692+498294306
1648+503875511+508838910+505994795+499522873+496521883+499050034+506884868
1638+519377542+533027086+539598954+536213843+531301114+531612180+537451921
1628+546039479+555209727+564816877+574089253+580815742+585706586+592968778
1618+604557469+616055939+621105374+621450876+622629345+626050036+629904481
1608+632467461+633761001+634951771+636908995+639541847+642530214+646368425
1598+651985138+659327287+666965233+673542143+679213424+684868185+690504708
1588+695383788+699294232+702769062+706335149+710218559+714891739+721486886
1578+730615332+739701654+744096273+745290118+749746528+760149205+773123157
1568+783155516+790060048+797801766+808998718+825214424+848882416+878404560
1558+898024294+898618177+893136704+889246427+886752892+884424991+881657829
1548+879494705+880460980+885808429+894408574+903672761+907130283+896156609
1538+877102223+863949119+859370271+858130154+854548119+848950859+845719261
1528+846581764+849746136+853281398+856888536+859402954+858968484+857285101
1518+856783548+855507028+851124281+846215522+845575224+851656015+863785344
1508+876942381+879225512+865403145+848919892+839462536+836979298+838815587
1498+841763117+842507258+840577568+839655061+843041996+849600382+853687261
1488+850740374+842993221+835610378+831293928+829866650+830057602+831400204
1478+834554849+840051055+847237653+853290910+853293127+846026143+837462973
1468+833226908+833703717+835311077+834763323+833724028+836474312+844612310
1458+854108071+855812695+847622346+838138672+832749814+831318602+831649872
1448+831113418+828318006+824268746+820961839+819667441+821077484+825518303
1438+831472651+834343371+831095467+825562215+822409572+821668220+820829818
1428+818982373+817446101+816931961+817041168+818357952+822043115+826223682
1418+825855223+819936848+813089816+808610306+806314159+804772738+803516101
1408+803234965+804030098+804507050+803821553+803500009+805314270+808759563
1398+811872370+813384755+812709342+809589740+805585179+803419766+803849087
1388+804612324+803116889+800301023+799570398+802416373+807506859+813101044
1378+818989096+825693021+832283876+836350515+837172682+836943254+837484285
1368+838620629+840225057+842969477+846274667+847911921+846878777+844796611
1358+843458658+843001445+842679759+842211604+841872825+841661204+841256700
1348+840761654+840611467+840980356+842106616+844633408+848620519+852573301
1338+854590672+854587597+854172222+854583163+855925264+857930906+860391186
1328+862956025+865366242+867919924+871148733+875165381+879631589+884057175
1318+887996870+891246420+893997133+896777025+900102026+903931369+907618606
1308+910660826+913218727+915795224+918753195+921957116+924627372+926006090
1298+926190677+925816854+925312297+924918520+924777345+924640746+924085625
1288+923041896+921545818+919305240+916178630+912832961+910370464+909274956
1278+908986311+908620068+907929279+907455117+907915905+909470771+911429355
1268+912846335+913508302+914045972+915127177+916900458+918980693+920584549
1258+921198528+921605821+923486307+927270022+930983721+932275617+931375566
1248+930593234+931013329+931194126+929380437+925954526+922937838+921626204
1238+921350360+920478130+918334817+915632735+913169023+911136561+909663941
1228+908847995+908140685+906687374+904521747+902857245+902805037+904046226
1218+905129433+905112340+904428989+904015831+904367198+905676973+908082255
1208+911309277+914442180+916488731+917288513+917676210+918570396+920205505
1198+922577890+925932355+929970101+933432129+935562283+937073524+938829927
1188+940718995+942383927+943807272+944840130+945462906+946633078+949533693
1178+953684508+956842944+957410436+956352404+955898266+956914604+958652341
1168+960315556+961970833+964262046+967550858+971040635+973116722+973026610
1158+971674353+970574769+970896956+973495051+978375632+983812836+987356466
1148+988501321+989469670+992480279+996864170+999748407+999852322+999308645
1138+1000582446+1003062465+1004066860+1002575716+1000399290+999841380
1130+1001673806+1005249762+1009590242+1013718672+1016283368+1016482116
1121+1015234990+1014073829+1013662030+1014409676+1017064055+1021262144
1113+1025014462+1027098774+1028496015+1030248484+1031663819+1031401635
1104+1029524940+1028268016+1030077342+1034336149+1037558450+1038130663
1095+1038346646+1040064287+1042184500+1043862091+1046227681+1049632638
1087+1052714407+1054983091+1056809295+1056862361+1053836019+1049526220
1078+1046965887+1046993492+1048300121+1050005102+1052471032+1055625034
1070+1058210613+1059235390+1059330294+1060432667+1063655469+1067755936
1061+1070320131+1069876292+1066599495+1061938401+1058287780+1057693325
1053+1059748458+1061863522+1061973874+1060387754+1058792338+1058256670
1044+1058844045+1060750563+1064264585+1068690028+1072323484+1073741823
1035+1072773187+1070398729+1068249837+1067460711+1067283561+1065988519
1027+1063725342+1062818998+1064480568+1066989266+1068040790+1067381469
1018+1066224599+1065502556+1065277419+1064958378+1064196786+1063755308
1010+1064300773+1064844379+1064236550+1063562710+1064901879+1067588012
1001+1068088421+1064521906+1058966340+1054175585+1050595481+1047764096
993+1046522477+1047929015+1051166979+1054403726+1056683782+1057581329
984+1056688788+1054854288+1053686547+1052698530+1049526935+1043673498
975+1037313931+1032376636+1028972108+1026344405+1023627949+1020333629
967+1016981524+1014559434+1013217834+1011741137+1008988421+1005636888
958+1003249913+1002077667+1000863797+998454223+994963230+991481678+988791969
948+986384827+983154444+979218397+976159514+974947074+974646628+974038227
938+973296446+973132170+973308747+973074312+972477926+972085938+971840632
928+971314834+970762789+971097563+972816634+975182010+976720212+976735088
918+975808934+974674020+973688291+973410159+974043806+974327016+972714864
908+969790220+967727006+967505444+967936696+967355543+965602502+963966320
898+963414203+963588420+963540074+962593895+960660343+958358117+956593561
888+955641733+954991851+953991891+952272963+950133726+948730263+948951825
878+950024090+950138661+948514494+946147330+944419177+943897384+944731781
868+947057751+950302007+952533431+951710048+947933270+943680542+941800557
858+943695346+948383045+952810705+954375583+953353882+951888055+951266280
848+951164654+950727037+949531118+948350075+948731622+951033562+953534750
838+953955560+951887984+948883597+946449421+945048962+944376838+943772729
828+942899998+942451654+943379310+945226254+946511212+947129197+948496186
818+951170375+954100097+956124835+957465934+959381822+961947876+963116690
808+961951381+961218038+963200508+965191203+963090300+957562125+952703500
798+951010176+952459839+955864653+959582858+962465164+964405295+965417771
788+964895335+962783775+960360112+958762550+957911203+957648161+958673081
778+961667598+965929123+969007530+968541449+964768462+960770123+959594015
768+961065992+962366326+962010097+961717303+963089728+964779834+965015556
758+964532025+965132845+966988228+969049440+970980274+973060080+974723581
748+974514964+971801798+967871400+964743860+963412487+963662012+964682140
738+965380582+965144288+964647454+965392454+968194088+971798651+973527591
728+972067772+969054446+966940741+966647876+968198594+970875358+971661981
718+967697541+961092167+956748612+956366922+958040150+960220223+963386240
708+967713704+971268633+971553703+968194875+963201438+958685668+955516219
698+954266805+955183519+956976539+958041294+958635892+959665675+959348995
688+954294053+945107034+936987917+933870175+935425112+939770956+945100025
678+947881062+943668456+931679159+917056438+907101104+905112054+909414272
668+915993685+920910455+923103688+923313950+921888459+919924583+919261400
658+919679206+918545722+914348850+908849068+904792728+902875267+901854424
648+900716363+899640236+898755491+897653761+896557752+896507118+898071424
638+900804401+904536623+908433693+907562322+896334474+878358360+864729592
628+861424402+864306136+866170244+865470658+865150402+866709058+869739191
618+874087467+878662954+879990394+876540881+872996393+875022131+881259976
608+883853064+878758001+871393896+867891246+867032819+865006079+862437664
##END=
