##TITLE=<SNM>
##JCAMP-DX=4.24
##DATA TYPE=INFRARED SPECTRUM
##DATE=3/5/2025
##SAMPLING PROCEDURE=Instrument type and / or accessory
##ORIGIN=Admin
##XUNITS=1/CM
##YUNITS=ABSORBANCE
##RESOLUTION=4
##FIRSTX=4497.3318
##LASTX=599.83466
##DELTAX=-1.4281778
##MAXY=1.7596561
##MINY=0.19954225
##XFACTOR=1
##YFACTOR=1.6388074e-09
##NPOINTS=2730
##FIRSTY=0.21885805
##XYDATA=(X++(Y..Y))
4497+133547142+134346853+135625357+136616751+136600293+135550634+134195796
4487+133441303+133709447+134699231+135673685+136028891+135665093+134934668
4477+134377695+134372449+134789758+135097463+134994525+134702695+134512458
4467+134454920+134554812+134931095+135499978+135995375+136339615+136622380
4457+136780892+136639756+136145250+135378300+134614187+134338361+134719080
4447+135221833+135268588+134916037+134384388+133566337+132548884+131904330
4437+131987156+132514277+133016484+133160712+132745404+131956304+131454624
4427+131671203+132137821+131981982+131019939+129955686+129516400+129723231
4417+130063680+130174820+130220410+130583027+131306186+131955995+132003577
4407+131318780+130321430+129594388+129344112+129414171+129676777+129984573
4397+129962396+129470264+129039334+129202921+129689170+129825924+129444204
4387+128949517+128686574+128505430+127986292+127032888+126036793+125333483
4377+124833640+124394254+124205135+124482316+124952808+125071850+124818818
4367+124811963+125402633+126099905+126193387+125563782+124635419+123917233
4357+123723550+124012124+124479689+124997735+125752046+126769391+127586587
4347+127677223+127060384+126207508+125466254+124885131+124441136+124023900
4337+123421745+122773128+122688484+123457307+124481525+124938278+124728392
4327+124398718+124360411+124460967+124229140+123427201+122380142+121760648
4317+122007215+122920775+123805993+124107880+123946503+123850629+124015525
4307+124132684+123986347+123810230+123898957+124242342+124739521+125415417
4297+126155171+126575644+126472960+126101960+125755956+125400205+124991734
4287+124801815+125071286+125560463+125796173+125644498+125310469+124905354
4277+124395281+123940129+123952604+124709579+125995057+127181089+127738298
4267+127645689+127181326+126513822+125824051+125563810+126117236+127289829
4257+128381296+128725236+128143977+127073914+126304691+126479525+127661492
4247+129184681+130074027+129961823+129426392+129135307+129048954+128810153
4237+128385916+127917588+127368353+126670353+126025909+125869051+126475606
4227+127640679+128870847+129773078+130091212+129769168+129222652+129026486
4217+129172878+129241037+129217914+129439931+129884636+130168155+130069617
4207+129675431+129247320+129115695+129440194+129981973+130259218+129994712
4197+129437330+129183035+129580895+130359047+130944079+131060656+130872629
4187+130669835+130601849+130670744+130783630+130815508+130776928+130896624
4177+131385838+132144195+132824037+133202511+133448332+133938673+134737675
4167+135413316+135536886+135160458+134613660+134106824+133697335+133355568
4157+132938160+132338224+131719494+131426637+131647316+132291715+133194282
4147+134218783+135045180+135146328+134305472+132979459+131913087+131548024
4137+131845537+132429824+132899925+133178570+133484585+133920524+134285814
4127+134349163+134121791+133777378+133459862+133272625+133320116+133615183
4117+134003277+134305027+134437107+134370349+134162508+133980700+133861104
4107+133615210+133215750+133028459+133395122+134183603+134935404+135326099
4097+135377745+135304095+135229407+135065348+134632273+133912459+133211049
4087+132968711+133323299+133982900+134607049+135067321+135257877+134998890
4077+134324385+133665374+133526857+134026400+134786448+135222170+135020967
4067+134414021+133897356+133690616+133591596+133340829+132953626+132656168
4057+132615369+132763707+132910927+133057601+133410461+133948257+134262137
4047+134103706+133820368+133923589+134459666+135049836+135290483+134948071
4037+134104524+133279808+133076214+133586441+134404446+135131734+135588332
4027+135741271+135733079+135747945+135709010+135435566+135076787+134958564
4017+135090544+135150856+134824756+134054432+133194464+132850088+133288874
4007+134125510+134761916+135001936+135127997+135487967+136034246+136346489
3997+136215464+135923925+135764312+135735761+135920652+136549865+137508389
3987+138352272+138829829+138875784+138369521+137461771+136813162+136996762
3977+137863486+138765953+139207503+139133789+138771691+138335232+137889873
3967+137513754+137498205+138152406+139336674+140379359+140633336+140072763
3957+139265469+138872928+139192946+140027127+140921120+141519082+141698481
3947+141554953+141381655+141463880+141785070+142066743+142086293+141785852
3937+141257131+140869109+141100464+141931917+142631581+142565677+142100605
3927+142157798+142968683+143713638+143676776+143398167+143947384+145354486
3917+146372348+145961123+144550838+143343602+142926584+143029950+143395094
3907+144382105+146396035+148978285+150996334+151816412+151517499+150203506
3897+148211944+146580689+146353472+147435629+148385751+148195550+148064506
3887+149475591+151649380+152633190+152478142+152585090+152718880+151910294
3878+150974584+151343083+153033268+155241754+157456114+158848696+158338723
3868+156574597+155342301+155162630+155240154+154937568+154415993+154216136
3858+155130878+158091075+162987504+166532870+165017083+160432914+156377194
3848+154408355+154781246+156939086+159723739+162140848+163955021+165112665
3838+165226396+164392324+163414697+162558002+161460515+160247060+159590095
3828+159686132+160297670+161753263+164506601+167413351+168306762+167544431
3818+167250756+167383145+166510757+165011573+164509620+165724221+168245314
3808+170783210+172180555+173165202+175139497+177440638+178198168+177880997
3798+178232829+179190816+179856655+180450226+181727839+183816538+186526122
3788+189988872+194420865+199528009+204852322+210782008+218271162+227341262
3778+236938810+246588187+256718766+267463575+278231334+288004443+295916662
3768+301821180+305740509+307643427+308641876+310807536+315239966+321235937
3758+327467737+333832290+341703064+352646330+366729264+381219404+393230697
3748+404000074+416067523+428820597+438617093+445333460+453215182+464746163
3738+479062197+493091411+504498331+514111082+523710485+533093955+540954728
3728+546849334+551244957+554815727+557819587+559381019+558531108+556235059
3718+554537273+554441945+555773514+557298030+556643830+552900044+548362648
3708+544955182+542733002+541758739+542122301+542853608+542986216+543167087
3698+544570525+547219697+550400574+554189132+559298931+564567887+566835131
3688+565911386+565496287+567673804+571490658+575075395+577038361+577538677
3678+578102569+579234717+579521319+578379095+576320111+572735047+567406951
3668+562436526+559403169+557939392+557148438+556340498+555295530+554572480
3658+554903163+556206726+557942011+560156916+563176634+566213336+566998581
3648+564545774+560772055+557661083+555825234+555187218+555672404+557454679
3638+560558922+564191050+567041098+568876184+570931240+573729496+575669002
3628+575427246+574571042+574946861+577078987+581479410+588459029+595985227
3618+600289486+600524150+599268414+598800322+599761383+601735732+603373616
3608+603183543+601688378+601377590+604060587+609489829+615630557+620133037
3598+622492989+623824231+624333494+623057463+620750830+620309144+623436300
3588+628588798+632340658+632747138+630504372+627905028+627623809+630635525
3578+635137059+638331575+638970754+637928732+636844739+636727843+637585974
3568+638643927+638928709+637772338+635093196+631785350+629578446+629492975
3558+630409154+630297205+628504345+625810219+623228696+621908365+622993305
3548+626188765+628960798+628371228+624100648+618966845+616187829+616602092
3538+618459473+619557724+619374852+618866098+618864134+619533501+620790038
3528+622190093+622419083+620215089+616103158+611994864+609141507+607395638
3518+606288440+605870213+606285276+607030694+607096489+606140339+604904133
3508+604073862+603332626+601812656+599309295+596504346+594263581+593115902
3498+593017338+593352312+593676776+594401499+595803264+596676416+595388528
3488+592407437+590013587+589343747+589423799+588841795+587344411+585994838
3478+585766721+585845573+584424968+581640024+579745508+579821814+580524096
3468+580383014+579296220+577570756+575595061+574350636+574692811+576135930
3458+577160930+576743867+575003636+572468559+569632077+567427428+566922930
3448+567829107+568396017+567736761+566930822+566933659+567108675+566551111
3438+565465045+564622516+564356683+564370649+564116999+563424319+562636674
3428+562120573+562071800+562571316+563196201+562993398+561631823+560000486
3418+558983305+558539728+558356928+558358965+558154816+556945962+554704324
3408+552616461+551733634+551804630+551842892+551254740+550060653+548629064
3398+547344922+546233105+545140818+544238569+543749528+543299004+542278041
3388+540811827+539638470+539170161+539203549+539232064+538766118+537682561
3378+536516151+536072392+536488655+537035671+537161296+537327110+538315230
3368+540022800+541554590+542344890+542575517+542521325+542058725+540949308
3358+539233046+537281828+535742327+535330029+536375978+538289661+539665312
3348+539569002+538567025+537809640+537410326+536550994+534993526+533526731
3338+532903409+533062713+533408744+533415400+532925450+532142351+531437595
3328+531061122+530988016+531058576+531155322+531101821+530675592+530017900
3318+529633679+529664922+529708275+529567121+529437968+529262006+528685021
3308+527666422+526570317+525782308+525452389+525419583+525408235+525345859
3298+525367100+525627260+526145434+526550713+526106553+524470961+522234342
3288+520348337+519560583+520415914+522860210+525757613+527645909+528101089
3278+527807650+527521303+527584551+528062317+528589475+528315931+526758572
3268+524715736+523716996+524476999+526198390+527344723+527001201+525539352
3258+523935547+522566480+521079244+519365345+517890111+516897736+516148608
3248+515688627+516016545+517140438+518211920+518453240+517918044+517177245
3238+516682312+516507223+516249645+515233665+513295977+511194330+509797657
3228+509137165+508668528+508149517+507804759+507823344+508035349+508063973
3218+507699284+507110150+506683485+506656825+506863848+506747098+505664741
3208+503494971+500981898+499099421+498113120+497592072+497080481+496294764
3198+495093075+493824136+493151677+493108651+492945273+492209711+491286331
3188+490546150+489740029+488583112+487258817+486003626+484719084+483306372
3178+481966073+480942091+480262031+479854788+479618778+479249288+478338273
3168+476868350+475339578+474135307+473015561+471535162+469695785+467925548
3158+466713056+466380446+466804238+467287496+467081892+466061147+464708956
3148+463537345+462598761+461561795+460265214+458990420+458073223+457554648
3138+457289178+457054842+456553544+455576153+454115431+452323954+450662974
3128+449851107+450071659+450473883+450133962+449237278+448553508+448135171
3118+447479734+446644044+446149547+445926158+445317421+444075796+442600563
3108+441325368+440418682+439896180+439678064+439612524+439509413+439139668
3098+438409053+437520261+436707884+435977887+435336707+434980819+435029010
3088+435273531+435359148+435168165+434952450+434997404+435155362+434886364
3078+433862564+432456398+431495593+431416195+431719927+431429180+430066731
3068+428062740+426290975+425326642+425077975+425001160+424696227+424273636
3058+424100547+424318226+424621631+424427266+423322577+421453630+419476735
3048+418033398+417154899+416306188+415168147+414094119+413523862+413320041
3038+413058426+412617685+412129444+411682812+411259493+410606711+409304674
3028+407418197+405771693+405083449+405154336+405263557+404966445+404223463
3018+403207374+402298723+401916903+402051148+402120289+401523917+400308116
3008+399117375+398459719+398192212+397794825+396976374+395886379+394873382
2998+394155678+393651397+393063755+392169835+391077949+390179701+389768675
2988+389705463+389577037+389186998+388679044+388160833+387539803+386787656
2978+385991355+385113547+384109242+383237508+382785019+382535116+381961295
2968+380874501+379553406+378383214+377597787+377197600+376964500+376655567
2958+376215736+375760119+375391756+375061292+374587345+373835525+372839258
2948+371735369+370695311+369920251+369556834+369586076+369820559+369940437
2938+369578148+368599993+367357095+366432006+366047676+365921579+365753873
2928+365537358+365240282+364617396+363595233+362439953+361374399+360397663
2918+359522946+358904098+358728500+359024303+359463335+359527347+359058310
2908+358362210+357662255+356838604+355755592+354511531+353368362+352597629
2898+352296952+352291279+352283823+352057306+351534476+350785130+349990756
2888+349338083+348921820+348697122+348488936+348132939+347668266+347301067
2878+347133434+347013120+346677345+346008705+345142318+344361111+343895493
2868+343735716+343595470+343161749+342413967+341588242+340909018+340511340
2858+340440490+340501302+340320794+339793164+339242329+338965911+338854035
2848+338587583+338008742+337201784+336370095+335681524+335109121+334445755
2838+333639707+333042790+333046136+333461417+333606973+333145101+332425979
2828+331772614+330950708+329738181+328543911+327958378+328010898+328255382
2818+328308192+328033775+327492942+326925194+326520461+326099288+325324191
2808+324289043+323538314+323381447+323496634+323353842+322788750+321998959
2798+321171888+320325614+319423874+318475907+317526049+316651441+315972218
2788+315560355+315305215+314969949+314429043+313750220+313005674+312160309
2778+311235983+310405530+309777662+309228864+308590230+307895221+307313508
2768+306918521+306638248+306388018+306146443+305897922+305586588+305180254
2758+304710290+304181368+303533824+302782549+302083467+301556801+301124262
2748+300607143+299932774+299189465+298508551+297917381+297316463+296601469
2738+295774871+294927360+294148353+293454236+292795271+292191498+291817843
2728+291784382+291850031+291574777+290802354+289825981+289028534+288493757
2718+288026375+287469975+286903537+286472580+286104272+285555347+284764992
2708+283985967+283455373+283069497+282558015+281927783+281495299+281409155
2698+281378640+281056340+280496067+279999061+279678453+279434351+279212925
2688+279026325+278816739+278505005+278104200+277643546+277049012+276221905
2678+275231966+274350466+273817871+273576569+273344070+272986309+272646570
2668+272431800+272221196+271907152+271561394+271240477+270894554+270535757
2658+270228479+269906798+269443889+268890927+268462388+268293010+268282553
2648+268171186+267787747+267224674+266713610+266370761+266136697+265896505
2638+265575824+265175782+264771140+264451586+264238017+264047435+263758742
2628+263326512+262803919+262254466+261717707+261271274+261033191+261041265
2618+261161780+261180893+261008059+260751445+260543386+260369898+260171004
2608+260017174+260024376+260124468+260068293+259709096+259203252+258847964
2598+258757583+258794026+258772640+258620192+258368834+258110565+257945588
2588+257918928+257996107+258078814+258072212+257988123+257907398+257807015
2578+257581571+257245087+256907367+256597579+256324507+256186371+256215977
2568+256278571+256285518+256335164+256539186+256890818+257354872+257897087
2558+258369889+258550997+258383019+258048371+257744530+257496282+257212517
2548+256821386+256339892+255862799+255443790+255018234+254554125+254185762
2538+254021821+253929694+253706650+253386388+253201333+253276075+253472204
2528+253557876+253470022+253328413+253222647+253116535+252964887+252799109
2518+252675140+252606453+252551334+252459879+252354368+252308322+252303376
2508+252209103+251977494+251750686+251691275+251784293+251874765+251827156
2498+251588691+251183721+250748563+250512171+250591914+250799628+250792754
2488+250461089+250016056+249655131+249330813+248920151+248440730+248008337
2478+247696549+247473523+247213200+246830034+246453433+246331191+246482911
2468+246610391+246443504+246027350+245584409+245242360+244983855+244742626
2458+244466972+244156657+243862872+243615806+243393144+243201216+243097250
2448+243069353+242988629+242754637+242416353+242091071+241822710+241560877
2438+241235268+240845282+240515563+240416562+240559154+240739571+240774541
2428+240694435+240621293+240587014+240564737+240552789+240563246+240610891
2418+240709383+240812712+240831116+240769959+240756029+240855321+240966288
2408+240973326+240912896+240888727+240910895+240936846+240992093+241122246
2398+241287005+241403937+241461148+241528070+241674172+241896706+242123605
2388+242271961+242265651+241991688+241285623+239981677+237992398+235392799
2378+232452570+229522506+226805757+224232673+221653641+219175084+217123829
2368+215606714+214373037+213180786+212019031+211065863+210783244+211851980
2358+214649691+218937620+224355369+231080320+239273412+247726027+254103746
2348+256770249+256095153+254251720+253217864+252888927+252160057+250785498
2338+249132375+247249025+244869178+241958591+238974190+236581977+235137567
2328+234421318+233827620+232895002+231808698+231277176+231785439+233093386
2318+234475765+235316202+235539955+235564323+235822901+236444386+237388025
2308+238573184+239760925+240607327+240982564+241069381+241103406+241167182
2298+241249616+241343416+241439089+241535108+241666679+241829257+241928221
2288+241921638+241929240+242086089+242365707+242605208+242640070+242423191
2278+242048699+241636746+241235086+240868305+240568101+240311214+240043617
2268+239773000+239553339+239420313+239392799+239465758+239564450+239564214
2258+239392617+239093995+238776551+238516882+238335247+238219278+238137535
2248+238073068+238047590+238071795+238121678+238191473+238286255+238376382
2238+238460180+238612683+238882717+239229694+239609005+240013811+240422527
2228+240808821+241195660+241627654+242114276+242660201+243320712+244154711
2218+245133375+246153029+247131056+248068894+249046612+250154829+251411020
2208+252779233+254256485+255861435+257560931+259261918+260853138+262285072
2198+263646829+265086801+266655071+268312923+270013964+271666287+273123063
2188+274299947+275261535+276185570+277195822+278185761+278925960+279369774
2178+279690037+280041069+280422125+280696743+280689196+280334290+279712332
2168+278926651+278024002+277013896+275920919+274806264+273671461+272417725
2158+271023216+269609776+268270569+267032982+265911726+264868613+263962473
2148+263455537+263494436+264154856+266054063+270078777+276252602+283690255
2138+291676488+300036558+308664935+317370673+326024582+334614588+343296794
2128+352285896+361624011+371181515+380735164+389970205+398603783+406423275
2118+413164956+418643336+422913552+426161496+428801539+431740259+436154539
2108+442940011+452376182+464087525+477094249+489754250+500072666+506855919
2098+510287680+510997783+509576960+506875450+503332539+498413687+491486443
2088+482348075+470871723+457101651+441307837+423811764+405379253+387162457
2078+369922979+354083120+340129593+328231777+318151044+309768205+302979097
2068+297396388+292740896+288940881+285729108+282828250+280258039+278070157
2058+276289845+275023143+274153009+273455273+273191712+273890431+275739719
2048+278751581+283071807+288961940+296938498+307638480+321230082+337481075
2038+356301771+377420589+399761973+421706952+441610660+458097991+470510889
2028+478981963+484097144+486840153+488244537+488708264+488036387+485863562
2018+481780182+475651348+467912018+459222320+450031360+440410571+430032979
2008+418562883+406147476+393313368+380586953+368351726+356796232+345938037
1998+335834208+326713771+318817101+312105826+306178013+300610943+295375975
1988+290711627+286721447+283309690+280333217+277689737+275381686+273466057
1978+271886130+270509461+269291459+268204829+267165371+266201765+265459765
1968+264915241+264330581+263580216+262816430+262251502+261926438+261743875
1958+261635145+261604885+261639419+261660696+261591446+261443108+261325139
1948+261375240+261702904+262311750+262925506+263037164+262444612+261554620
1938+260880107+260561772+260500687+260599379+260757410+260855338+260854047
1928+260894237+261256144+262056355+262994574+263692693+264218850+264814621
1918+265289532+265268128+264887672+264669865+264891672+265421885+265966537
1908+266336755+266546541+266700335+266852910+267028599+267275065+267626007
1898+268067311+268517726+268848064+269089420+269528397+270281798+270929780
1888+270979171+270516190+269973520+269600556+269439361+269461293+269576006
1878+269693738+269804050+269975629+270402276+271370575+272903074+274364014
1868+274778132+273931130+272667883+271883348+271788620+272043379+272246473
1858+272287499+272333690+272539094+272849900+273172145+273596046+274344974
1848+275631207+277457364+279198686+279711714+278761001+277556838+277159761
1838+277533797+278052317+278429081+279101431+280582284+282508933+283767543
1828+283944505+283747557+283657758+283464138+283095011+282886643+283042656
1818+283448644+283961872+284624528+285563566+286704408+287665050+288114465
1808+288186861+288349729+289016096+290339427+292097243+293707467+294663727
1798+295105595+295759159+297261161+299451226+301122789+301182691+300285480
1788+299917717+300614526+301915598+303332348+304831423+306380307+307684744
1778+308701452+309997887+312263202+315421492+318170102+319130508+318531736
1768+317465491+316767500+317148557+318879768+321125661+322637084+323445969
1758+324470824+325877135+327395286+329447797+332618052+336342235+339090881
1748+340244343+340638020+341248430+342555194+344597011+346844542+348517087
1738+349842291+352081201+355493795+357957331+357532194+355616110+354021326
1728+353137589+353057428+353787789+354946379+356487444+359211940+363685251
1718+368701976+371488084+371053745+369341738+368181038+368120990+369225715
1708+371502815+374516240+377419462+380219827+383913349+388504573+392086728
1698+393557706+393646233+392550528+390834811+390209270+391517489+394265954
1688+398024652+403138342+409121148+412972809+412908251+411589339+411583629
1678+413466688+416782972+420423174+423463841+426322545+429654869+432580932
1668+433835541+434444787+436424628+440069341+443756425+446072150+447758734
1658+450599508+455844605+463891850+472962023+478066439+478820368+480281562
1648+484132388+488257666+490275915+491073344+492684713+495794739+500516535
1638+506996492+514430599+520079921+522359239+523743328+526977924+532593457
1628+539581077+546854899+554255981+561923953+569541587+577112957+585629712
1618+595795990+605955102+612795748+615868494+617277933+618334649+619345392
1608+620365373+621436855+622810723+625039814+628695292+634026370+640739245
1598+648050419+655231022+662166050+669205390+676526966+683697894+689815381
1588+694291892+697528961+700520673+703961927+707973765+712476391+717582407
1578+723308035+728742478+732810910+736842970+743345550+753027951+764278077
1568+774693494+783978436+793651090+804769117+817820831+833686622+851842316
1558+866089390+872185855+874563119+876232463+877232659+877620662+877626918
1548+877228222+876773515+876961188+877990843+878636570+875607614+867088786
1538+858153003+853473325+851696687+849381689+844862915+839706053+836043592
1528+834428513+834354971+835059618+835807328+835724475+834305434+832507701
1518+831696852+832112351+833357685+835114829+837150063+839367441+841913393
1508+844280110+844137828+840368292+836233811+834240694+834013231+834212470
1498+833877059+832854969+831774685+831695833+833096252+835041287+835720183
1488+834626006+833167103+832386877+832090601+831900164+832021497+832909889
1478+834358172+835499049+835971287+836264508+836457709+836020606+835254710
1468+834944032+835040560+834736427+833761546+833170885+834164243+836771952
1458+839388536+839437419+836706267+833677311+831765883+830770634+829791534
1448+828085018+825834324+823794144+822356917+821568545+821539739+822280030
1438+823285462+823546823+822461883+820546454+818461029+816385132+814484324
1428+813076340+812259162+811899528+811966087+812525687+813309404+813373053
1418+811834425+809329790+807263277+806032709+805071940+803893746+802681145
1408+801811957+801142517+800198769+799040943+798356736+798523605+799189554
1398+799796945+799954212+799301139+797945456+796990142+797404914+798671489
1388+799181770+798135093+797069430+798476396+803042307+808965282+813857584
1378+817135097+820125499+824034627+828375621+831681576+833573800+835032849
1368+836800685+838706440+840469766+842084918+843293009+843677811+843422416
1358+843197790+843350183+843543312+843162292+842099975+841002670+840513484
1348+840619904+841120511+842222618+844140956+846553718+848809723+850357080
1338+851056053+851458095+852504118+854761140+858199412+862455662+866898858
1328+870913097+874566101+878337893+882124742+885557413+889014234+893080483
1318+897462285+901591383+905520805+909381923+913122290+917095721+921716915
1308+926625365+931134247+935119389+938584793+940961985+941963854+942516907
1298+943562421+944442593+943675461+941088919+937914117+934901746+931615141
1288+927620978+923510066+920454196+919102441+919001039+918971506+918140216
1278+916645961+915315155+914713074+914642442+914604544+914588468+915197096
1268+916998684+919728309+922150891+923115080+923040010+923751858+926409323
1258+930134779+933110924+934569972+935073125+935204715+934760410+933154787
1248+930094334+925965455+921988168+919482733+918399322+917194504+914891218
1238+912208294+909988005+907842059+905151569+902396049+900508698+899416776
1228+898177916+896507116+895215737+894874870+894971980+894794854+894418926
1218+894449769+895245997+896480857+897429042+897907026+898545042+899925457
1208+902086607+905084720+909064261+913295197+916123240+916592132+915545237
1198+914730823+915417939+917964109+921817371+925635427+928122022+929043438
1188+929277375+930172168+932752454+936768438+940520954+942491884+943078617
1178+943896595+945769979+948133350+950070820+951356235+952413605+953712913
1168+955609066+958459368+962369441+966883632+971068232+973910460+974998091
1158+974929787+974634893+974577136+975168088+977003501+979653910+981292848
1148+980957437+980200780+981061167+983358343+985465009+987257650+990262819
1138+994634364+998412048+1000559231+1002352382+1004961764+1007891355+1010128592
1128+1011284964+1011535849+1011253030+1010711979+1010189404+1010255017
1120+1011203420+1012274030+1012572779+1012596202+1013956831+1017701708
1111+1023188744+1028345025+1030475259+1028298979+1024061933+1021777268
1103+1023175360+1026378095+1028579470+1029228324+1029897182+1032162789
1094+1036025289+1039971515+1042807924+1044886584+1047528846+1051492821
1085+1055514188+1056929010+1055113456+1053325833+1055201400+1060174808
1077+1063629956+1062020842+1056660085+1051511952+1049196445+1049592522
1068+1051245572+1053579338+1056928428+1060793256+1063585584+1064754321
1060+1065401357+1066241448+1066887756+1067149480+1067968549+1070186292
1051+1072838956+1073541566+1070939966+1066168270+1061551223+1059029421
1043+1059801644+1063272504+1066280147+1066556637+1066661312+1069868848
1034+1073741823+1072992367+1067768001+1063597222+1063924705+1066979920
1025+1068832864+1067304274+1063985880+1062213243+1063112982+1064801603
1017+1064664995+1062605974+1061138924+1061847353+1063615844+1064496962
1008+1063608279+1061121466+1057582738+1053816766+1050825999+1049614272
1000+1050869790+1053747007+1055850181+1055819412+1054962008+1054899159
991+1054867080+1052916590+1049066019+1045253129+1042311536+1039542558
983+1037303648+1037318124+1039174123+1039229333+1035259976+1029896310
974+1027038078+1027211567+1027799754+1026230575+1021906821+1015978899
965+1010538054+1007297930+1006176183+1005375372+1003176470+999580931+995784262
955+992510677+989456189+985949394+982107771+979177889+978214865+978620690
945+978684775+977422128+975174998+972618062+970000823+967498371+965752502
935+965388649+965814624+965325946+963381203+961691563+961783145+963105294
925+964670254+966431108+967844402+967526522+965554864+963661185+962717946
915+962368350+962447493+962557914+961544335+959321282+957556428+957157877
905+956798753+955074488+952563089+950459841+948750634+947104204+946261639
895+946798617+947323374+945816388+942750480+940676548+940502114+940661126
885+940122548+939920545+941270555+944039968+947289913+949921772+950898836
875+949913698+947857005+945945068+944532865+943061595+941023015+938840552
865+937413292+937241476+938204937+939650165+940621119+940648760+940337863
855+940755690+942177059+943817961+944717555+944191707+942198009+940127349
845+939915308+941596000+942926806+942282607+940651306+940012127+940922196
835+941799458+940507060+937023034+933933412+933720861+936333081+939561057
825+941158460+940920668+941043092+943412064+946971450+949307325+950177531
815+951327502+953413291+955494280+956630138+955996560+952939089+948618390
805+945863816+946146998+947843112+948277742+946786323+944927778+944374652
795+945698984+948595550+952033894+954591412+955425102+955002984+954840043
785+956086613+958371351+960483909+961873781+962474480+961846866+959856223
776+957162315+954324233+951647491+949957561+950105372+951650110+953186847
766+953743028+953195940+952017964+950982416+950951428+952346755+954361767
756+955682025+956279306+957103830+957780472+956786314+954482373+953240094
746+953924809+954857137+954887907+955093983+956578564+958972487+961833118
736+965052511+967770933+969113086+969125598+967393768+963171853+958320868
726+956035840+956294218+956473525+956144370+957438659+960803753+963771606
716+964193143+962351620+959567366+956814465+954933443+954044178+952882060
706+950567135+948367069+947951569+948750489+948724011+947067105+944820703
696+943151286+941290704+936975388+930086405+923968774+921461520+921686728
686+921760633+920004072+916462580+911626798+907305372+906462880+910056091
676+915626634+918439475+913181284+897351281+875818928+862810204+869595239
666+886180298+897877857+902428710+902395103+898667538+892709647+888034552
656+886584086+887049923+887461130+886728842+885018544+884398641+886613983
646+889573761+888856312+883788558+878270244+875437326+875041540+875212701
636+874798729+874264370+874339803+873793223+870907132+867626127+868915106
626+874981528+877454230+869725228+857491347+850556173+850348933+849931178
616+844663240+838780854+838117597+842133364+846574668+850484159+855649241
606+861189233+863724201+862133272+857942271+851388918
##END=
