##TITLE=<SNM>
##JCAMP-DX=4.24
##DATA TYPE=INFRARED SPECTRUM
##DATE=3/5/2025
##SAMPLING PROCEDURE=Instrument type and / or accessory
##ORIGIN=Admin
##XUNITS=1/CM
##YUNITS=ABSORBANCE
##RESOLUTION=4
##FIRSTX=4497.3318
##LASTX=599.83466
##DELTAX=-1.4281778
##MAXY=1.7141706
##MINY=0.17422305
##XFACTOR=1
##YFACTOR=1.5964458e-09
##NPOINTS=2730
##FIRSTY=0.19558507
##XYDATA=(X++(Y..Y))
4497+122512820+123502920+124516103+124481539+123406556+122246887+121870541
4487+122455342+123528169+124427300+124880295+125048120+125043677+124778443
4477+124298519+123937939+124052018+124649989+125293164+125453195+125028145
4467+124421401+124114575+124233405+124525530+124716839+124779927+124793527
4457+124772899+124770929+124763126+124349557+123164910+121653135+120828311
4447+121154001+122070503+122643608+122428684+121683741+120936791+120499439
4437+120383389+120518181+120836777+121060718+120656398+119479311+118366554
4427+118343751+119186318+119587231+118892420+117811650+117226933+117103464
4417+116857561+116294928+115802058+115750264+116038804+116260420+116107054
4407+115566823+114917833+114578954+114819173+115508729+116090132+115907755
4397+114884091+113779388+113431372+113872131+114446160+114590668+114297507
4387+113997616+114066268+114347715+114325425+113818236+113199675+112844760
4377+112726088+112634840+112470282+112298005+112386034+113044190+114124941
4367+114892379+114726001+113717682+112331850+110891583+109686764+109131832
4357+109457877+110475185+111740637+112788523+113331349+113498763+113700955
4347+114092114+114497385+114873207+115343788+115764106+115764628+115307320
4337+114721138+114185546+113657860+113265713+113236404+113397490+113239923
4327+112638788+112114583+112160712+112663644+113193654+113506071+113560890
4317+113400000+113180923+113068635+113094995+113314007+113856356+114588615
4307+115057049+115073533+115058160+115527303+116432763+117188543+117282554
4297+116724001+115955928+115521301+115741947+116464461+117138830+117326023
4287+117078374+116749100+116575414+116544556+116538881+116489261+116413731
4277+116433164+116743248+117325948+117709779+117480238+117059949+117329766
4267+118395769+119422841+119737750+119439493+118911993+118385941+117981621
4257+117727654+117585068+117661775+118214214+119254055+120368996+121074886
4247+121182992+120835713+120411354+120286932+120452731+120521532+120288267
4237+119985660+119848236+119815791+119794762+119819870+119905500+120083517
4227+120536737+121349557+122188848+122544323+122276681+121722803+121288522
4217+121125327+121246127+121680044+122285902+122631166+122402166+121827428
4207+121468033+121681258+122365120+123125772+123654588+123939451+124108862
4197+124226367+124304614+124297698+124105409+123858777+123922771+124287178
4187+124500086+124532017+124908549+125654109+126036885+125667979+124991360
4177+124586770+124754362+125622271+126947926+128009711+128240157+127769707
4167+127086265+126545063+126363228+126597660+126949317+126994139+126718722
4157+126489302+126522288+126755693+127091548+127401781+127516598+127491536
4147+127583065+127763789+127642914+127047753+126332968+125982776+126155202
4137+126690589+127406438+128253411+129158805+129875859+130195463+130175236
4127+129969133+129642370+129262963+128912128+128608596+128480945+128832313
4117+129684765+130554793+131023161+131208002+131386616+131475569+131213966
4107+130629819+130055370+129860075+130277014+131213835+132112733+132344178
4097+131927725+131566127+131792345+132348845+132560063+132130552+131474440
4087+131318759+131977764+133015243+133705704+133767551+133483715+133214178
4077+133085080+133101900+133226825+133324347+133305716+133310103+133497753
4067+133753503+133825916+133640712+133316039+133020535+132938369+133181444
4057+133591849+133759440+133435225+132928932+132831289+133273766+133804485
4047+134074881+134207209+134365792+134487143+134588790+134858262+135331092
4037+135840605+136249395+136489212+136566666+136668639+136934144+137115344
4027+136925939+136693617+137070662+138013793+138671744+138477906+137816306
4017+137380158+137302126+137189549+136705891+135899278+135144926+134879263
4007+135261797+136077678+137071166+138215248+139427478+140231552+140110845
3997+139177188+138152011+137633155+137618398+137789069+138017994+138495333
3987+139437792+140745816+141959501+142536919+142186279+141070068+139871961
3977+139433059+139945317+140648117+140662071+139978816+139317430+139230503
3967+139680437+140327654+140960142+141595225+142228637+142649290+142667342
3957+142390581+142058787+141771030+141589027+141680341+142075186+142471898
3947+142600614+142612421+142781086+143045825+143180934+143271716+143622776
3937+144254106+144875720+145307593+145586874+145684423+145489978+145109526
3927+144865107+144983779+145355317+145657831+145786873+146033037+146675326
3917+147391521+147392743+146413452+145111020+144263141+144085936+144546679
3907+145851035+148062063+150465800+152044827+152609382+152528466+151753682
3897+150289753+149008480+148951655+150024510+150782380+150198513+149367651
3887+149774098+151021778+151682342+151697295+151946055+152188766+151765442
3878+151385140+152154277+153966260+155983636+157699834+158609335+158122420
3868+156833550+156002080+155719056+155002675+153492374+152066061+151832974
3858+153526070+157439510+162646945+165654609+163767730+159710481+156578396
3848+155127488+155170396+156359506+158275833+160526232+162787664+164475935
3838+164812405+163987190+163189734+162871838+162417759+161519832+160792119
3828+160691238+161101577+162353486+165036178+168103597+169168826+168329498
3818+167767780+167583023+166326187+164318639+163344416+164388942+166998214
3808+169445466+170369771+170936230+172891639+175338387+176004160+175243797
3798+174884365+174897992+174463515+173925300+174115377+175191769+176867234
3788+178922273+181174520+183359003+185442418+187857767+190944208+194253303
3778+197028233+199347386+202110444+206163473+211619416+217632764+223081743
3768+227768007+232313496+237296263+243294826+250863660+259703853+268405942
3758+275987656+283499777+292964655+305385281+319583038+332399013+342315748
3748+351576120+362462579+374287362+383808935+390184814+396386185+404853655
3738+416215176+429722312+443125991+453770402+460922792+465901377+470132461
3728+474018487+477174411+479537434+481769520+484121230+486121647+487924371
3718+490967242+496888893+506307717+517980619+528343405+534181984+536996024
3708+540260670+545158983+551592284+559300642+567072396+572966904+576308760
3698+578255414+580706624+585020855+591120598+597896007+603852344+607061994
3688+606430271+603557129+601369510+601515904+603235294+604315047+604019421
3678+603608466+603501872+603075235+603500827+605879530+608412879+609169565
3668+609776309+612753731+617614596+621376891+621509993+618702674+616229698
3658+616838869+620798186+626325122+631927029+637328032+641634049+643042432
3648+642350449+643111802+646775344+651453077+654355341+654591154+653952487
3638+654783135+657677335+661419431+664618590+667108592+669557823+671889446
3628+673111299+673748323+675802467+679907841+684232676+686126275+685627841
3618+686005008+689217384+693817906+697530881+699641326+700495197+700714209
3608+701570992+703937935+706913975+708560933+707628807+704557859+701283506
3598+700080769+701776339+704494612+705343107+704239534+703757454+705117300
3588+706851027+707840800+709335279+712177059+714766300+714867106+712248968
3578+708934591+707170248+707493054+708457065+708562726+708312501+708892625
3568+710082294+710738434+710335805+709415775+709003737+709367388+710021213
3558+711628222+715585299+720719425+723209427+720874966+716038332+713182289
3548+714951635+720038718+723988103+723667836+720719873+718951573+720161403
3538+723559637+727027614+728531576+727760740+726151790+724546274+722085394
3528+718386681+715053114+713572225+713248672+712560871+711486794+711253221
3518+712447146+714575289+717345908+720919396+724399619+725610569+723743479
3508+721190454+720580311+721348310+721376834+720661928+720952027+722457035
3498+723622734+723648272+723067401+722210917+720906328+719359803+718126152
3488+717518772+717956573+719977263+722750046+723965104+722787905+720839945
3478+719087774+716735840+713757635+711854403+712507780+715791990+720411329
3468+724034773+725408284+725528206+725287465+724333011+723230559+723542014
3458+725098471+726084958+725954880+726061138+727275374+728707876+729070631
3448+728260145+727038217+726115499+725713467+725435688+724948605+725158656
3438+727397463+730907928+732977304+731825269+728046434+723697630+720783344
3428+719881011+720121603+720874891+722119071+723247509+723564715+723101526
3418+721682689+719214044+717329330+717948284+720167302+721213975+720437688
3408+720000560+721538946+724265732+726755585+728416134+728463700+725703237
3398+720901250+717159975+716337690+717317084+718431260+719652590+721875417
3388+725063151+727695029+728243269+726886111+725235269+724772156+725969740
3378+728288072+730371262+730562870+728187862+724686358+722373776+721953673
3368+722536336+723837266+726254463+729052859+730578999+730259479+728837431
3358+726747595+723878485+721112272+720620634+723527677+727769029+729634925
3348+727878796+724952936+723700990+724422468+725628714+726627672+728075631
3338+729939137+730845129+730182418+728964971+727962429+726761783+725027010
3328+723538878+723866015+726666502+730014033+730779716+728293672+724875053
3318+722432244+720946277+720455236+722014157+725815244+729775756+731494548
3308+731073624+730463855+731074072+732818104+734414361+734300337+732071313
3298+729013806+726912545+726885738+728824438+731334751+732804215+733099766
3288+733235295+733172720+732219088+731276880+732333186+735582748+738521303
3278+738361132+735012854+731304509+729968035+730988498+732312353+732416146
3268+731285468+729392541+727181288+725484001+725136404+726103104+727446074
3258+727946449+726842951+724576665+722617878+722046191+722680228+723836669
3248+725333089+726924940+727475495+726238110+724400888+724132593+726184421
3238+728698542+729151202+727656648+726733109+727584515+728538595+727575256
3228+724879235+722506169+722098760+723208904+723640208+721737050+718569552
3218+717066262+718981367+723039922+725840483+724963315+721551491+719089566
3208+719502276+721339797+722286783+722365786+723083456+724499156+725206595
3198+724615793+723539849+722875196+722876242+723054035+722248327+719831205
3188+716886303+715129503+715049455+715771156+715895858+714352245+711797354
3178+710836254+713020326+716198577+716900640+714744719+712062662+710049812
3168+708245968+706964602+707177715+708126568+707571832+704904187+702085405
3158+701015211+701457790+701897979+701538510+700916121+700842271+701408656
3148+702209435+702838320+702666127+700905891+697730926+694664757+693131599
3138+693075595+693265037+692487854+690458651+687946098+686075498+685253885
3128+684900240+684448551+684162484+684524940+685182425+685220358+684432945
3118+683408823+682510821+681856623+681974529+683284793+685175480+686392031
3108+686073034+684227224+682020676+681325110+682603638+684150238+684583558
3098+684253061+683288079+680749540+676709354+672961881+670904303+670284976
3088+670204779+670165725+669944025+669313647+668214106+666793179+665385916
3078+664630015+665097310+666462607+667493973+667306547+666364638+665956707
3068+666745986+667858893+667633758+665447072+662490522+660607227+660800702
3058+662637028+664433703+664351490+661989699+658706833+655880361+653694571
3048+651937845+650695532+650023487+650045814+651066725+652769090+654023724
3038+654129384+653364074+651956961+649783268+647281842+645467917+644797291
3028+644780714+644840152+644928265+645209255+645528924+645365318+644227322
3018+642064307+639424514+637344012+636729240+637388292+637960277+637208707
3008+635166436+632870655+631336301+630868857+631093320+631546204+632073535
2998+632503495+632304943+631053370+629145882+627509154+626457851+625342331
2988+623622642+621819284+620823873+620592988+620184198+619092722+617963350
2978+617562998+617562923+617012929+615716404+614382731+613662074+613655018
2968+614029982+614179549+613534348+611964040+609989982+608732063+609099261
2958+610529336+611271236+610392612+608474969+606289366+604231452+602815975
2948+602377503+602477265+602239137+601066119+599148326+597506595+596886036
2938+596527425+595124045+592865302+591246270+591111152+591775916+591933026
2928+591003177+589412371+587640711+585717616+583994492+583334245+583836189
2918+584224855+583238367+581150509+579306343+578562016+578610328+578528115
2908+577708369+576237748+574640520+573431324+572764058+572378454+571814085
2898+570696287+569043392+567427124+566583632+566659462+566979840+566767586
2888+565903075+564748501+563538111+562322120+561225603+560202265+558750984
2878+556520317+554052343+552374731+551913634+552110506+552025417+551121741
2868+549525857+547707079+546135203+545190942+545013373+545407528+546055192
2858+546607725+546670076+546179857+545581401+545110558+544280657+542599499
2848+540400493+538551883+537610423+537409332+537329582+536856127+535815689
2838+534272561+532567881+531301151+530721288+530288005+529337174+527924833
2828+526606318+525687035+524996807+524202525+523173512+522045894+520972414
2818+520034127+519382281+519018480+518438281+517076009+515206379+513810952
2808+513357471+513257971+512778243+511944384+511137743+510306759+509150804
2798+507749180+506485660+505542482+504752381+503796882+502554420+501324764
2788+500457751+499789552+498918618+497883333+496953148+495964271+494501826
2778+492614424+490863709+489725078+489189533+488905183+488536380+487910295
2768+486922650+485532786+483957475+482682120+482007125+481592847+480775304
2758+479440697+478177140+477369529+476649133+475522039+474075611+472745298
2748+471747050+471001565+470369656+469745326+469014663+468087054+466957309
2738+465637189+464087714+462374895+460779945+459541216+458602519+457746259
2728+456792104+455665607+454522533+453707603+453340480+453083647+452508749
2718+451537271+450413014+449365445+448393220+447369919+446285910+445264514
2708+444333320+443350492+442247068+441162649+440205694+439265204+438251088
2698+437330834+436654047+436042897+435287667+434507834+433835415+432984494
2688+431618114+429993856+428755277+428174518+428027713+428110113+428323637
2678+428230970+427161372+425017959+422551889+420678489+419809647+419749125
2668+419890852+419632973+418860308+417931915+417146518+416448375+415698186
2658+414938141+414210465+413325942+412118799+410875665+410133578+409968815
2648+409831531+409201041+408142047+407100900+406343691+405715889+404918060
2638+403931572+403065866+402587482+402429439+402284390+401882320+401184476
2628+400385153+399694664+399089562+398383242+397551586+396796394+396256817
2618+395858331+395478999+395082679+394668923+394228136+393746877+393188968
2608+392501204+391675560+390789393+389985291+389404906+389098640+388979949
2598+388853866+388510675+387882910+387117040+386390522+385726691+385112516
2588+384630959+384301507+383963543+383472987+382879572+382331220+381892711
2578+381497175+381078453+380728616+380598240+380614518+380487614+380057318
2568+379456883+378903118+378463003+378051301+377611111+377254890+377158526
2558+377329673+377589680+377768370+377792675+377627352+377281921+376846660
2548+376405499+375944663+375425919+374913111+374580486+374591799+374904449
2538+375194325+375142913+374828994+374607443+374569584+374411280+373888093
2528+373142795+372534445+372312670+372468883+372806772+373120692+373283327
2518+373231468+373016525+372795161+372607175+372288514+371752184+371198979
2508+370926987+371020551+371241094+371218058+370829392+370320056+369945130
2498+369686728+369432583+369180043+368934784+368627249+368205167+367696840
2488+367209906+366882694+366756051+366724839+366675331+366591960+366494476
2478+366353683+366094236+365668869+365157368+364772137+364700153+364903708
2468+365110586+365075677+364855881+364722293+364817089+365025050+365122422
2458+364932756+364433239+363811523+363361477+363281877+363530384+363778145
2448+363635634+363092845+362537400+362205036+361919716+361496738+361063530
2438+360850679+360896004+361031197+361023992+360725902+360194277+359680685
2428+359393311+359249307+359011889+358696438+358610304+358940801+359524062
2418+360027759+360162504+359803072+359142415+358635170+358572147+358793959
2408+358984223+359089696+359226047+359344551+359312815+359201741+359197448
2398+359322149+359422620+359328422+358986425+358562290+358329763+358338947
2388+358291307+357750422+356362127+353951799+350532247+346163655+340828961
2378+334575917+327719563+320755794+314073836+307784203+301806958+296113541
2368+290858522+286313238+282779867+280544720+279801176+280624040+283075492
2358+287289701+293373352+301415343+311610548+323504944+334861200+342507020
2348+344571804+341739134+336866209+332762328+329870331+327009136+323470109
2338+319468081+315532323+311935201+308606431+305649750+303626073+302993529
2328+303553510+304671196+305791794+306764075+307939314+309844712+312551448
2318+315541844+318287484+320678397+322827970+324839812+326900190+329235361
2308+331805747+334266253+336288661+337775486+338792627+339451193+339886268
2298+340290914+340874025+341702582+342630116+343465804+344161520+344763785
2288+345260128+345567962+345646927+345554185+345390542+345239854+345146963
2278+345083193+344946469+344671155+344334199+344105965+344077104+344118062
2268+343961326+343533457+343137884+343149196+343588901+344139268+344481750
2258+344515502+344341815+344135497+344011430+343987013+344036259+344127956
2248+344227530+344318443+344432467+344629712+344903944+345121052+345138898
2238+345003369+344933812+345091332+345431126+345786563+346047652+346252365
2228+346519241+346905219+347335440+347649808+347731760+347630244+347510172
2218+347460254+347445768+347456931+347573046+347888309+348468135+349296169
2208+350176436+350830635+351189619+351470683+351910873+352519074+353122010
2198+353589604+353983759+354471925+355101370+355731001+356230144+356651442
2188+357112913+357587041+357964544+358284624+358706407+359238106+359696329
2178+359997555+360316216+360866210+361642236+362459704+363198804+363931856
2168+364778036+365698364+366584082+367538312+368860598+370714322+373016786
2158+375678869+378729319+382167988+385871367+389658715+393344248+396744423
2148+399728079+402324003+404788392+407456300+410425059+413476405+416397673
2138+419236131+422150865+425194446+428382292+431836156+435656695+439674965
2128+443545646+447175437+450825500+454644360+458311262+461258665+463040443
2118+463463085+462644310+460981596+458885674+456560248+454104446+451693111
2108+449526624+447678201+446132759+444975198+444389361+444365840+444415646
2098+443655712+441343168+437424659+432469484+427072438+421530007+416014720
2088+410695818+405641815+400831465+396276082+392044400+388238571+384957535
2078+382205212+379896102+378001345+376569628+375559693+374753650+373891267
2068+372878831+371848137+371002891+370442032+370123782+369893681+369552692
2058+369028199+368449456+367974058+367654165+367515462+367590470+367842450
2048+368203151+368672127+369299518+370136998+371266109+372843511+375090643
2038+378190638+382138866+386724864+391695572+396863860+402002989+406711188
2028+410499880+413049806+414287340+414181605+412679845+409957577+406495798
2018+402770166+399025120+395357844+391829570+388493239+385444619+382788061
2008+380471746+378279833+376069925+373884434+371784293+369740268+367747915
1998+365931303+364484912+363515599+362879060+362220904+361325665+360333764
1988+359450025+358649955+357839394+357060904+356399014+355877209+355506688
1978+355275467+355100287+354881686+354560672+354161104+353866076+353865143
1968+353979428+353733609+352993276+352151913+351556481+351200820+351038446
1958+351155158+351523364+351882946+351960044+351696192+351250887+350830374
1948+350578618+350620248+350983077+351351470+351209668+350474414+349635515
1938+349113821+348898057+348818271+348828650+348988149+349323723+349742183
1928+350093402+350332874+350488079+350516081+350464893+350620696+351075147
1918+351360543+351024445+350359830+349988712+350060023+350252116+350270821
1908+350129057+350033851+350099935+350187861+350068162+349734529+349457087
1898+349489942+349769886+350000398+350104976+350360315+350853223+351148251
1888+350870211+350272614+349828578+349689166+349731319+349782618+349745319
1878+349673224+349700890+349919977+350465827+351556780+353129888+354454526
1868+354553242+353339118+351753876+350671584+350284710+350312787+350383202
1858+350295015+350115467+350012831+350035456+350189877+350592320+351391755
1848+352697352+354471328+356104435+356486828+355394979+353968899+353193247
1838+353126341+353367755+353690000+354338039+355668613+357390356+358572931
1828+358851419+358765696+358598170+358140619+357545523+357312473+357517260
1818+357759420+357826214+358052507+358855041+360067074+361007153+361302816
1808+361332647+361673075+362559167+363948433+365617794+367089572+367917831
1798+368311350+369117357+370973657+373492557+375216390+375112858+374123981
1788+373872337+374868868+376608158+378545851+380574009+382605788+384350678
1778+385816857+387600763+390346777+393889724+396892273+398097324+397934764
1768+397572868+397700220+398755144+400865665+403339986+405202970+406489675
1758+407845638+409358859+411014181+413402816+416958980+420907918+423678274
1748+424720803+424961657+425487756+426816875+428908279+431206673+433105724
1738+435022322+438192807+442754164+446526652+447581763+447318620+447440894
1728+448115777+449318252+451209910+453623262+456527729+460618654+466409592
1718+472687390+476698566+477525480+477116952+477266631+478634317+481444250
1708+485619480+490406047+494768030+498844656+503865655+509989442+515294828
1698+518587737+520788610+522297837+523309526+525051654+528389441+533045631
1688+538747560+546143790+555212703+562799869+566028000+567157970+569259007
1678+573347841+579132843+585391114+590898375+595940207+601382951+606753338
1668+610902918+614322919+618512448+623883134+629406337+633988266+638000226
1658+642763384+649425442+658513135+668397575+674183435+675540892+677670677
1648+682487822+688010988+691534297+693452463+695671929+698813217+702841829
1638+707827508+712898985+715312747+713787877+710957596+709309592+709145986
1628+709587072+709946840+710212223+710043166+708675704+706623726+705395974
1618+705110056+703799046+700039700+695257725+691138089+687831701+684770013
1608+681583623+678465782+675898569+674116156+672953817+672226066+672095839
1598+672828070+674151252+675133558+674940307+673607642+671843374+670188127
1588+668595753+666843508+665074909+663654952+662786072+662693928+663806610
1578+666100226+668242556+668603594+668035865+668702982+671147210+674293427
1568+677173439+680178526+684086244+689364487+696770051+707316903+719902965
1558+728870586+732284276+735338124+740977031+748860493+757827965+766999738
1548+775896197+784594029+793399912+802068995+809704548+814670588+815190303
1538+812971733+811623834+811961948+812884890+813748916+815436720+819008938
1528+824126189+829079087+832519808+834926477+837248467+839623400+842314045
1518+845682559+848876566+850654573+851328261+852590586+855963730+861854504
1508+868750583+872703926+871732895+869617895+869269626+870492897+872297264
1498+873559589+873133213+871263434+870025229+871189808+874755306+878943492
1488+881607180+882303195+882085079+881896533+881933794+882084556+882730018
1478+884658638+888051495+892049044+895148740+895883659+894258355+892257527
1468+891721758+892798076+894069734+894030756+893128423+893243865+895455491
1458+898739701+900280103+899236940+897909501+897514862+897477526+897098119
1448+896388215+895753133+895330939+894836015+894065254+893576229+894409938
1438+896606779+898361713+898203111+897544805+898269120+900058179+901320579
1428+901509573+901505466+902003750+902918851+904132415+905649893+906736665
1418+906132646+904046170+902123448+901317368+901293473+901244712+900858286
1408+900302878+899370976+897556603+895335718+894147915+894467212+895067721
1398+894638732+893350646+892074582+890959509+889764688+888775587+888169701
1388+886900805+883713519+879854860+878545865+881271829+886419919+891271264
1378+894528069+896661439+898330052+899405101+899882701+900835586+903349856
1368+907094492+910719802+913356310+914876401+915132824+914239601+913334207
1358+913787389+915725194+917967361+919537631+920706691+922155919+923804446
1348+925031003+925726122+926469628+927627935+928840454+929649148+930167369
1338+930651690+930992865+931249959+931924469+933258105+934954870+936691733
1328+938338990+939822492+941274185+943053760+945291670+947650997+949528766
1318+950361952+950079320+949330139+948843504+948537873+947720591+946321542
1308+945318104+945434667+946066315+946043614+945030469+943716845+942915692
1298+942852669+943074519+942849384+941945483+940951230+940408740+939908664
1288+938641186+936687701+934998104+933987423+932843677+930519297+927068420
1278+923700503+921475810+919962588+917608787+913836299+910071801+907987042
1268+907452244+906914906+905248085+902654439+899906820+897142847+893819435
1258+889903726+886365707+884027214+882602479+881264064+879707607+878353063
1248+877594996+877075430+876043542+874466999+873220131+873037932+873908455
1238+875470362+877276148+878767864+879759205+880768468+882224939+883649077
1228+884271914+884210085+884371302+885318586+886812244+888440385+890260732
1218+892757827+896241859+900169067+903234264+904620395+904978147+905573803
1208+906758320+907968972+908924993+910012736+911544476+913319422+915102880
1198+917073018+919507688+922302276+925144355+928117632+931580158+935256767
1188+938221084+940177332+941945259+944276882+946935642+949154138+950251438
1178+949989863+949047507+948698267+949766446+952320143+956063882+960192927
1168+963153660+963809501+962891786+962261034+962845265+964025526+965075783
1158+966321979+968307872+970703639+972924972+975052069+977234947+979295960
1148+981606227+984891109+988596392+990899939+991072879+990431300+990561452
1138+991939817+994103280+996471791+998893169+1001384515+1003616676+1005195907
1128+1006431500+1008169334+1010668221+1013198322+1014881496+1015532111
1120+1015589459+1015554512+1015542565+1015188472+1014184063+1013058611
1111+1012882909+1013986407+1016014266+1019342681+1024601061+1030582338
1103+1034410904+1034110276+1030419180+1026240179+1024678048+1026549096
1094+1029723613+1031953384+1032879313+1033000953+1033204210+1034978334
1085+1038758663+1042489633+1043535410+1041634643+1039177347+1038924583
1077+1041293244+1043835068+1044235607+1043455288+1044361428+1047727926
1068+1051178580+1052321878+1051781852+1051763707+1052549850+1052395280
1060+1050762210+1049828889+1052047907+1056989978+1061095576+1061834602
1051+1061164349+1062556005+1066503075+1070933794+1073741823+1073510714
1043+1070337765+1066320951+1063303245+1061451611+1060884703+1062181601
1034+1064791302+1067119565+1068212012+1068016148+1066800717+1064849695
1025+1062235813+1059149184+1056458764+1055019392+1054632145+1054342792
1017+1053306349+1051615932+1050942841+1053247209+1057849300+1061292859
1008+1061198773+1058800094+1056815769+1056582569+1057861620+1059596617
1000+1060271201+1058677409+1054939195+1050550367+1047103970+1045322752
991+1045066702+1045829100+1046850012+1046863751+1044523317+1039482306
983+1033029254+1027194857+1023005551+1020157424+1018469769+1018260017
974+1018741873+1017629041+1013507089+1007468316+1001462622+996472239+992826095
964+990548385+988736924+986115426+982614892+979100245+975667289+971813932
954+968082439+965822201+965245811+964936595+963504915+960989375+958386545
944+956478683+955358384+954477706+953070892+951083804+949493147+949180721
934+949857321+950580442+950838358+950658100+950166462+949416534+948588201
924+948239410+948969998+950548482+951711120+951335746+949378452+946578786
914+944067951+942966842+943426745+944572881+945673467+946442062+946354846
904+944616713+941039492+936704800+933729657+933836736+936478321+939146714
894+940237443+940344821+940328841+939951525+938778956+937134984+935942552
884+935925751+936643047+936568749+934822178+932355996+930889818+931212325
874+932626681+933815529+933990410+933155357+931918794+931197913+931750782
864+933684032+936265582+938226908+938357658+936353246+933488094+931840314
854+932407445+934188589+935101973+934170220+932554175+931694704+931328887
844+930365996+928790050+927332011+926182888+925233139+924599699+924326102
834+924353208+924838126+925956633+927495467+929131524+930671777+931832548
824+932448365+932891840+933663049+934748477+935786563+936567629+937107430
814+937311956+937215405+937529923+938572713+939281496+938904031+938320920
804+938512303+939154256+939485574+939358333+938857734+937739302+935620269
794+932847784+931145195+932146393+934988920+937031564+937308894+937227204
784+937870351+939065546+940798526+943131493+944931529+944863951+943387244
774+942193318+942083850+942391646+942275607+941514329+940086606+938223622
764+937004234+937467198+938828836+938985871+937279922+935402526+935117803
754+936590851+939191666+942305849+944889041+945616418+944555930+943653299
744+944064740+944342444+942879028+940676363+940103407+942009029+944921150
734+946724769+946736493+945789955+944633514+943528597+943077730+943348340
724+942741483+940038070+936823827+935965775+937920455+939916728+939426583
714+937530147+937306878+939575553+941983192+942543230+941857595+940857741
704+939005136+935468013+930402585+925028763+921575048+921795479+923953043
694+923304892+917514701+909355849+902735159+899168690+898499034+899998591
684+901976420+902273912+900449608+898148376+896417487+894080786+890223172
674+886379372+883385785+878473135+869544642+862276474+865574199+875904952
664+884085458+887720774+888566954+887830766+884630786+877627627+868291278
654+861285431+860210831+864306871+870072795+874463340+875313477+871800772
644+865730114+859753243+854974927+851422123+849047713+848070111+849279718
634+852719394+855541536+855080065+853191021+852529728+851779129+847582057
624+839901328+832911760+830663172+832954323+836044685+836670210+834126146
614+829757852+826950869+829670038+837218524+842981162+841469433+834068051
604+824996711+816574791+810338511+807791011
##END=
