##TITLE=<SNM>
##JCAMP-DX=4.24
##DATA TYPE=INFRARED SPECTRUM
##DATE=2/5/2025
##SAMPLING PROCEDURE=Instrument type and / or accessory
##ORIGIN=Admin
##XUNITS=1/CM
##YUNITS=ABSORBANCE
##RESOLUTION=4
##FIRSTX=4497.3318
##LASTX=599.83466
##DELTAX=-1.4281778
##MAXY=1.8429592
##MINY=0.37881857
##XFACTOR=1
##YFACTOR=1.7163895e-09
##NPOINTS=2730
##FIRSTY=0.39871663
##XYDATA=(X++(Y..Y))
4497+232299623+232895083+233349500+233395044+233028347+232197978+231273170
4487+230943109+231319391+231956193+232633365+233366308+234021272+234486958
4477+234755482+234576639+233717013+232613831+232102375+232582351+233825934
4467+235303019+236461347+236973185+236864126+236345638+235639487+234990027
4457+234636456+234624753+234537346+233623216+231659505+229593575+228823596
4447+229765455+231468056+232682503+233032827+233028989+233189965+233431889
4437+233264819+232432384+231386796+231035708+231753527+232792830+233092765
4427+232454817+231490524+230831463+230756175+231115215+231354951+230972210
4417+230040873+229143482+228873828+229390007+230248122+230717038+230480045
4407+230010383+230044363+230678474+231248878+231190537+230654078+230083361
4397+229668498+229516777+229938585+231173782+232846708+233888945+233451909
4387+232046812+231127526+231335921+231926623+232039398+231615384+230854452
4377+229771758+228604679+227846854+227597134+227439821+227084341+226677326
4367+226345060+225936708+225516688+225548793+226133210+226539860+226070094
4357+225122296+224816302+225728209+227380039+228792672+229306281+228853548
4347+227705134+226225444+224821354+223900036+223765227+224524354+225985274
4337+227571106+228527411+228496123+227794503+226885756+225779865+224284062
4327+222633325+221422438+220982884+221237726+222064814+223259050+224181618
4317+224170297+223521966+223351006+224211570+225479861+226298631+226488499
4307+226334747+226162276+226226555+226453113+226399547+225924745+225518373
4297+225556051+225757570+225669434+225253720+224928365+225165531+225775785
4287+225707095+224219505+222051947+220706650+220912892+222261905+223857565
4277+224922930+225164993+224903292+224719726+224848337+224984205+224833804
4267+224697432+225105263+225954332+226495479+226214418+225382105+224668001
4257+224370983+224213532+223960061+223877203+224224974+224805345+225396117
4247+225970289+226277586+226163318+226274461+227231964+228237721+227841141
4237+226013350+224233621+223572893+223686623+223750433+223560790+223329163
4227+223013323+222485650+222091380+222412272+223445845+224457626+224831686
4217+224738913+224691459+224822813+224927827+224835488+224471239+223848432
4207+223231702+223091753+223590916+224265848+224568648+224532931+224557587
4197+224721862+224773345+224663105+224542655+224352613+223905523+223227014
4187+222564480+222285832+222734241+223812004+224844014+225272247+225287787
4177+225378285+225596056+225734078+225967146+226752509+228050630+229041333
4167+228853461+227496617+225885886+224926420+224761746+224984674+225223699
4157+225178780+224535536+223473765+222850090+223266342+224333374+225260578
4147+225661152+225496269+224883828+224232580+223948237+223861889+223519031
4137+222980246+222677897+222655307+222663763+222833681+223514951+224554080
4127+225380021+225704820+225688343+225656029+225884462+226289289+226306097
4117+225536535+224409582+223704247+223642068+223870675+224004668+223788094
4107+223136690+222434063+222380636+223202966+224358794+225203922+225571140
4097+225554332+225148619+224303266+223156692+222113969+221644672+221953410
4087+222866394+224022274+225089237+225817561+225981627+225381896+224093152
4077+222766746+222335092+223105991+224371712+225144713+225072846+224490339
4067+223952908+223933113+224495860+225065709+225023429+224598547+224493100
4057+224690452+224509334+223839785+223464858+224030504+225264433+226291772
4047+226471778+225878229+225031069+224317660+223851610+223673843+223734685
4037+223816240+223709299+223382208+222982121+222793763+223066854+223782885
4027+224700193+225569160+226180369+226367685+226150660+225812977+225726247
4017+225984492+226201014+225964924+225497033+225341856+225463244+225351806
4007+224962085+224748984+224920256+225346110+225872533+226159672+225719892
3997+224645064+223789501+223831642+224540276+225150182+225132263+224618672
3987+224348932+225015407+226493882+227941554+228658470+228571480+228037000
3977+227634205+227951225+228991274+229926119+229931623+229097156+228139861
3967+227549280+227418100+227757519+228469557+229178538+229499066+229449980
3957+229336736+229294526+229210990+229088388+229187619+229611251+230017363
3947+230130972+230261978+230755150+231262352+231133915+230317090+229378130
3937+228950453+229491426+231052064+232951583+234075932+233992257+233465817
3927+233460730+234108679+234887218+235475871+236017505+236524203+236564521
3917+235705294+234078050+232403682+231417737+231321665+231863646+232986796
3907+235142356+238598120+242490416+245133800+245655691+244425791+241991705
3897+238963202+236520418+235883025+237172968+238944154+239662408+239865924
3887+240879772+242155581+242084547+241190316+241189500+241612316+240876560
3878+239527807+239334744+240825650+243526871+246785630+249048773+248459391
3868+245805693+243703110+243189536+243408818+243459015+243411908+243795222
3858+245260778+248513287+253087565+255380573+252376743+247049363+242949244
3848+241177033+241665934+243828300+246761929+249781855+252655616+254922666
3838+255551689+254260722+252309442+250909260+250053349+249142883+248051872
3828+247238433+247440786+249606398+253956533+258323058+259390298+257723362
3818+256440902+255661582+253592631+250729861+249290159+250424630+253589158
3808+256752697+258141732+258807114+260592087+262580003+262722400+261857669
3798+261742828+261900904+261458225+261216266+262374473+265030653+268560750
3788+272379165+276138493+279786175+283816597+289093832+295894252+303318903
3778+310395487+317523120+325840908+335847979+347023120+357984830+367308201
3768+374731879+380554966+384584833+387059184+388906023+390288009+390533284
3758+389988560+390506336+393781972+400200450+408338423+415300826+420040264
3748+424920798+431620076+438937629+444607120+449398927+456295974+466667016
3738+479433059+491768386+501443192+508895694+516002456+524076844+533677925
3728+544763575+555866657+564457954+569658008+572865441+575184355+576324712
3718+576195320+576143473+577731702+580159588+580030127+576100308+571797940
3708+569995656+570241174+570853616+570600909+569266533+568046999+568442050
3698+570634872+573666066+576681183+579818780+583568958+586985376+587888828
3688+586288827+584711468+584448517+584990046+585463650+585319395+584926704
3678+585393501+586914881+588259779+588880068+588754496+586272019+580477477
3668+574137934+570297328+569155581+569330812+569955200+571443415+573981837
3658+575949976+575521239+573802334+573615365+575802422+578511595+578891298
3648+576297417+572766435+569915125+568111868+567346039+567342740+567374932
3638+566813539+565864457+565578378+567119829+570633031+574553405+576142501
3628+574349663+571261030+568821996+567835860+568850646+571591941+574517671
3618+576555819+578381995+580844713+583832811+587006768+590127940+592320448
3608+592541658+591269755+590474790+591620704+594095889+595529826+594604288
3598+593116524+593492060+595721657+598408813+601464560+605561762+609519501
3588+610418299+607609112+604285067+603154086+603847093+604798884+605821171
3578+607833725+610578250+612523713+613046767+612820905+612263540+611479340
3568+611231739+612046359+612865910+612500932+611148394+609365175+607274694
3558+605337566+604660047+605873886+608010345+609039924+607961450+605856800
3548+604232005+603083035+601155978+597850685+594481217+593295645+595058375
3538+597851796+598873110+597230673+594127768+591081536+589042589+588118371
3528+587387304+585960451+584298497+583502421+583665081+583829130+583276697
3518+582032159+580363955+578704919+577953849+578938005+581006609+581880786
3508+580188863+577569667+576887425+579011522+582032576+583503532+582891786
3498+581272685+579455191+577312793+574936198+573413394+573440794+574247566
3488+574564934+573792402+571972060+569626615+567824366+567314299+567706503
3478+568305158+568951561+569436903+569157074+567742654+565172040+561473605
3468+557451621+555004670+555370447+557395190+558531936+557746591+556457672
3458+556087902+555897668+554223943+551255569+549101086+549028542+549832813
3448+549313857+546972995+544395193+543131521+543170658+543456321+543286125
3438+542759806+542086246+541173731+539947668+538506160+537059860+536148143
3428+536349628+537261518+537596701+536905534+536201657+536293371+536506489
3418+535782262+534184033+532681545+532020451+532132758+532415225+532399529
3408+531900748+530680589+528618757+526080613+523632967+521706326+520691784
3398+520698312+521194940+521567697+521887357+522609117+523836778+525209596
3388+526021091+525563601+523995861+522491324+522028208+522202814+521784392
3378+520391918+518994548+518579285+518817789+518568416+517526162+516572183
3368+516350140+516443104+516312114+516205156+516581524+517210495+517557555
3358+517670660+517966428+518496462+519012641+519416166+519674185+519629214
3348+519176099+518337379+517122463+515565315+513901487+512522695+511747698
3338+511683836+512160947+512712060+512748385+511925291+510451939+509171702
3328+509178439+510838309+513038179+513937012+512796967+510650645+509031927
3318+508525576+508655767+508665629+508137921+507286560+506732529+506767152
3308+506913838+506391200+505009492+503421472+502484960+502554865+503403379
3298+504537902+505425900+505758096+505793170+506138250+506949051+507687272
3288+507816247+507387649+506866088+506665090+506830146+507005655+506809275
3278+506236770+505606965+505318108+505732954+506917553+508392399+509389856
3268+509253831+507736688+505490770+504003214+504231890+505480178+506227533
3258+505715139+504229737+502487113+501321232+501295847+502017087+502370431
3248+501889605+501239173+500947502+500565196+499571420+498288752+497294595
3238+496470668+495254397+493489202+491592982+490207627+489900330+490764609
3228+491955286+492098117+490682481+488615023+486969565+485851815+484946974
3218+484359293+484229658+484133396+483558043+482657613+481962626+481515588
3208+480845883+479813040+478859304+478263184+477841046+477508815+477393314
3198+477353760+477118451+476770976+476409157+475693960+474428864+473151405
3188+472482186+472206490+471561580+470290337+468913560+467965415+467436527
3178+466979557+466172195+464633105+462470288+460522359+459558032+459350991
3168+459095576+458570056+458195910+458074019+457662020+456479539+454738548
3158+453134693+452145050+451592443+450949407+450011125+448964113+447861886
3148+446584913+445279812+444205783+443255798+442241429+441405382+441079854
3138+441134410+441158440+440852845+440068680+438849701+437517895+436398895
3128+435538921+434903491+434586992+434576469+434581505+434351926+433912702
3118+433337419+432598468+431798363+431183144+430741593+430230311+429737052
3108+429571163+429428922+428516407+426806218+425313419+424760430+424694727
3098+424235431+423167131+422031323+421420236+421357416+421373946+421145895
3088+420837174+420691877+420637773+420538073+420425731+420223240+419673862
3078+418815625+418087544+417729303+417444404+416847000+415972962+415187026
3068+414707380+414311599+413568273+412369332+411075829+410085075+409435337
3058+408889537+408265462+407648819+407292036+407218346+407046726+406453941
3048+405633625+405001320+404676451+404515910+404375648+404105752+403507479
3038+402488527+401252046+400290184+400031157+400298136+400325779+399623222
3028+398512973+397554445+396854249+396148948+395215285+394114585+393220649
3018+392870395+392919429+392936549+392765208+392490693+392057719+391374644
3008+390566587+389746897+388746662+387346722+385698347+384362478+383844424
2998+384040943+384253088+383912280+383188088+382655171+382497998+382356869
2988+381880105+381086876+380194711+379429090+378976462+378800744+378595787
2978+378190456+377787487+377552699+377272697+376671959+375812854+374988510
2968+374368221+373819225+373053188+372020865+371136409+370926868+371386720
2958+371841988+371599734+370606201+369330618+368217452+367446274+366986284
2948+366662005+366277476+365791926+365352529+365131215+365109754+365053983
2938+364750644+364156400+363252115+362038207+360810998+360074964+359995857
2928+360177165+360054545+359405397+358480520+357629749+356838222+355862955
2918+354786808+354047545+353879189+354072756+354324491+354523718+354613938
2908+354421205+353825780+352968758+352119654+351484328+351208007+351296769
2898+351472937+351364034+350840494+350014726+349082208+348268248+347701820
2888+347327118+347076842+346936893+346730547+346198047+345389920+344597421
2878+343898614+343197516+342616884+342398141+342500133+342654945+342687380
2868+342513260+342033857+341293517+340569256+340121732+339958134+339869894
2858+339612325+339075345+338358272+337685546+337240001+337003234+336704341
2848+336094018+335332634+334807531+334545101+334232768+333848378+333733536
2838+333917866+333903211+333345673+332516502+331846415+331385973+330943172
2828+330456928+330000687+329600253+329238331+328962531+328854808+328834771
2818+328594705+327940106+327117047+326526449+326206754+325880878+325400086
2808+324872240+324467013+324306923+324429369+324672734+324688570+324233198
2798+323428579+322646775+322167650+321982348+321826494+321357509+320459406
2788+319415207+318606942+318099375+317706199+317333234+317035000+316857720
2778+316785488+316687906+316264448+315293627+314025440+313046910+312657866
2768+312624980+312587996+312407000+312071192+311612833+311148502+310719765
2758+310163998+309391154+308612337+308045423+307590363+307020567+306358744
2748+305861214+305641150+305459842+305003011+304287467+303605884+303097207
2738+302596447+301943028+301237172+300696095+300378518+300162414+299916965
2728+299585845+299156831+298666038+298216152+297911599+297747758+297577840
2718+297236476+296709740+296100390+295447596+294759347+294199065+293982266
2708+294059741+294119819+293925349+293505919+293031656+292596286+292152200
2698+291643696+291122118+290652247+290211061+289772810+289389652+289122447
2688+288977775+288908044+288816244+288637175+288424838+288237036+287986309
2678+287594487+287190198+286927768+286708434+286304336+285696565+285116698
2668+284793235+284756217+284838971+284800684+284485643+283924424+283299898
2658+282804451+282489132+282218767+281826633+281339086+280972702+280876352
2648+280949174+280959366+280792383+280513214+280217012+279926211+279629679
2638+279300330+278883974+278408356+278056973+277962464+278003529+277989517
2628+277924404+277904523+277894226+277775478+277498532+277086013+276619911
2618+276267087+276155284+276187753+276131357+275901605+275617314+275377804
2608+275160848+274956256+274825371+274769599+274676427+274459993+274175338
2598+273955413+273879622+273916693+273975398+274009431+274045807+274070671
2588+273966699+273666000+273296699+273061946+273009474+273014804+272981310
2578+272978115+273127197+273379800+273506743+273366916+273078389+272837437
2568+272703496+272668717+272767497+272946219+272978688+272727822+272399533
2558+272317664+272501282+272675923+272672502+272597458+272601208+272669516
2548+272668960+272468257+272027401+271471182+271048957+270918523+270954153
2538+270844364+270441603+269950984+269681799+269681730+269728854+269605904
2528+269271120+268847298+268541233+268493345+268646647+268815488+268857160
2518+268719156+268407622+268011841+267696870+267578365+267622919+267704058
2508+267725050+267691122+267697998+267821070+267979424+267980761+267742084
2498+267373824+267030810+266807917+266769266+266906454+267051091+266986690
2488+266707365+266463931+266462281+266568615+266444119+265988417+265492293
2478+265279141+265340537+265402334+265230593+264816493+264342247+263993104
2468+263784483+263620782+263500557+263503822+263564680+263475901+263183294
2458+262864138+262666612+262563734+262485303+262419131+262366434+262309134
2448+262236069+262154149+262063425+261929849+261735362+261562926+261513614
2438+261516392+261386115+261095469+260805709+260616743+260461428+260258537
2428+260032691+259863120+259789812+259794900+259846000+259936342+260083757
2418+260291753+260511834+260666524+260720420+260698646+260640600+260584065
2408+260570921+260616726+260705661+260827587+260963907+261065222+261111235
2398+261165339+261371495+261993329+263422561+266053513+270246422+276494130
2388+285460580+297740882+313671123+333308099+356360590+382160940+409919637
2378+438951451+468439088+497143742+523805420+547840921+569180411+587474954
2368+602059221+612615392+619228756+621980226+621347366+618376978+613051490
2358+603450791+588007246+567109585+542131217+516395528+495816520+485281046
2348+486251832+497258861+513939790+529739216+539995486+544728119+546540717
2338+547774906+549257113+550695773+551729520+552067897+551139581+548589526
2328+544930576+540885985+536289655+530416110+523254410+515557398+507651365
2318+499156609+489976138+480720936+471889261+463133742+453676812+443146721
2308+431673764+419582844+407409031+395832101+385218110+375415441+366098390
2298+357101798+348437020+340209243+332534004+325443391+318871872+312741870
2288+307065712+301943549+297414971+293385174+289797448+286748942+284299629
2278+282302476+280526081+278815197+277106311+275424251+273862849+272484770
2268+271278345+270227582+269340244+268592386+267907140+267216026+266529061
2258+265911081+265372694+264840316+264261108+263662002+263085521+262557049
2248+262116627+261789414+261528112+261247537+260895894+260475388+260044342
2238+259686379+259424921+259212046+259038863+258960520+258976581+258996497
2228+258949650+258834722+258666922+258459569+258235790+258019650+257840582
2218+257734301+257692524+257646216+257548078+257434939+257372778+257373160
2208+257400212+257439036+257515574+257645400+257788596+257865967+257819728
2198+257677991+257567265+257622689+257856886+258137426+258298524+258257060
2188+258052120+257830094+257764582+257900399+258088062+258164044+258160519
2178+258213704+258316686+258325524+258175851+257944432+257734405+257617896
2168+257632048+257734353+257814537+257797521+257673477+257431223+257086438
2158+256766084+256606948+256555310+256424477+256158782+255900554+255807295
2148+255906597+256098983+256249193+256333736+256508741+256955345+257673789
2138+258507492+259357898+260296962+261445549+262819409+264352388+265986681
2128+267677128+269426401+271370179+273675880+276325428+279139580+281969134
2118+284717705+287286634+289629197+291734472+293470498+294566370+294796643
2108+294094676+292525339+290284387+287701497+285088170+282556606+280073035
2098+277640461+275327450+273187136+271256519+269582272+268187038+267047583
2088+266103484+265265458+264471726+263766113+263262766+263002020+262863929
2078+262672776+262413020+262259562+262329450+262518901+262673054+262783328
2068+262924388+263097484+263211353+263191177+263079148+262994207+263001968
2058+263070362+263133044+263153082+263163968+263258061+263490139+263827319
2048+264214852+264609209+264952344+265200172+265350261+265412752+265415044
2038+265420426+265487050+265639986+265866405+266089212+266228084+266323079
2028+266480773+266710960+266948213+267182462+267456595+267789243+268145209
2018+268434258+268578426+268629248+268736728+268978860+269306438+269638495
2008+269930929+270163911+270320042+270382221+270363242+270323584+270303061
1998+270285263+270335409+270643644+271223806+271710050+271741982+271443956
1988+271233651+271315207+271571213+271789123+271868699+271889049+271996997
1978+272219665+272459245+272641092+272767133+272911388+273230336+273800497
1968+274391442+274641249+274525852+274382153+274443862+274649202+274905381
1958+275255809+275712830+276140403+276411133+276574488+276802660+277226483
1948+277885111+278799536+279924440+280923719+281249682+280763907+280019087
1938+279627769+279695833+279988111+280312233+280626684+280948150+281255916
1928+281535275+281921280+282566833+283327853+283954289+284544922+285231695
1918+285613065+285259425+284538931+284164091+284337898+284776896+285126890
1908+285191690+285036184+284919867+285022554+285304969+285653730+286054251
1898+286563310+287125137+287576794+287992647+288708973+289687503+290276330
1888+290056805+289463498+289125520+289203239+289533768+289914356+290208110
1878+290438626+290737398+291203170+292020829+293535506+295758748+297787485
1868+298342037+297332044+295984229+295267295+295166865+295238576+295259968
1858+295337269+295654880+296217801+296846460+297455150+298193372+299288029
1848+300955538+303225592+305353300+305918444+304642027+303024350+302361173
1838+302665657+303258686+303762294+304591083+306316551+308537466+309978939
1828+310220429+310113679+310074438+309659939+308827643+308220237+308209680
1818+308553128+308940193+309481548+310501265+311930757+313151785+313644349
1808+313612956+313717483+314477062+316003268+317909177+319435904+320072272
1798+320174473+320725135+322486199+325204644+327273317+327131424+325512983
1788+324454095+324882241+326296419+327874021+329301568+330496169+331304608
1778+331958096+333286360+336036754+339900661+343131466+344097599+343209740
1768+341736318+340514665+340386836+341851507+344079784+345588696+346226801
1758+346866051+347705153+348702818+350578793+353925133+357837936+360404139
1748+360984180+360711888+360788078+361675764+363296948+365114477+366486982
1738+367805801+370430032+374574081+377715186+377443588+375328172+373548738
1728+372548851+372373307+373104653+374461115+376385394+379624845+384681374
1718+390070689+392544241+391100615+388221419+386207163+385878718+387330366
1708+390223035+393576147+396330743+398847148+402502765+407237793+410782527
1698+411947297+411646911+410087922+407845129+406775823+407732059+410115877
1688+413588171+418759021+425092973+428900797+427950465+425460070+424599610
1678+426130018+429381763+432752203+435179187+437574986+440906428+443915780
1668+444787213+444560447+445551792+448194429+450963020+452573612+453823672
1658+456569968+462227999+471210909+481040631+485517848+484966803+485974470
1648+490225615+494527497+495536691+494726655+495284783+498354629+503920078
1638+511768430+520676747+527403737+530207819+532049413+536119598+543079744
1628+551937081+561635883+572029603+583080074+593935520+604049620+614386456
1618+625917060+637191658+645417247+651134522+656934932+663463772+669630897
1608+674652247+678842587+682728997+686248137+688976550+690926735+692758016
1598+695080611+697993283+701312050+704813341+708332134+711849399+715326659
1588+718516034+721179785+723420425+725617170+728140625+731293120+735369000
1578+740293393+744941501+747952103+750266988+754179652+760660707+768901506
1568+777140083+784527020+791608779+799434524+809384504+823005173+839415859
1558+851745803+856634567+859538071+863184242+866588506+868642177+868928256
1548+867737545+866365074+866216305+867838461+870530341+871106458+865527395
1538+856569697+850319158+847656588+845951782+843020010+839585117+837599441
1528+837537558+838444760+839576227+841181089+843039249+843574249+841935493
1518+839266811+836898585+835508473+835356023+836288645+838087352+840729225
1508+843314146+842811858+837917468+832664907+830115963+830162427+831689502
1498+833296726+833571345+832456824+831596920+832222210+833800958+834454585
1488+832788604+829669307+827185997+826308799+826176073+825681217+825332769
1478+826482780+829385312+833025579+835792260+835817264+832820900+829277451
1468+827591119+827908522+828451787+827677242+826622382+827488050+830741878
1458+833893748+832852779+827904632+823535450+821744591+821688056+821753690
1448+820966434+819649109+818644047+818136551+817917772+818379568+820243284
1438+823004895+824407370+823223257+821445108+820934486+821205077+821143749
1428+820939486+821334816+821919198+821761191+821200145+821383433+822095262
1418+821693265+819822326+817922634+816898750+816391253+815609137+814391200
1408+813425935+813084502+812595063+811317326+810113836+810066052+810896924
1398+811704669+812257449+812617218+812594646+812493105+813091933+814210065
1388+814257085+812197719+809764623+809788585+812942261+817566059+821822379
1378+825261370+828394349+831395991+833744771+835184056+836334206+837884339
1368+840048719+842955696+846449139+849308540+850013771+848882234+847855989
1358+847921901+848436829+848610671+848545107+848817990+849683589+850830961
1348+851570502+851427637+850898401+851242473+853116468+855774177+857930361
1338+859083915+859594329+859863739+860084393+860495210+861452696+863202369
1328+865512463+867747408+869683216+871857459+874564687+877184474+879316628
1318+881723401+885134332+889039565+892560858+895664736+898903840+902556192
1308+906227436+909011688+910391105+911111129+912526245+915077342+918008141
1298+920456170+922247306+923530321+924007536+922990181+920592160+918397012
1288+918125240+919722185+921143551+920281841+917160183+913860169+912290450
1278+912627925+913790229+914505601+913937054+912370877+911298168+911822958
1268+913296415+914396350+914999068+916033647+917995918+920408038+922635760
1258+924762913+927234555+929904418+932099219+933508083+934390490+935042173
1248+935503691+935575367+935088359+934384309+934003843+933664562+932479893
1238+930519498+928946446+928384845+928397832+928428114+928268857+927892280
1228+927386520+926845338+926389792+926377707+926939308+927158434+925814995
1218+923246395+921185084+920676129+921160776+921569857+921708278+922514147
1208+925016071+928858518+932231250+933817152+934231095+934887708+936422839
1198+938865728+942135044+945620569+948347175+950100599+951466610+952425972
1188+952287551+951488349+951821865+954328651+958168389+961930130+965022896
1178+967509609+969578144+971387477+972876908+973766469+973932462+973522895
1168+972900661+972734806+973651106+975762493+978649190+981325303+982533239
1158+981728273+979988740+979389912+981020472+984150603+987695025+991375297
1148+994682118+996458878+996611328+996544167+997084724+997803637+998865859
1138+1001338752+1005023955+1008018027+1009168108+1009818887+1011762544
1130+1014363440+1015545747+1014930180+1013952553+1013449223+1013249614
1121+1013537637+1014899482+1016844180+1018106637+1019121631+1021914912
1113+1026747419+1030793989+1031489636+1030098621+1030364905+1034555175
1104+1041043037+1044779497+1042301673+1036336797+1032034012+1031077221
1095+1032179587+1034844449+1039767523+1046578204+1052934521+1055340460
1087+1052090175+1046296779+1043411680+1045838524+1051548993+1056611321
1078+1058004211+1055298094+1050942108+1048275718+1048221058+1048885172
1070+1048690564+1048444837+1049843075+1053004461+1056020341+1056644520
1061+1054620575+1052301938+1052443346+1055531458+1059216245+1060440849
1053+1058767714+1057234527+1059183393+1064171128+1068450298+1070223308
1044+1071467429+1073239118+1073403376+1070699967+1067500591+1066457746
1035+1066773621+1066054916+1064435677+1064481030+1067599770+1071774691
1027+1073741823+1072404426+1068523433+1062862207+1056823640+1053316168
1018+1054322272+1058029492+1060336530+1059473292+1057635830+1057581795
1010+1059219162+1060202485+1059186935+1057382394+1056343300+1056062430
1001+1056199670+1057038529+1057893641+1057079715+1054954993+1054329912
993+1056313643+1058020741+1056004783+1051083029+1047262391+1046500416
984+1046941863+1046258163+1044827767+1044328883+1044843533+1045302552
975+1045040017+1043570520+1040718619+1037511811+1035679975+1035812214
967+1036609124+1036424794+1034827711+1032235844+1029425199+1027165737
958+1024976979+1021207876+1016026365+1012669190+1013376088+1015716672
950+1015125136+1010334233+1004341922+1000336399+998504423+996718704+993297423
940+988822602+985487931+984857293+986043281+986488200+985349301+984723317
930+986233236+988453249+989240088+988735786+988144319+987489998+986251294
920+984357575+981868291+979194400+977442574+976957788+976517384+975392862
910+974705966+975844657+978273585+979898520+979491175+977111072+973275363
900+969090024+965862380+964290925+964547000+966553721+969511677+971966650
890+972989075+972518806+970728085+968164278+965743962+963793707+962166133
880+961561124+963193768+966840286+970522572+972441295+972149104+969787060
870+965582274+960789426+957717635+957439127+958527880+959013291+958420088
860+957199998+956007551+956013385+957663948+959467656+959900004+959622884
850+960407987+962471382+964033322+963444495+961078075+958619212+957334322
840+957504205+958054277+957102069+954613688+953356371+954959914+957191942
830+957015183+954673418+953106964+954294341+957190969+958898276+958067751
820+956720075+957799730+961568972+965225908+966232845+965216601+964524636
810+965026715+965558035+964746818+962823025+961833451+963467276+966730827
800+968786929+968707891+968227620+968005091+967044549+965669299+965650478
790+967735403+970453952+971847954+971874555+971496033+970982424+970661618
780+971338026+972921011+974128391+973960105+972621041+970936654+969721843
770+969907284+972303013+976330901+979596189+979567782+975942517+970530560
760+965101239+960846378+958709015+958681442+959912089+962042367+965187361
750+968638646+970811846+970739337+968966119+967007183+966526773+967980713
740+970198433+971524439+970730308+967297707+962048826+957638736+956356485
730+957540321+959337361+961946799+966377656+971687794+975992871+978651760
720+979606537+978906515+978192186+978998541+979513956+976639136+970647728
710+965247717+963237384+963343301+962581952+960805122+960116699+961405548
700+963418867+964588047+964510329+963202519+960516682+956056793+949810977
690+943608292+941069488+943875132+948744102+950436198+947093053+941079975
680+935638223+932333833+931016369+931233689+933753532+938206683+939528314
670+931422047+917056837+909662051+912502422+917921672+921714806+924886679
660+929033263+933076430+934093090+929874275+921021660+911328727+904886705
650+902436454+901638086+901739905+904364345+908022045+907853829+903349698
640+899402655+898804382+900826174+904729532+907519202+903376507+892924447
630+883825550+879244466+875389934+870219675+867823112+871820996+879689246
620+886203500+890041987+893606342+896061316+892760329+884225602+878004234
610+878532289+881240699+879250577+873667001+872369331+878930952+886309555
600+883671641
##END=
