##TITLE=<SNM>
##JCAMP-DX=4.24
##DATA TYPE=INFRARED SPECTRUM
##DATE=2/5/2025
##SAMPLING PROCEDURE=Instrument type and / or accessory
##ORIGIN=Admin
##XUNITS=1/CM
##YUNITS=ABSORBANCE
##RESOLUTION=4
##FIRSTX=4497.3318
##LASTX=599.83466
##DELTAX=-1.4281778
##MAXY=1.7032036
##MINY=0.23068413
##XFACTOR=1
##YFACTOR=1.5862319e-09
##NPOINTS=2730
##FIRSTY=0.24981131
##XYDATA=(X++(Y..Y))
4497+157487252+157429121+157729459+157836702+157801023+157772690+157440112
4487+156420922+155063358+154336164+154875562+156592561+158980447+161104482
4477+161711452+160403723+158419190+157303232+157187046+157182086+157011452
4467+157192109+157840083+158464018+158957113+159641958+160281318+160195438
4457+159408460+158712585+158629241+158884985+158836136+158262027+157742780
4447+157928538+158511383+158580955+157900656+157086201+156628757+156435577
4437+156283018+156218537+156423036+156835501+157071395+156847169+156348090
4427+155853474+155190188+154061444+152605195+151224635+150270461+150021499
4417+150394181+150681057+150352039+149997902+150627388+152209724+153648011
4407+153982130+153137801+151835953+151078162+151294169+151825977+151641665
4397+150553532+149276870+148370709+147765450+147354506+147435051+148349441
4387+149923933+151315776+151453474+149957714+147673191+145953598+145429006
4377+145778953+146433231+146956038+147004841+146555476+146151465+146456603
4367+147443327+148342264+148494504+147938019+147127086+146473522+146207407
4357+146316162+146597007+147007180+147703082+148582320+149339594+150073101
4347+151123188+152242077+152656214+152051340+150873672+149681491+148769280
4337+148302705+148265458+148288567+147911208+147087706+146330366+146323734
4327+147316414+148753573+149602646+149262506+148132297+147157363+146856274
4317+146982671+147163290+147444530+147923251+148328793+148503231+148865250
4307+149754858+150699619+150991465+150669962+150324120+150201114+150057883
4297+149667728+149096119+148660225+148818928+149842655+151359655+152449235
4287+152444848+151547865+150472518+149719612+149407569+149493910+149835713
4277+150188855+150342852+150186732+149691777+149047392+148699520+148959820
4267+149677658+150484674+151085358+151124888+150297619+148962075+148072175
4257+148078563+148498600+148888359+149466104+150392433+151244118+151647884
4247+151774103+151908363+152120819+152382152+152530663+152318864+151855051
4237+151623497+151758480+151741374+151101507+150036182+149163277+148960158
4227+149489260+150436332+151389125+152136638+152674505+153032212+153247824
4217+153414109+153617725+153847795+153990519+153920965+153596786+152980648
4207+151964191+150701714+149921763+150293373+151454301+152336422+152511696
4197+152535087+152914852+153520412+154068687+154503303+154834021+155032283
4187+155082945+154983415+154732631+154292604+153577603+152655350+151918649
4177+151859138+152687337+154171326+155693258+156607188+156780762+156608343
4167+156458865+156425347+156466841+156428701+156156639+155823779+155788721
4157+156029105+156135803+155887678+155530891+155565480+156332008+157588679
4147+158581801+158804684+158466461+157955893+157320047+156663167+156477418
4137+157068643+158066386+158881753+159332293+159631531+160045264+160562182
4127+160753858+160151774+158806695+157308220+156370918+156407987+157183100
4117+157997152+158555986+159216201+160100595+160686334+160563159+159965246
4107+159437825+159379319+159782080+160295503+160727912+161229743+161752598
4097+161862433+161348615+160499937+159718520+159311231+159492217+160183432
4087+160948146+161369696+161483552+161686632+162111864+162328472+162046613
4077+161782001+162095969+162582770+162481633+161848492+161303186+161117521
4067+161204849+161492532+161834514+161945533+161717483+161436469+161521034
4057+162012024+162461981+162512615+162343165+162292982+162456664+162873647
4047+163574294+164270018+164501413+164186862+163649879+163135742+162595996
4037+161943879+161432767+161667112+163006818+164965066+166500150+167009364
4027+166814456+166632005+166836025+167347025+167939170+168382344+168481733
4017+168207276+167640570+166796082+165759409+164906222+164660586+165069979
4007+165772955+166378290+166870990+167593788+168673335+169615089+169834929
3997+169449829+169102662+169116584+169247274+169227021+169141760+169189181
3987+169370336+169560942+169677146+169651782+169456142+169286861+169533906
3977+170404341+171674512+172809803+173286890+172967454+172263294+171741153
3967+171568340+171647720+172068856+172851475+173490309+173426411+172787051
3957+172158212+171962496+172417526+173710957+175774945+177890582+178972684
3947+178830213+178710927+179648286+180754418+180222019+177878088+175488802
3937+174789827+176267626+179207761+182118004+183383647+182456641+180669364
3927+180048285+181233628+182968786+183886718+184353903+185489833+187069745
3917+187396339+185246508+181522514+178314573+176872284+177267210+179613847
3907+184583043+192125686+200135702+205458979+206603288+203849344+197754533
3897+190229325+185050792+185068303+189365034+193171282+192900508+191424907
3887+193134401+197183486+199487023+199732584+200256773+199647323+195687031
3878+191517270+191394565+195168761+200379346+205790589+209736208+209416190
3868+206268860+204927256+206023318+205711266+201914486+197470794+196263056
3858+200432197+210561476+224104557+231090940+223216518+208794416+197701212
3848+192860865+193860036+198717969+205092328+211882620+218857203+224235473
3838+224881315+220851093+215779990+211731187+208243059+205347039+204384073
3828+205525808+207443230+210559579+217056023+225375612+228926060+226123830
3818+222189014+218223442+211528369+203633487+199099556+200292508+206454843
3808+213684795+217804411+220270897+225014598+230223042+230244103+225867278
3798+221829766+218189135+213116135+207859049+204938642+205039402+207532737
3788+211658158+216124753+219204239+220921361+223443723+227644653+231190123
3778+231908787+231339864+232713839+237915726+246480424+255402735+261409111
3768+264705731+267566186+270887118+275428226+283022687+293810095+304417607
3758+311867718+318276385+328196101+344087284+363920103+380377035+388837402
3748+394837239+404350531+415588159+421703581+422544612+424913757+433149907
3738+447955700+466837126+483742869+492891933+494516054+493718235+494803061
3728+498817144+504321914+509128292+512083364+513309514+513775723+515378425
3718+519841281+527690621+539191170+554154558+568968693+577478098+579125403
3708+578978630+581005756+586479075+593571103+598229731+599512321+601319476
3698+606237718+612719245+618419637+623509115+629646932+636114856+637973904
3688+631794940+621635600+613671878+611154721+613886739+619196188+625324047
3678+632736075+639181604+638780140+632982575+629455819+629784987+628534149
3668+622611117+616075368+613740718+616355198+620937847+624807224+628173079
3658+631479300+633904170+637134676+645411746+659985769+676105379+683616269
3648+678272777+668420059+661157923+657656117+656963812+658167455+660794034
3638+664348823+668140116+672085622+677463610+685881516+696286605+702554323
3628+698726280+689107888+682052120+681341253+687320310+697424489+706128125
3618+709899803+711249918+713135569+714588267+714279164+714001250+715611994
3608+717458416+716966543+714420376+711793721+710368679+710425495+711780795
3598+714063326+716962785+720048321+722735925+725514688+730222616+737096139
3588+741678938+739501319+733593807+729450950+727916111+726619054+724623906
3578+723391555+724054024+725785538+726664972+725821611+724914821+726703751
3568+730938218+732956589+730222090+726658284+726243742+728379952+730398623
3558+730732301+729332510+727325938+727036827+730041273+735148938+739577374
3548+741086586+739224984+735719044+733042864+731827798+731169312+730693146
3538+730307764+729473872+728500121+729264272+732859342+737217660+738801349
3528+736985890+734537271+733533309+733264789+732137276+729862185+727503824
3518+726358425+726819937+728304950+730573729+733776052+736552711+736872259
3508+735502154+735298491+736993030+738476690+738153985+736904124+736547601
3498+737789646+739668383+740915314+741809779+743383397+744981815+744618829
3488+741872681+738835919+737812342+738700720+739212809+738061773+736219936
3478+734684871+733897047+734818492+737817377+740795220+740747348+737304537
3468+733299134+731899795+733446583+735421140+736132609+736555191+737598608
3458+738167062+737124396+735021855+733148829+732698365+734519761+737853075
3448+740336489+740923806+741024435+741544114+741669093+741492635+742673882
3438+745307225+747007325+746201916+743920436+741687130+739916161+738744158
3428+738658409+739678078+740892617+741387046+741492334+742372821+744215034
3418+745944293+746784648+746749853+745903485+744491821+743182664+742174569
3408+741167225+741004219+742995084+746256702+748268159+748120033+746920524
3398+745206521+742321191+738321575+734938886+734254623+737000394+741592888
3388+744879533+744851876+742679293+741384190+742319162+743707529+743119687
3378+740691810+738939254+739660943+741995555+743744429+743988149+743504092
3368+742977573+742856277+744561562+748911088+753915117+756613092+756409654
3358+754543242+751739753+748060663+743652518+739053410+735621647+734919347
3348+736741043+739146073+740726606+741402377+741624452+741955950+742732275
3338+743480343+743444646+743305238+745132796+749367114+753380933+754468164
3328+753288496+752587473+753547772+755454541+757636218+759427027+759238244
3318+755901698+751282600+749104456+750223025+751395630+749615267+745774824
3308+742738288+741872305+742808104+745055389+747956201+749483074+747568564
3298+743236924+740212337+741025788+744750421+748351428+749912646+750309977
3288+751153714+751901256+751050680+749706653+750626444+753851613+756293769
3278+755940327+754437953+754028673+753933755+752134078+749107161+746888810
3268+745992391+745923025+747107278+750031462+753630139+756078607+756126855
3258+753583695+750106238+748402456+749267987+750947420+751967841+752645416
3248+753451652+754031153+753973060+753533643+753291126+753381985+753353653
3238+752656989+751165813+749299702+747449748+745590550+744161901+744491671
3228+747244281+750857989+752803161+752258230+750315914+748454462+747775158
3218+748466937+749735962+750772390+751171074+750607355+749180811+747515957
3208+746190718+745510287+745754383+747312820+750277210+753751886+755965503
3198+755823916+754123665+752304299+750924950+749922265+749039524+747845276
3188+746244302+745011125+745270927+747326348+749880330+750650793+748695626
3178+745753030+744308073+745306173+747939517+750446003+750732634+747604111
3168+742005927+736395718+732763672+731410852+731418067+731808860+732214383
3158+732691827+733399162+734153618+734255675+733484686+732793658+732910370
3148+733259754+733496935+734298587+735395062+735002390+732214759+728322911
3138+725385200+724629091+725975373+728201841+729879169+730539159+730583348
3128+730373522+729892622+728999660+727740555+726167613+724281360+722629433
3118+722124409+722688654+723151518+723034956+723212617+724317208+725579169
3108+725475308+723309789+720303689+718412251+718198066+718616215+718432242
3098+717209736+715185128+713031032+711572998+711233835+711939367+713315334
3088+714528220+714485007+712864118+710779914+709914608+710821548+712460775
3078+713322097+712543367+710103241+706880100+704694065+705130626+707787567
3068+710239267+710220554+707852348+705445064+704903214+705593941+705392908
3058+703596688+701470849+700010035+698990441+698382157+698752133+699632394
3048+699344710+697464921+695688316+695246494+695336527+694998942+694595373
3038+694501658+694116952+693101717+692109478+691501570+690745912+689571128
3028+688469993+687703513+686872101+685969820+685725349+686315296+686803261
3018+686317400+685057469+683807758+682931480+682228804+681482164+680854340
3008+680749878+681095504+680972705+679534587+677237927+675625981+675729992
2998+676993380+677798339+676963019+674617585+671780202+669636703+669025638
2988+669701033+670109787+668751857+665910041+663324269+662247033+662564176
2978+663495241+664168983+663753915+662157676+660563391+660297351+661052784
2968+661089759+659292487+656325392+653761264+652649307+652898588+653523181
2958+653484778+652607372+651493763+650431632+648942110+646791771+644949633
2948+644748225+646115775+647216533+646201899+643243897+640380963+639503257
2938+640942577+643581407+645610299+645541985+643354146+640489633+638301794
2928+636874272+635545275+634021333+632454178+630631805+627923234+624503833
2918+621818409+620947429+621256945+621386395+620844057+619838967+618434555
2908+616763727+615440592+615137051+615819624+616670651+616915798+616490285
2898+615625016+614322924+612733073+611337454+610310269+609347867+608276455
2888+607174043+606031049+604908571+604151297+603928808+603902467+603685690
2878+603252699+602640093+601684341+600322052+598818100+597517511+596559617
2868+595900981+595380512+594708799+593697397+592575032+591773718+591249004
2858+590360288+588724894+586831089+585392858+584506434+583878235+583401242
2848+583065235+582745837+582336180+581659132+580376429+578422877+576230416
2838+574260519+572631438+571268472+570081514+569014236+568133974+567533168
2828+567040994+566224537+564721036+562512380+559991314+557819895+556656422
2818+556621927+556856403+556197691+554595478+553194259+552813386+553042301
2808+552917510+551972054+550534462+549273553+548459502+547586944+545955571
2798+543628699+541470244+540188631+539630511+539127816+538318010+537352677
2788+536380917+535256899+533972693+533033099+532951709+533381694+533178857
2778+531590847+529053887+526561980+524732017+523695101+523239075+522818372
2768+521966330+520811913+519853756+519357674+519161902+518773514+517629994
2758+515687151+513689297+512402499+511687460+510792431+509466854+508246866
2748+507628549+507474900+507352476+507024398+506435879+505561968+504422581
2738+503038159+501356359+499436138+497693351+496673006+496463706+496516952
2728+496196727+495408264+494449657+493379222+491925998+489997961+487965762
2718+486363173+485379239+484654694+483673428+482398015+481341258+480956364
2708+481102498+481113283+480350034+478804748+477155602+476066529+475515812
2698+474987828+474178811+473300204+472743699+472589186+472500243+472111742
2688+471367094+470319618+468897395+467226492+465868711+465258999+465106289
2678+464735524+463856992+462711668+461646494+460808769+460117892+459372905
2668+458473443+457538621+456684851+455814284+454791158+453650080+452498782
2658+451438079+450622412+450096119+449592146+448835097+447960097+447299882
2648+446891391+446480870+445887955+445164011+444498874+444103383+444075427
2638+444211716+444013952+443137298+441866282+440861944+440377698+440018883
2628+439316357+438252160+437126489+436130455+435230767+434407509+433776453
2618+433362326+432965971+432433328+431854579+431340686+430829160+430245526
2608+429625894+428974810+428197207+427216693+426050213+424789305+423626808
2598+422845297+422607327+422753386+422905795+422749102+422196205+421423036
2588+420758914+420381723+420145857+419822138+419361866+418804911+418140150
2578+417390654+416658443+416004466+415395656+414777902+414158195+413607515
2568+413133340+412585516+411840529+411028958+410395272+410007259+409745954
2558+409437416+408902518+408100190+407291737+406807266+406622353+406429700
2548+406087305+405678250+405227222+404718478+404279700+404019672+403848587
2538+403703656+403684717+403735445+403494807+402734452+401734172+400987983
2528+400646001+400427420+400059399+399589470+399156178+398711877+398188665
2518+397700700+397391034+397295252+397419141+397693823+397884297+397803095
2508+397536341+397276652+397078324+396896155+396693318+396429044+396069665
2498+395644978+395208117+394769151+394355662+394056217+393869689+393605828
2488+393098812+392470650+392047992+392021426+392242149+392358146+392155235
2478+391730999+391314804+391014570+390760893+390384229+389784023+389109154
2468+388633626+388402795+388209015+387895817+387470566+387027054+386718741
2458+386629873+386601428+386411367+386117633+385987432+386128906+386370860
2448+386467468+386313105+385950945+385452609+384899637+384438651+384176707
2438+384025313+383802974+383482824+383212351+383124046+383223360+383386517
2428+383402111+383147269+382795893+382681210+382873450+383083314+383054155
2418+382829298+382574080+382361700+382195237+382084049+382041850+382063682
2408+382103212+382055679+381806097+381379494+381033342+381062350+381453745
2398+381871405+382027346+381917886+381686079+381427253+381163468+380936733
2388+380866503+380999373+381119241+380901411+380253822+379357065+378487476
2378+377984593+378229364+379410311+381343045+383654773+386145402+388833269
2368+391588622+393990722+395767778+396994116+397557008+397117742+396027016
2358+395436468+395957425+397005464+398020586+399475464+401974660+405320411
2348+408989432+412654807+415907970+418013105+418471384+417404106+415170198
2338+412145912+408703890+405008679+401027400+396851552+392851297+389511520
2328+387013977+384904785+382540675+379990939+377991582+376940612+376466663
2318+375967462+375149352+374110106+373154617+372537314+372345863+372514242
2308+372810418+372974852+373002358+373082283+373232625+373253668+373049929
2298+372797154+372782048+373132860+373678918+374104544+374245944+374182703
2288+374099434+374123596+374222534+374247973+374145427+374036907+374019622
2278+374023868+373982121+374009101+374255826+374629447+374809061+374564327
2268+373975470+373347684+373000930+373114373+373630295+374257855+374644665
2258+374646657+374455469+374409513+374663904+375069953+375351249+375375786
2248+375278163+375288271+375452667+375637956+375777965+375936424+376151886
2238+376399965+376693210+377095050+377626078+378203587+378724770+379205933
2228+379743537+380349754+380985169+381707309+382590313+383562524+384492010
2218+385364756+386255952+387193592+388178315+389317251+390775886+392537085
2208+394372722+396121746+397841385+399657408+401608329+403654619+405794511
2198+408154299+410851673+413718853+416337542+418416673+420049888+421626474
2188+423478683+425548533+427477321+429036886+430329396+431602630+433016812
2178+434521628+435901503+436972313+437655637+437927239+437868995+437630800
2168+437233243+436624057+435884969+435069490+433929727+432125879+429704879
2158+427137294+424785171+422536721+420125491+417497295+414672163+411632808
2148+408402115+404977378+401657817+399598413+400024490+402712733+406277328
2138+409845982+413387731+416827724+419973119+422907787+425790599+428618061
2128+431354364+434026260+436702103+439400491+442000579+444412373+446754914
2118+449176703+451671766+454110201+456300483+458186285+460000429+461947555
2108+463885136+465553447+466910663+468213807+469927209+472357904+475319288
2098+478335271+481016411+483134734+484616967+485485692+485664631+484954252
2088+483154687+480131716+475933510+470786653+464914124+458647796+452535193
2078+446958352+441981453+437655187+433963245+430660142+427659040+425232141
2068+423570782+422512522+421655934+420565622+419129119+417612429+416162850
2058+414715864+413434777+412587207+412083911+411647801+411166975+410618700
2048+409985465+409343625+408855623+408629413+408507065+408106953+407361290
2038+406758079+406777656+407489125+408796477+410640720+413017042+416065678
2028+419883725+424147916+428225389+431611761+434126401+435870202+436990801
2018+437359161+436669599+434899758+432428406+429737570+427102235+424433307
2008+421452308+418131282+414822543+411908129+409485889+407378312+405320637
1998+403264540+401636361+401023455+401278861+401228809+399864829+397564749
1988+395423880+393922784+392885830+392114840+391519294+390994993+390492899
1978+390071857+389828852+389748476+389614780+389337279+389321685+389976639
1968+390855172+390943927+389947593+388629869+387760993+387372154+387127833
1958+386880018+386622170+386296158+385927949+385706812+385754309+385989874
1948+386380254+387228951+388830751+390553960+390845890+389030356+386414185
1938+384673428+384156604+384207407+384246787+384165810+384073824+384003331
1928+384087464+384903545+386808848+388896021+389905019+390142764+390616901
1918+390741278+389169576+386464800+384611803+384538341+385485902+386106924
1908+385750288+384881300+384310329+384220221+384204101+384029371+383999310
1898+384529849+385460650+386098657+386355153+387140572+388705622+389564315
1888+388441424+386251555+384585387+383795045+383480833+383446188+383600175
1878+383746685+383778737+383910142+384974827+388249033+393968552+399574853
1868+400882506+396958945+391343926+387426452+385824088+385524304+385573304
1858+385577700+385494394+385438443+385562595+386086934+387327175+389591633
1848+393243819+398312591+402943789+403461665+399118790+393913503+391195951
1838+390841607+391069168+391216129+392698700+396997385+402792657+406313702
1828+406153665+404676956+403234704+400815771+397397835+394711359+393734113
1818+393861647+394298133+395234157+397360597+400422009+402793033+403124005
1808+402010094+401208405+402025651+404784461+408702725+412017626+413283908
1798+413048568+413591921+416904643+422526012+426403204+424472274+418796344
1788+414707823+414380045+416362756+418661182+420705555+422301907+422996542
1778+423551806+426209649+432654727+441765502+448726464+449170841+444712908
1768+439394779+435499475+434657466+437646882+442328056+445146162+445913469
1758+446761753+447844550+449002199+452540905+460449127+470379778+476654297
1748+476906810+474243593+472357040+472847673+475627301+479293315+482049758
1738+484640903+490569947+500930019+509560156+509368367+503808059+498858365
1728+496231109+496406064+499544432+504638344+511258076+521252532+536262364
1718+552933367+562273958+560615117+554634745+550783893+551236762+556322632
1708+565623768+577003171+587138087+595944982+607233940+622100494+634510726
1698+639526254+639405934+635784486+630575065+628692307+632687226+640973165
1688+651886585+666908291+685860173+698962635+698037432+691543956+688964271
1678+692921501+702319095+713365460+722425770+730463931+739243997+745167517
1668+744097947+740593661+741622499+747633571+753124513+754045657+753527105
1658+757088431+767841476+786219268+806002937+812269603+807205151+806755664
1648+813239221+817385459+811201761+800146303+792617826+791367589+796621951
1638+807250243+817703053+817699070+806038785+794003413+788336764+787961829
1628+789051239+789506288+789624052+788241095+783087438+776422764+773279811
1618+774277686+773809336+767250026+758330477+752080795+749090703+747303952
1608+744727424+741110560+737556899+734881545+732800798+730602362+728267674
1598+726516020+725704974+725216333+724234991+722664304+720834341+718829723
1588+716595515+714392945+712757777+712040146+712398248+714532654+719769580
1578+728075284+734960079+734203745+728691309+726721562+730318811+734416652
1568+734100786+731389509+730228929+732331771+739951408+756063877+776108627
1558+781146925+767933839+753601055+744709688+740436141+739257149+739790656
1548+742182234+748673381+760830951+777258986+794436817+805760044+801622148
1538+786212805+774960822+773306115+776789508+778200421+776625751+777256581
1528+782724000+791181737+800557312+811143443+821571077+826795228+825704314
1518+822692578+819104272+813844574+809124772+809263729+816630477+830822876
1508+847104890+852276509+838825790+821598207+812642585+812549095+818154494
1498+824478051+825800434+821567169+818244978+821351181+829938180+836715357
1488+834963778+826977247+819503181+815900821+815551963+816739598+819343031
1478+824707341+833298925+843448796+851338605+851935241+844586980+836022978
1468+832639161+835336760+840127882+842192998+842160907+844879324+853030739
1458+863478439+867408614+861702661+853757764+848838432+847380474+847964935
1448+848383985+847051606+844501757+842334134+841598992+843135861+847863404
1438+855060458+860594387+860703358+857992382+856809782+857321421+857175399
1428+855941320+855637253+857263553+859881415+862961465+866931696+870270647
1418+869136971+863138900+856481216+852333174+850812237+850311797+849751535
1408+849907627+851667548+853725900+854296457+854578129+857104756+861646973
1398+865450666+866783646+865764954+862940272+859816709+858570981+859494154
1388+860024956+857674637+854170276+853699296+857565290+863327683+868283389
1378+872401896+877261332+882852678+886820955+887767200+887513861+888145818
1368+889416497+890475546+891836708+893871386+895007392+893452336+889943316
1358+886897235+885618590+885523973+885511949+885225392+884714430+883716255
1348+881969861+879785930+878083575+878064186+880304707+883740529+886063117
1338+885762507+883491774+881072841+879822604+879773530+879982904+879836432
1328+879920678+881017228+882686515+883847471+884528804+885820525+888114705
1318+890564601+892346993+893430542+893993885+893937746+893183290+892126721
1308+891535346+891873908+892917476+894131489+895074428+895479049+895484384
1298+895543755+895503022+894352513+891564806+887843029+884114413+880723532
1288+877732839+875122342+872590454+869706327+866274262+862419616+858575716
1278+855437723+853676299+853482481+854232202+854742938+854240469+853094168
1268+852316415+852367368+852791754+853018715+853073426+853311734+853909572
1258+854886104+856149868+857282792+857891001+858393922+859701801+861917973
1248+864160749+865797720+867073434+868447372+870058266+871898149+873965294
1238+876150653+878242974+880125694+881876372+883558134+884977013+885943099
1228+886795553+888231342+890477951+892997513+895182647+897056424+898945082
1218+900706431+902005742+903333011+905692047+908979969+911733482+913025128
1208+913719461+915324493+918370725+922237321+925928511+928674132+930190860
1198+930837622+931451768+932778886+934910286+937593381+940892049+944740533
1188+948227158+950336989+951236790+952098564+953748086+955846118+957556739
1178+958917977+960934769+964083959+967638372+970849337+973770891+976417010
1168+978191210+978935295+979644133+981225492+983215981+984393997+984554071
1158+984935546+986401771+988067075+988360320+987236715+986831342+989459500
1148+995069409+1001194563+1005261816+1006254881+1004997730+1003652801
1140+1003894717+1005243403+1006297793+1007200976+1008915580+1010956421
1131+1012194934+1012917676+1014130111+1015806012+1017268479+1018464907
1123+1019658780+1020691826+1021506178+1022850281+1025462055+1028694890
1114+1030917375+1031293513+1030734153+1031181762+1033888905+1037973218
1105+1040945724+1041245433+1039474915+1036847884+1034309684+1033427995
1097+1035971305+1041755267+1047719219+1050394948+1049653118+1048415206
1088+1048461650+1048552585+1047392531+1046503026+1048196588+1051591076
1080+1052979292+1050978883+1048957131+1050718330+1056314936+1062943837
1071+1067704522+1068877878+1066996511+1064984152+1064849028+1065029319
1063+1063118116+1060169958+1059391153+1061753722+1065280554+1067666570
1054+1068693454+1070078214+1072490835+1073741823+1071437647+1066652688
1045+1063029511+1063127810+1066593844+1070767212+1073045911+1072900942
1037+1071571569+1070255273+1069280170+1068681279+1068595305+1068995266
1028+1069674495+1070256100+1069912052+1067878350+1064943420+1063255344
1020+1064057672+1066790067+1069862827+1071701959+1071272988+1068976629
1011+1066658249+1065488125+1064822650+1063737072+1062775195+1062882813
1003+1063444578+1062744608+1060215576+1057365192+1056187853+1056649816
994+1056433902+1054017825+1050762594+1049100447+1049509502+1050427940
985+1050516620+1049546477+1047677960+1045036801+1041469838+1036710731
977+1031605697+1027709190+1024972888+1022051785+1019101824+1017593814
968+1017531288+1017312293+1015824048+1013008836+1009159074+1004876734
960+1000628063+995857157+989820683+983115653+977313053+973524090+971849091
950+971558927+971510830+970980253+970281710+970188070+970678741+970715942
940+969532741+967574267+965819381+964925517+965141881+966038901+966168840
930+964366984+961575068+960091633+961028033+963201519+964628364+964744625
920+964457242+964278604+963686177+962404451+961175032+960980612+961956317
910+963234961+963879169+963786806+963559695+963638004+963936811+964025040
900+963193778+960832186+957248238+953856681+952086239+952132608+952939746
890+953387805+953049393+951611275+948737293+945124713+942476113+941997167
880+943750324+947070561+950450094+951576555+949286357+945302975+942477090
870+941652517+941306440+939762206+937051832+934589009+933730843+935001070
860+937863554+940918052+942942961+943832616+943999981+943445055+942275907
850+941476435+942049848+943397859+943909347+943385308+943062228+943393350
840+943626698+943202387+942433803+942188655+943317896+945927266+949096372
830+951517410+952173190+950853437+948638919+947194638+947053953+947406869
820+947678695+948223401+949420430+951199590+953263127+955010347+955604728
810+954710414+952870906+950997730+949812350+949659565+950176388+950221705
800+949158448+947794580+947022689+946665640+946988344+949525267+954175779
790+957267778+955595109+951142699+948276533+948169291+949025879+949839254
780+951064616+952757050+954660513+957036910+959488685+960447104+959050245
770+956059927+952764866+950289117+949122675+948242715+945966571+942466719
760+940002619+940243558+942513239+944818166+945664684+945186714+944809824
750+945710076+947802396+950373063+953246518+956728108+960788447+964882379
740+967844515+967904036+964754921+961064332+959406618+958846807+956698573
730+952310268+947561533+945049034+946177148+949589147+951764586+951013813
720+949524215+949591101+950947303+952861287+955437289+958188997+959913822
710+959956659+958067025+954060570+949119218+945573899+944016289+942658433
700+939998110+936610010+934186568+933759701+934494016+934408793+933025612
690+931300937+928596725+923251879+916571123+912245120+911436855+912040404
680+912422254+912562263+912322151+911288203+910056829+909358663+907724622
670+903463851+899413658+900203510+902198884+899625588+893871086+889591602
660+887835514+885727486+882101453+879133080+878178718+877693308+874941224
650+868908207+862284116+859053836+859468527+859692557+857166982+853888154
640+853525167+857942556+866435314+876056487+883109624+886021558+885356609
630+880527309+870488514+858280968+850627137+851169738+855302223+854318176
620+846381171+838569820+836157125+837298691+838300699+838374649+838511728
610+838623855+838355861+837990320+837876990+838453935+839375155+839169838
600+837570593
##END=
