##TITLE=<SNM>
##JCAMP-DX=4.24
##DATA TYPE=INFRARED SPECTRUM
##DATE=2/5/2025
##SAMPLING PROCEDURE=Instrument type and / or accessory
##ORIGIN=Admin
##XUNITS=1/CM
##YUNITS=ABSORBANCE
##RESOLUTION=4
##FIRSTX=4497.3318
##LASTX=599.83466
##DELTAX=-1.4281778
##MAXY=1.8615086
##MINY=0.37795454
##XFACTOR=1
##YFACTOR=1.733665e-09
##NPOINTS=2730
##FIRSTY=0.39693949
##XYDATA=(X++(Y..Y))
4497+228959740+229552172+231024784+232686610+233628573+233220061+231779561
4487+230472561+230307464+231414833+233049911+233996034+233389266+231460628
4477+229196434+227394507+226372007+226240673+226953849+228159237+229316423
4467+229989563+230014867+229542717+228967253+228651638+228649489+228821220
4457+229176648+229664597+229823986+229399074+228898680+228757840+228621503
4447+228177906+227855621+228013325+228245498+228009973+227374875+226870888
4437+226924178+227437569+227876318+227887767+227739019+227982589+228763598
4427+229574829+229776643+229297101+228617343+228024963+227260198+226240518
4417+225634472+226105625+227356378+228503955+229019563+228777660+227800044
4407+226540112+225826316+226014740+226621749+227037532+227096856+226891500
4397+226558333+226256264+226052988+225924937+225979121+226426071+227225904
4387+228020511+228439337+228223134+227243627+225811670+224668614+224177108
4377+223970170+223815044+224039361+224675972+225141693+225102018+224796047
4367+224470805+224217574+224112042+223975534+223425666+222530907+221909132
4357+221915458+222265660+222671043+223248467+224039224+224700846+224964065
4347+224896696+224535888+223847053+223159954+223048750+223606869+224168770
4337+223879800+222512754+220744554+219480100+218978021+218969976+219429526
4327+220606103+222274995+223557533+223773650+223134134+222324090+221674088
4317+221118651+220725267+220700375+220969920+221229924+221379033+221555441
4307+221816201+222038472+222110964+222109933+222310802+222950816+223764608
4297+223810626+222290861+219805118+218078759+218008984+218785696+219352238
4287+219745365+220408122+221080677+221151880+220606051+219989055+219658072
4277+219481149+219285918+219327776+220058951+221459398+222842826+223451142
4267+223153439+222485439+222044902+221945627+221935898+221948137+222198188
4257+222697929+223115517+223193699+222956197+222514852+222017174+221733309
4247+221871193+222353950+222959927+223564753+224124969+224512113+224508555
4237+224024904+223304095+222776764+222559942+222308705+221776251+221273966
4227+221300490+221919103+222672917+222918464+222291807+221176290+220513567
4217+220714110+221155524+221205084+221119562+221413173+222078062+222854121
4207+223566644+224033035+224242345+224475498+224792299+224856780+224551651
4197+224143982+223733545+223233065+222872600+223050211+223682472+224140578
4187+223854307+222891252+221995067+221862976+222287045+222342209+221594325
4177+220754645+220877246+222172815+223859636+225064577+225609821+225835135
4167+225949777+225830476+225338334+224578090+223757697+222923827+222045056
4157+221322460+221098899+221384861+221828097+222245719+222781216+223430273
4147+223860582+223877755+223698838+223543660+223229524+222435329+221321978
4137+220639005+221006123+222176322+223206420+223377223+222783159+221985457
4127+221425069+221308243+221613441+221936379+221754780+221131904+220743093
4117+221016815+221689267+222296276+222689643+222945659+223036184+222777795
4107+222076051+221116021+220251156+219760733+219767024+220232471+220906281
4097+221369578+221336040+220972034+220795008+221160647+221910164+222591572
4087+222941791+223021486+222988583+222831928+222345234+221544731+221009354
4077+221347093+222368596+223318226+223765192+223680719+222998777+221808998
4067+220670790+220191695+220490584+221209399+221774085+221721517+221130873
4057+220603507+220526924+220706134+220902035+221182049+221477637+221407861
4047+220926909+220549254+220539679+220503098+220194772+220052367+220456083
4037+221077153+221392665+221413293+221572631+222170254+223088270+223915694
4027+224312585+224291785+224164284+224246144+224551840+224756681+224613090
4017+224293590+224013748+223589954+222862561+222224627+222147184+222428900
4007+222430670+221956251+221485957+221499709+221872173+222111102+222054580
3997+222032112+222350495+222910453+223401066+223674840+223808460+223893020
3987+223917602+223869985+223815663+223802736+223801739+223855356+224165074
3977+224849233+225676038+226195015+226145146+225679098+225202014+225040339
3967+225272752+225809109+226500350+227141069+227490824+227342454+226592439
3957+225496743+224859857+225469255+227265321+229433988+231099613+231700502
3947+231345281+230970754+231326904+231874709+231476134+229967783+228213971
3937+227178561+227637785+229884118+232940529+234628003+233643271+231396903
3927+230376828+231215889+232358670+232468929+232214907+232940615+234647497
3917+235983480+235891821+234754679+233539939+232537037+231724569+231974998
3907+234816031+240561049+246971781+250763183+250998244+248934920+245259088
3897+240601464+237080483+236718076+239052183+240998802+240320951+239024300
3887+240050994+242902943+244901271+245715733+246633062+246390781+243503918
3878+240467585+240429818+243326565+247614580+252445105+256041981+255721106
3868+252587475+250482361+250233995+249370644+246533530+243563930+242980901
3858+246292693+254228261+265227890+271491437+266259844+255642941+246980290
3848+242644882+242765609+246140111+250609604+254713579+258433452+261344570
3838+261760216+259382893+256301504+253934512+252001679+250316165+249456062
3828+249532353+250267791+252696789+258231276+264728716+266811517+264115141
3818+261304603+259325099+255819366+251317400+248840132+250021281+254304466
3808+259145803+262075264+264223062+267920089+271635819+271773651+269285347
3798+267304416+265544020+262668073+259904534+259444022+261747598+265788158
3788+270471671+275137306+279454665+283843638+289354815+296053142+302356743
3778+307380350+312717234+320486451+331471881+345014995+358842472+370016893
3768+377784425+383197566+386487904+388187755+390302341+393693036+396535530
3758+397340280+398077162+402102800+410603295+420914862+427948469+430975657
3748+435154289+443762224+453904604+459079005+459587255+462148893+470680709
3738+484652173+500025888+511854161+518961446+524127252+529877771+536898760
3728+545160584+554464212+564218709+573272011+579875893+582867016+583277590
3718+583145706+583506772+584661964+586652470+588360160+587640916+583774804
3708+577902922+572347204+569591108+570025990+571557651+572270054+572268060
3698+572225393+572645216+574821034+580257657+588406162+595374789+596254867
3688+590895326+584145635+580079633+580450326+585089385+591726789+598162653
3678+603949752+607176933+604842138+600140850+598325274+598088115+594384212
3668+587070333+580080115+575161713+571923255+570093101+570085434+571794878
3658+573351809+572634042+571060540+572903965+580415189+590726104+595619442
3648+589973235+579349456+570973247+566888990+565931315+566467242+567151453
3638+566865336+565387550+564203547+565918629+572048401+580572515+585553319
3628+583399573+578278909+574628365+573476886+575310100+579845776+584096058
3618+585222370+584525817+584332734+584470807+584270024+584731138+586376531
3608+588108012+589302123+590399487+591542164+592499599+593894699+597084611
3598+602195992+607065127+609016645+608258963+608239022+611855117+618230746
3588+622598747+620840517+614552353+607965076+603288199+600695343+599835825
3578+600396093+601727727+602680141+602477845+602222259+604423312+609822185
3568+614938173+614675161+608750676+601902312+598212849+598187201+599515603
3558+599873712+599163407+598612077+598691909+599112798+600069407+601931879
3548+603865107+604284208+602974715+601403379+600766854+601051252+601719063
3538+602011299+601070161+598867182+596534520+595179782+594832468+594748991
3528+594407041+593813973+592983748+591807515+590716890+590327906+589866448
3518+587687536+584149416+581983294+582896308+585394136+586710023+585990504
3508+584564254+583534414+582341060+580026550+577437544+576813878+578754463
3498+580905940+580585580+578103567+575933147+575368031+575700493+575751411
3488+574965743+573528319+572006182+570519869+568444890+565462225+562357612
3478+560098317+558816398+558273114+558410259+558978400+559220406+558333383
3468+556533793+555384996+556269131+558578174+560187914+559847682+558251179
3458+556703531+555691260+554807091+553477416+551743012+550504963+550539309
3448+551302252+551403262+550247520+548421938+546772455+545929852+546126544
3438+546748938+546578135+545056960+542679259+540120027+537826489+536015107
3428+534449615+532963474+532303674+533228722+534982310+535933556+535451125
3418+534126849+532736287+531721574+531073360+530423393+529565766+528630885
3408+527603074+526259888+524800254+523838729+523614601+523781038+524008914
3398+524312702+524626460+524489487+523586237+522383771+521704408+521908974
3388+522835121+523864686+523767114+521628977+518246052+515423602+514159044
3378+514433024+515879284+517642396+518519448+518110180+517019108+515857830
3368+515006907+514895170+515365189+515387708+514500239+513610638+513575466
3358+514039881+514399538+514903868+515949455+517021480+517097943+515795876
3348+513809393+512180916+511258309+510577708+509508778+507826323+505845340
3338+504397396+504516388+506452985+508999668+510460608+510252054+508937783
3328+507250205+505898768+505548703+506058398+506396291+505931670+505003047
3318+503953266+502789066+501993875+502364843+503706963+504771974+504825196
3308+504333655+503940958+503676777+503198575+502186166+500694215+499435193
3298+499166061+499700990+500299421+500835932+501585054+502318876+502697167
3288+502994835+503553006+504191937+504721435+505190835+505340391+504728139
3278+503673476+503283083+504118809+505282769+505356653+504132906+502744303
3268+502176574+502513127+503409673+504323512+504470077+503509893+502133632
3258+501356938+501473420+501948905+501983217+501061951+499278692+497244557
3248+495626944+494839763+494970960+495658437+496146334+495834845+494846571
3238+493800744+493066406+492481109+491782321+491028455+490466743+490116300
3228+489706447+489061328+488291750+487481121+486435363+484955789+483214337
3218+481686767+480790015+480652629+480982409+481028445+480171231+478798134
3208+477930811+477799305+477531067+476453816+474938211+473785460+473436255
3198+473735607+474145666+474297904+474287762+474188986+473671247+472511516
3188+470949841+469198247+467326423+465807483+465221429+465254813+464877347
3178+463673609+462262109+461256817+460552837+459850096+459187717+458567454
3168+457634843+456165377+454524798+453320338+452734353+452343891+451535257
3158+450086350+448362260+446925456+446070098+445689675+445368766+444702158
3148+443690093+442616830+441579873+440558285+439750235+439313325+439002592
3138+438473335+437748658+437122482+436715346+436309344+435684990+434996138
3128+434511817+434066518+433267441+432163751+431136903+430317988+429631096
3118+429089772+428681260+428344570+428181983+428203884+427944172+426916257
3108+425369984+424095285+423578130+423668036+423888932+423801192+423214967
3098+422297036+421375289+420605470+420022511+419728040+419702082+419719307
3088+419735191+419959250+420332487+420420605+419945876+418949317+417574122
3078+416137352+415098848+414564813+414107377+413341616+412417943+411718124
3068+411309715+410942082+410421249+409772656+409165940+408812850+408760970
3058+408752649+408515319+408070949+407500607+406685956+405522856+404128168
3048+402769304+401770923+401357048+401410338+401516540+401340614+400901331
3038+400475354+400243903+400060310+399648464+398898964+397846364+396593221
3028+395364076+394365145+393595463+392997308+392580545+392258329+391870789
3018+391409881+390985279+390641713+390357316+390076735+389702226+389198754
3008+388630338+388037958+387411954+386688274+385678753+384307100+382988359
2998+382324227+382335779+382413995+382049834+381245326+380288923+379539423
2988+379307078+379512950+379560258+378942677+377842907+376773460+375910642
2978+375159148+374506327+373929040+373309328+372712891+372368500+372243079
2968+372033631+371601363+371021498+370296202+369412033+368595629+368148267
2958+368015832+367789676+367192414+366393647+365751037+365359303+365010992
2948+364562152+364116199+363763109+363344146+362678157+361889429+361299869
2938+361079144+361092690+360986282+360432993+359435471+358309124+357332953
2928+356661257+356477217+356746590+356891607+356249960+354865277+353389072
2918+352310618+351671205+351359338+351276789+351239108+351026120+350604956
2908+350151027+349838369+349689741+349561089+349222129+348603311+347951624
2898+347519115+347197964+346741767+346185487+345744451+345446817+345129827
2888+344714336+344318167+344089844+343971506+343730841+343285783+342833195
2878+342548076+342351659+342091259+341753744+341378925+340905915+340231434
2868+339384775+338552727+337898359+337415275+337025329+336751281+336667288
2858+336718860+336716315+336470700+335865565+334943783+334026093+333532008
2848+333542116+333712575+333688646+333407756+332988070+332556696+332185315
2838+331849484+331487077+331105623+330726369+330284440+329735380+329165588
2828+328637466+328068121+327468556+327135475+327308617+327747383+327927985
2818+327580431+326854757+326104913+325627847+325405747+325064037+324312440
2808+323360885+322651233+322318324+322135213+321839401+321364191+320844939
2798+320441481+320125797+319703533+319059204+318295299+317628520+317171634
2788+316806442+316362312+315927843+315765325+315847014+315729982+315053576
2778+313987464+313029480+312478185+312236523+312048736+311753680+311323406
2768+310831968+310411732+310124481+309848851+309368518+308596877+307684276
2758+306870243+306258060+305808085+305478512+305207592+304845872+304313728
2748+303731593+303234483+302790559+302285644+301643412+300857675+300028653
2738+299335503+298908460+298734872+298644485+298408805+297973820+297514631
2728+297149646+296771870+296278507+295785763+295493080+295419196+295342767
2718+295050050+294598390+294163440+293712571+293127377+292538917+292187236
2708+292040293+291831052+291382246+290747028+290131613+289723720+289506022
2698+289254389+288786536+288186284+287721164+287534838+287487685+287341137
2688+286998430+286504087+285962951+285551724+285418636+285462729+285387453
2678+285048493+284572440+284102611+283645983+283220505+282922476+282760680
2668+282609009+282399012+282202182+282067788+281921154+281675006+281351775
2658+281047368+280802629+280542178+280167549+279709082+279343288+279214532
2648+279244942+279193835+278941842+278603776+278288574+277930946+277488724
2638+277100600+276878982+276731162+276532665+276326432+276219542+276187517
2628+276087211+275834495+275505764+275258171+275184047+275248407+275332004
2618+275307594+275104851+274757451+274405530+274193487+274102326+273924750
2608+273503483+272966955+272615343+272577335+272688110+272709323+272572230
2598+272384373+272282864+272292714+272280320+272090728+271768907+271536751
2588+271507665+271566181+271573298+271549128+271589216+271687012+271712677
2578+271562107+271266622+270921268+270588892+270334182+270237298+270288972
2568+270373101+270404010+270394125+270375594+270356942+270381748+270524067
2558+270748694+270884858+270864625+270852764+270972254+271064945+270908736
2548+270505605+270012207+269561373+269233140+269036826+268882233+268690079
2538+268519482+268473515+268502034+268413847+268092577+267615080+267148517
2528+266811758+266629866+266538758+266442423+266306172+266188315+266179582
2518+266294844+266406701+266361989+266181817+266009982+265872356+265683176
2508+265457398+265323124+265348016+265457261+265479728+265284566+264942066
2498+264683608+264643417+264721530+264732412+264620846+264489392+264419788
2488+264334146+264123804+263851269+263677818+263630579+263578836+263412106
2478+263142665+262855087+262628897+262498611+262427632+262326174+262148718
2468+261975371+261939047+262055409+262158070+262041897+261690664+261304586
2458+261050203+260890470+260749457+260683000+260732233+260749526+260540715
2448+260111386+259651372+259318515+259142743+259110082+259193180+259271207
2438+259181645+258906479+258582527+258328402+258176112+258121808+258134632
2428+258160641+258162549+258122891+258023428+257865740+257704615+257622944
2418+257646581+257713451+257798440+257994256+258320185+258565130+258531729
2408+258317331+258159386+258145634+258231792+258390235+258609688+258858363
2398+259135661+259518525+260167822+261358340+263530737+267290200+273284546
2388+282040387+293960869+309455192+328862659+352127643+378678358+407665841
2378+438107180+468827588+498740187+527373789+554654578+579873762+601219167
2368+616672956+625347004+628180044+627631603+626214017+624626109+620800086
2358+611370418+594961602+572924284+547311235+521406500+500595130+489519691
2348+489975167+500965032+518069989+533891169+543020075+545761730+545799274
2338+546509889+548853073+551592356+553264944+553454588+552530434+550964874
2328+548846575+545788238+541196418+534659819+526366468+517130260+507662739
2318+498042465+488224776+478556231+469331678+460207414+450464401+439678379
2308+427927635+415623636+403398300+391941854+381621279+372247548+363376326
2298+354752095+346343225+338182962+330375617+323078860+316328413+310005180
2288+304049787+298608488+293919853+290093382+286994510+284330349+281868105
2278+279571404+277518085+275741152+274209439+272910261+271826443+270827374
2268+269730801+268533131+267455227+266692353+266190086+265700728+265028533
2258+264218833+263490598+262962905+262513945+261960140+261280107+260592578
2248+260007573+259569546+259283808+259121892+258998705+258796908+258469552
2238+258109053+257856956+257748519+257692444+257583715+257383052+257113714
2228+256842364+256636561+256499812+256387954+256295247+256243160+256184437
2218+256039093+255831468+255673884+255615505+255607392+255611019+255652362
2208+255748748+255831674+255799614+255666801+255597043+255726228+255990737
2198+256185349+256176289+256031014+255933166+255989224+256155626+256342606
2188+256504367+256612598+256631696+256551847+256408703+256265387+256183767
2178+256194769+256290743+256428059+256513925+256448120+256242850+256038337
2168+255925929+255834975+255694839+255603971+255675723+255794629+255742095
2158+255524225+255349192+255296831+255228688+255028231+254770926+254628487
2148+254662713+254760165+254827671+254993335+255458695+256201679+257013339
2138+257787903+258626397+259683122+261002946+262515629+264174447+266048231
2128+268217413+270657000+273311088+276200272+279360049+282732436+286186512
2118+289595412+292809493+295578413+297652533+298985060+299666074+299670199
2108+298879237+297300955+295075354+292365363+289361073+286267169+283233552
2098+280345950+277614471+274984123+272499050+270375766+268742940+267433877
2088+266209442+265055316+264108986+263411298+262867722+262392873+261986287
2078+261676637+261458336+261291005+261133421+260972795+260833862+260782618
2068+260914158+261251553+261632664+261830473+261823030+261784901+261818062
2058+261873363+261912368+261979599+262117982+262294338+262414430+262418091
2048+262356808+262347800+262486079+262794061+263164015+263390120+263390481
2038+263334578+263430397+263669343+263882435+263981932+264056710+264231640
2028+264500841+264759229+264959909+265170990+265516309+266094954+266862246
2018+267540302+267780400+267513863+267046973+266752520+266770484+267009344
2008+267306943+267555877+267759153+267979275+268209540+268351876+268339138
1998+268255215+268389128+269079647+270257496+271250961+271440193+270971034
1988+270404353+270020458+269844910+269916869+270197639+270498127+270675153
1978+270758509+270862030+271033263+271199683+271348603+271715703+272505840
1968+273403418+273757694+273396009+272834640+272565560+272602347+272803457
1958+273179290+273704782+274176606+274438673+274571038+274795235+275289338
1948+276133848+277415561+279145479+280788791+281284802+280255838+278711164
1938+277827391+277748573+277941741+278061248+278141837+278295330+278514214
1928+278849151+279648451+281125928+282700256+283600927+284088566+284837310
1918+285392421+284754865+283265733+282314831+282577448+283533937+284259971
1908+284306849+283933406+283631286+283586866+283695973+283912245+284389673
1898+285271779+286326063+287009758+287287468+287920039+289229394+290213371
1888+289850585+288629382+287678360+287365564+287441425+287667032+287912080
1878+288124330+288355265+288741876+289719767+292060440+295930162+299688524
1868+300707844+298525700+295461346+293585328+293128099+293362094+293730827
1858+294060985+294322588+294524816+294756404+295264689+296344862+298152600
1848+300871702+304602938+308180699+308972555+306205458+302618277+300784444
1838+300827110+301513315+302223655+303747374+306969191+310927065+313157376
1828+312947448+312018343+311231093+309844966+307857417+306437356+306179535
1818+306603483+307145289+307933605+309456773+311584252+313241815+313524287
1808+312854482+312453259+313256771+315547317+318732141+321323759+322099938
1798+321622252+321874504+324412282+328762474+331859248+330805479+327100270
1788+324477949+324434629+325990907+327854926+329664315+331207631+332075881
1778+332763564+334855184+339520922+345868875+350472900+350456878+347097676
1768+343199040+340374355+339844410+342146646+345647669+347710375+348167948
1758+348611149+349285562+350108670+352557127+357812908+364132565+367812505
1748+367614678+365734018+364529799+364992529+366994897+369408698+370906941
1738+372216502+375944954+382580329+387402087+385708011+380422629+375739357
1728+372638560+371278046+371697044+373306440+376104308+381526594+390456057
1718+400120855+404281678+400788803+394296761+389182974+387031085+388163620
1708+392234503+397641111+402209002+406140918+411848289+419380210+424512220
1698+424856783+422153153+417002818+410895840+407526977+408364801+412023528
1688+417581377+426211693+437219092+443304582+439451741+432121910+427887925
1678+428407452+432593854+437585143+441224721+444684693+449127575+451797478
1668+449845651+446441547+446258161+449557093+452790290+453381639+453289498
1658+456233141+464598004+478826738+494147095+499052433+494867027+493875728
1648+498643440+503208408+501692115+497038995+494988151+497553915+504706066
1638+515785046+527964896+534994103+534509644+532790230+535370400+542874025
1628+553035727+563650292+574465778+585436287+595203986+603775373+613882410
1618+627246539+640722267+649008570+652948944+656926861+662386450+668253657
1608+673342209+677416256+680805644+683608154+685612756+687098278+689021329
1598+692032048+695820941+699537565+702689933+705650250+709011790+712575627
1588+715625127+717949676+719869839+721733343+724122872+728097145+734551162
1578+742961648+750193838+752808629+753032447+755823268+762463834+770548460
1568+777404043+783386838+790303688+799337084+812034777+830772336+853892268
1558+868623580+868979970+865521064+863774661+863373025+863623661+863985208
1548+864131533+864901867+867639947+872957544+879700153+882452260+874608919
1538+861586122+853381508+850659655+848607195+843804278+838130497+835102862
1528+835567552+838300888+842245456+847011517+850838366+851094365+848543316
1518+845745138+842416260+837731681+833704530+833389190+838253305+847800692
1508+858434923+861071511+850742169+837387117+829588058+828181749+830878022
1498+834020557+834376604+832124254+830325387+831022077+833426321+834647799
1488+832671114+828657303+824831417+822155566+820483769+819652925+820187889
1478+822903071+827984816+834268717+838484137+836566724+829396145+823102411
1468+821401390+823181693+824910493+824493111+823946870+826552241+833227669
1458+840962437+843045702+837251244+829294584+823604713+820933400+820092173
1448+819076429+817090805+815472711+815412957+816335529+817474562+819332634
1438+822042041+823363773+821307600+817911610+815859700+815120515+814443558
1428+813740335+813937681+815112057+816377267+817628038+819728768+821954576
1418+821324584+817041778+811889896+808086701+805887711+804766212+804313487
1408+804481333+805114832+805323042+804372621+803313420+804056112+806978680
1398+810478980+812609485+812304390+809770394+806979436+806237431+807619811
1388+808679150+807287900+804812488+804434644+807246918+811845476+816493337
1378+820785013+825288199+829902641+833260400+834464344+834463381+834609293
1368+835463929+837468393+840846023+844280932+845421478+843737717+841273651
1358+840043096+840482207+841907012+843326180+844160875+844518297+844712685
1348+844719149+844313044+843645920+843391984+844158743+845785295+847377466
1338+848310833+849025815+850289856+852009373+853400417+854120487+854635373
1328+855536766+857091668+859466413+862887776+867389174+872507363+877409641
1318+881497783+884810021+887813520+890888600+893868927+896064136+897159712
1308+898151114+900539474+904550122+908903546+912261442+914210347+914942244
1298+914838758+914547966+914749712+915505125+916181944+916298494+916091179
1288+915924295+915533386+914188481+911589505+908527008+906253549+905096982
1278+904373405+903715152+903491058+903716252+903729661+903244755+902836175
1268+903292063+904993427+907716861+910664114+912847083+913794340+913930488
1258+914250710+915629170+918314373+921782906+924867269+926498565+926675557
1248+926358704+926393635+926856125+927223380+926918079+925845538+924506547
1238+923514732+923111102+923174156+923392474+923359331+922861154+922077411
1228+921156627+919841840+917957433+915960876+914578014+914184424+914774328
1218+916138418+917902905+919605507+920964370+922138815+923547393+925239131
1208+926480412+926430285+925338147+924645445+925854133+929312558+933764380
1198+937283177+939256287+940886826+943098400+945022964+945666846+945869555
1188+946929306+948525603+949578753+950361533+952082838+954632512+956446370
1178+956881148+957403598+959899431+964424071+968814420+970876782+971033214
1168+971436225+972440761+972106442+969841578+968136845+969267489+972145636
1158+973968158+974192045+974906889+977303569+979885836+980995370+981484058
1148+983166581+985799594+987293643+986622187+985308363+985811834+989145113
1138+993905811+997233727+997522181+996373727+996490897+998152311+999658117
1128+1000366635+1000860480+1001186959+1001438626+1002603582+1004910941
1120+1007387109+1009951910+1013230249+1016214977+1017199021+1016543381
1111+1016118092+1017291781+1020473441+1024629588+1027206698+1026820602
1103+1025772334+1027673107+1033184404+1039586300+1043927966+1045433635
1094+1044689086+1042093342+1038274263+1034660093+1032641739+1032618223
1085+1033857648+1035381126+1036973709+1039077122+1042123528+1046111141
1077+1049961644+1051463669+1049648161+1046877487+1046080955+1047080059
1068+1047686809+1047521438+1048854310+1053258755+1058524712+1060422733
1060+1058218036+1055939282+1056860754+1059683961+1061086900+1059901247
1051+1058162751+1059204074+1064288845+1070489407+1073714250+1073741823
1043+1072723672+1070664611+1066565880+1061433114+1057139237+1054478720
1034+1053555873+1054043185+1055164615+1056980055+1060140055+1063563962
1025+1064762749+1062927162+1059540937+1056646631+1055996354+1057652542
1017+1058922565+1057471836+1054959913+1054737676+1057169424+1059337540
1008+1058658315+1055619747+1052572859+1051012319+1050952221+1052369394
1000+1055489169+1059036778+1060677563+1060038907+1058785180+1057748808
991+1056021795+1052838897+1048931116+1045736735+1044457635+1045104061
983+1046254646+1046498887+1045596118+1043941030+1041969021+1040366399
974+1039550475+1038606037+1036164112+1032589068+1030090552+1030368555
965+1032431123+1033194787+1030654052+1025852510+1021388724+1018927478
957+1018177703+1017504322+1015648107+1012948327+1010339381+1007677007
948+1004049085+999308190+994703237+991854038+990969698+990463270+988600110
938+985131439+981220839+978493761+978363252+981031126+984424091+985528537
928+983621782+980768320+978884601+977599037+975503257+972956265+972259918
918+974716626+978731538+981375827+981194847+978926889+976110008+973854358
908+972720757+972836964+973387949+972714637+970160494+967194538+966218195
898+968466487+972244378+974043383+972582547+969700342+966757766+963659857
888+961362881+961295082+962358409+961940821+959727665+957896067+958003472
878+959411294+960876875+961995899+962548878+961777100+959255549+956315173
868+955155168+956634226+959497177+961382203+960740453+958243794+956070932
858+955219872+954477249+952730433+950611000+949008996+947973586+947815091
848+949298206+951772243+952787161+951137918+949137580+950100652+954231220
838+958123324+958505568+955611262+952044057+950061046+950950750+954960848
828+960370241+964148407+964749382+963199293+961169593+959690259+959653816
818+961345759+963088312+962622453+960605474+959952034+961495178+962748149
808+960992326+956579354+952682094+952191206+955222691+959647696+963573836
798+966473987+968086580+967865443+965831274+963000641+961168424+962032961
788+965115055+967070218+965534706+962772078+962303262+963666320+963153016
778+959290411+955050238+953986086+956408413+959972112+962742785+964407018
768+965062246+964764165+964021679+963445115+963713216+965321889+968015343
758+971125492+973438145+973314512+970417730+967132722+966626156+969674075
748+974030387+976545543+976183033+974819012+974413732+974492395+973244100
738+970110436+966652286+964805216+964814636+965389894+965940192+967304144
728+969000145+968886963+967216198+967372562+971283162+976765786+979658442
718+977675293+972660041+968391331+966011291+963466500+960033791+957754556
708+957823042+959496421+962730546+967758038+972230351+972983013+969949534
698+965064653+959839196+955990757+954976457+954940769+952414749+948217001
688+946491021+948488609+951684778+953117079+950807864+944857318+938943422
678+937753299+941547899+945867905+947000405+944966098+941231459+936469248
668+932933604+934174817+936463816+933610354+927115699+923773825+926304177
658+929285397+927123675+920914931+914933098+911941495+912080668+913412439
648+914092009+913632957+911754120+908431361+904757919+902306849+902181084
638+904265862+906559537+906325198+903537541+901080076+899505439+896579228
628+892771701+890166124+887681155+881818074+872787016+866313333+867029552
618+873498146+880524877+885086236+888424397+892154705+895353487+896222769
608+895333064+894874494+893543067+886032874+872701476+862392144+860612735
##END=
