##TITLE=<SNM>
##JCAMP-DX=4.24
##DATA TYPE=INFRARED SPECTRUM
##DATE=2/5/2025
##SAMPLING PROCEDURE=Instrument type and / or accessory
##ORIGIN=Admin
##XUNITS=1/CM
##YUNITS=ABSORBANCE
##RESOLUTION=4
##FIRSTX=4497.3318
##LASTX=599.83466
##DELTAX=-1.4281778
##MAXY=1.8635731
##MINY=0.39982241
##XFACTOR=1
##YFACTOR=1.7355877e-09
##NPOINTS=2730
##FIRSTY=0.41744214
##XYDATA=(X++(Y..Y))
4497+240519191+241329436+242700738+243298265+242935160+242434307+242282564
4487+242320994+242545681+243222471+244099135+244312901+243463796+242176978
4477+241270968+241038331+241555359+242899032+244640289+245721498+245316100
4467+243706891+242139922+241656756+242088700+242452372+242168633+241518063
4457+241147077+241490778+242462674+243477259+243931629+243700932+243204080
4447+243048560+243333604+243312019+242204916+240366263+239100325+239345188
4437+240946911+243028624+244678255+245373556+245123404+244391099+243815997
4427+243696451+243658004+243212580+242556121+242221211+242107898+241574007
4417+240421881+239232922+238758289+239284401+240403988+241251822+241272015
4407+240747226+240324657+240302918+240627593+241182330+241709489+241862760
4397+241579588+240990801+240110084+239069829+238287040+237953573+237829510
4387+237785655+237895448+237950207+237589747+236890943+236339813+236235858
4377+236325406+236016065+235034965+233951764+233814342+235069857+237012774
4367+238464471+238885718+238623426+238162170+237496541+236404755+235111858
4357+234325532+234546836+235522819+236468752+236767396+236456835+236130409
4347+236276365+236584023+236168890+234719631+233069502+232344924+232750184
4337+233388390+233318039+232589666+231920535+231587428+231314679+231182752
4327+231689821+232746715+233535789+233602602+233283027+232893891+232277595
4317+231410615+230900232+231323454+232240402+232647808+232578711+233244048
4307+235123654+236967407+237360047+236351386+234841633+233275128+231769221
4297+230775706+230761952+231566016+232528348+233185013+233581310+233919001
4287+234152325+234028159+233405338+232505836+231910970+232169021+233177509
4277+234117020+234330975+234067413+233916047+233851312+233419968+232584000
4267+231806500+231512390+231758403+232185711+232250516+231793982+231237837
4257+231026544+231246406+231815240+232535628+233125343+233685935+234637449
4247+235744071+236016443+235084573+233807181+233199557+233449091+234057573
4237+234409311+234187337+233591681+233178368+233465300+234644815+236391584
4227+237833013+238053665+236885586+235072089+233617490+233011033+233012785
4217+233102385+233044174+232925692+232935943+233345015+234267664+235161397
4207+235106466+233979410+232769759+232399254+232845004+233596815+234320398
4197+234884595+235234650+235392008+235306752+234748702+233628857+232373428
4187+231617959+231503976+231609116+231585436+231526419+231706082+232276204
4177+233179020+234132028+234782203+235040305+235170961+235433442+235707170
4167+235614634+235048187+234361076+233886770+233630008+233652674+234194120
4157+235026980+235313449+234690817+233994263+234202104+235022824+235281442
4147+234539366+233509740+232909929+232819281+233164648+233955524+234936418
4137+235610324+235728325+235462170+235088075+234685769+234199649+233689781
4127+233326848+233088871+232734249+232167389+231531982+231002505+230814513
4117+231283925+232407513+233668729+234572696+235095803+235337695+235156623
4107+234482546+233632635+233026024+232795035+232770326+232700301+232565455
4097+232651723+233026281+233114731+232380090+231238627+230585585+230654030
4087+231020174+231430757+231979587+232660206+233216230+233392683+233199918
4077+232915750+232712510+232400833+231819121+231213042+230865426+230721891
4067+230739526+231127460+231857688+232382924+232193387+231414341+230654270
4057+230367166+230479827+230613385+230543962+230406145+230535565+231137282
4047+232040219+232825034+233272964+233530036+233726304+233769336+233673726
4037+233673468+233838759+233957757+233901091+233756217+233512212+233021439
4027+232392780+232006202+232037712+232333522+232779718+233438702+234272026
4017+234997823+235288757+235008366+234312808+233553011+233022315+232859290
4007+233116053+233656709+234077406+234112453+234068529+234432749+235050230
3997+235154391+234350018+233186593+232516482+232570091+232943395+233308509
3987+233787606+234547299+235259617+235324473+234670315+233961345+233876811
3977+234513266+235559806+236674447+237571202+238018858+237913633+237326545
3967+236533196+235985843+236020735+236485237+236923741+237191132+237481946
3957+237727255+237555027+237051100+237049898+238273062+240296856+241722007
3947+241768318+241334639+241683457+242604922+242786251+241715877+240238886
3937+239515218+240283068+242569463+245338732+246792198+245982708+244064792
3927+243033792+243425625+243897321+243365731+242842281+243946036+246370728
3917+247895112+246937914+244291110+241792117+240421743+240266034+241647260
3907+245473733+252001254+259421700+264683060+266301182+264683163+260216097
3897+253968468+248902879+247824040+250550724+253444263+253378926+252233633
3887+253334555+256096922+257519874+257610006+258160141+257779848+254636381
3878+251524304+252185107+256507522+262021163+266947888+269543864+268209636
3868+265239239+264520430+265713562+265070822+261224929+256967507+255407820
3858+258192217+266166953+277590892+283539928+276681997+264683850+255994254
3848+252755092+254242609+258596121+263798789+268938558+273931204+277521382
3838+277429945+273982580+270256972+267859942+266112709+264412989+263255900
3828+262930710+263363238+265653531+271087256+277308166+278943098+275945691
3818+273052324+270770858+266520682+261208393+258236296+259311272+263812680
3808+268958219+271944534+274066325+278214983+282889084+283811201+281548554
3798+279509889+277584624+274489409+271483605+270669461+272436080+275972719
3788+280628669+285827353+290629311+294958097+300408272+307931712+315624221
3778+321165644+325497692+331321825+340252110+352393810+366144496+378427034
3768+387219434+392647802+395555970+397779690+401583685+406565324+409319981
3758+408279949+406678140+408965393+417239288+429344584+438485391+441324736
3748+443669823+450514103+459396137+463731928+464036410+467409131+477826659
3738+494552687+512682230+525316402+530206003+532043093+535979377+543270317
3728+552543823+561475276+567827667+571204063+572790108+573161489+572620524
3718+572714589+575615648+582663580+592964652+601391371+601004536+591729004
3708+580382336+572887916+570902534+572159234+572806730+571704916+571177378
3698+572870985+576387396+581273459+587667164+594733228+599478212+598642931
3688+593338025+588337669+586193178+586684690+589281954+593820470+600040126
3678+606706443+610428291+608738908+605763532+605902894+605725617+598711204
3668+586720818+577147673+572664174+571349126+571159864+572159440+574844931
3658+577604773+577881712+576692290+578446099+585497190+594917236+599169609
3648+593982155+584051366+575252475+569545588+566665341+565722532+565663910
3638+565855370+566618635+568683417+572578489+579016873+587406641+591918850
3628+586282538+575584019+568933294+569492941+575808310+584017366+588919639
3618+588025632+584770226+583778891+585923588+588967101+590941459+591580232
3608+591187077+590127264+589253587+589476883+591033703+593376626+595764744
3598+597748374+598926257+598964034+598367984+598945283+602902516+610386668
3588+617061020+617083274+610837655+603990902+600319401+599631243+600121724
3578+600960509+602561494+605130872+608011119+610832504+614184894+617931125
3568+619391168+615643494+608467876+602897364+601208943+600866410+598288721
3558+594246731+592831540+595333950+598231643+597991176+595986048+596023550
3548+598870416+601640699+601726762+599574646+597076083+595276117+594164789
3538+593041854+591016188+588167605+585955596+585942133+588320910+591583116
3528+593449158+592717660+590435042+588594071+587671010+586132254+582611723
3518+577879171+574206295+573330730+575216381+578141549+579753042+579051422
3508+577580115+577422551+578308110+578120050+576101081+573695792+572088557
3498+570768461+568799014+566592843+565772673+566994549+568550236+568231433
3488+566326448+565036710+565240946+565831845+565775248+565095402+564018382
3478+562518090+560630379+558665088+557197730+556581314+556413860+555978189
3468+555066564+553980444+553159277+553051098+553757320+554654865+554645180
3458+552970496+550004907+547119611+545502451+545410035+546575658+548493865
3448+550062465+550033720+548382630+546250227+544405581+542730966+541073625
3438+539624297+538313474+536659361+534644788+533144152+532968936+533948938
3428+535252824+536142745+536252779+535531927+534085175+532179605+530576594
3418+530266309+531301155+532432951+532262852+530399112+527692981+525662404
3408+525146922+525294286+524595448+523014073+521955049+522079197+522411668
3398+521838524+520653978+520079976+520609367+521422120+521341003+519905584
3388+517500466+515232170+514510597+515635353+517292453+518026733+517478727
3378+516010168+514256015+513103580+512911055+512861327+512098749+511123006
3368+511112840+512354532+514120533+515635318+516478670+516426469+515520202
3358+514225725+513319148+513364000+514030762+514266970+513506590+512260708
3348+511276552+510744722+510461670+510215570+509909200+509549942+509061692
3338+508180220+506987329+506332999+507093276+509140749+511407157+512758093
3328+512594244+510995732+508676334+506590225+505106108+503708981+501939512
3318+500386950+500123405+501229478+502600676+503276058+503337875+503320120
3308+503316548+503103006+502645218+502179086+501941641+501822919+501415993
3298+500603755+499812947+499374632+498971038+498236861+497661519+498112987
3288+499551222+500985542+501756981+502124103+502440742+502538688+502207384
3278+501714499+501501472+501606251+501682251+501484575+501162785+501062092
3268+501242116+501324607+500917613+500073093+499144949+498182497+496871570
3258+495295690+494289657+494552653+495639288+496381501+496257627+495705363
3248+495115803+494257237+492806776+491021200+489739361+489684276+490632407
3238+491548565+491814995+491785220+491826775+491641325+490822287+489406478
3228+487724891+486203238+485230964+484993244+485470366+486242045+486344283
3218+485139681+483246715+481791412+481077017+480662913+480191217+479616596
3208+479000764+478253744+477082626+475517185+474250286+473909641+474200901
3198+474180879+473261252+471765700+470611856+470366993+470587747+470328426
3188+469171904+467464148+465856672+464868017+464577856+464635620+464636719
3178+464350885+463675915+462699967+461731539+460998598+460316245+459128402
3168+457019661+454407355+452483755+451991797+452312557+452239820+451358073
3158+450168513+449186691+448405740+447448920+446004194+444297331+443101074
3148+442909236+443192426+442960544+441990296+440847889+439836292+438781218
3138+437819487+437460400+437681567+437704233+436946188+435706041+434634139
3128+433943475+433373490+432603151+431513356+430355769+429699996+429786265
3118+429998262+429497547+428293185+427120487+426469385+426281531+426310413
3108+426282252+425937074+425319044+424840343+424755619+424796865+424594175
3098+424158332+423616200+422819588+421667873+420485594+419696194+419410361
3088+419462149+419561159+419425265+419010269+418540084+418172378+417819370
3078+417382222+416884220+416316811+415584695+414686017+413841429+413357094
3068+413292393+413293595+412926472+412126598+411077499+409826260+408439985
3058+407308739+406742807+406473870+406085764+405610290+405195878+404685718
3048+403980252+403349377+403029441+402883932+402674030+402416872+402300141
3038+402264803+401886141+400921766+399775615+399045284+398796403+398590073
3028+397988493+396880531+395575751+394568036+394032291+393750887+393549330
3018+393348563+392807289+391577376+389965711+388684765+387949455+387404713
3008+386845237+386378280+385940309+385270215+384384931+383651922+383391570
2998+383584645+383860794+383746501+383066517+382056157+381017052+380045259
2988+379087340+378057439+377012358+376292056+376205478+376581633+376967884
2978+377156597+377106217+376604059+375584529+374529695+373934366+373593000
2968+372969166+372036145+371205329+370637267+370125802+369485312+368740833
2958+368103811+367833500+367932201+368065588+367943534+367565010+367017382
2948+366349555+365635847+364883056+363990251+363028211+362320238+362037873
2938+361935016+361615390+360907554+359930918+358949131+358208635+357790376
2928+357534352+357178494+356648965+356139663+355855822+355810833+355899162
2918+355946864+355640562+354723099+353428897+352417540+352080468+352149153
2908+352154029+352027855+351952610+351844946+351451791+350843068+350362134
2898+350117237+349821925+349132565+348027419+346882745+346161275+346005531
2888+346202383+346445838+346468538+346105296+345446467+344742031+344101988
2878+343527264+343098737+342822553+342498187+342023847+341591645+341375595
2868+341232318+340831917+340013532+339024739+338356706+338220950+338307081
2858+338191553+337789641+337280374+336798306+336338665+335840559+335300762
2848+334843593+334619507+334625002+334696572+334645745+334362933+333874238
2838+333313079+332765383+332213188+331709690+331441097+331438864+331361147
2828+330803182+329835476+329009535+328703955+328649247+328349539+327795455
2818+327340003+327010657+326482605+325712540+325065456+324740884+324528303
2808+324203593+323797595+323400800+323032029+322768072+322703542+322723186
2798+322588013+322280544+321996667+321772582+321395774+320725063+319877384
2788+319093032+318577378+318410301+318442926+318347454+317904228+317169330
2778+316315916+315482420+314810610+314389741+314079489+313580663+312761660
2768+311816550+311105521+310883599+311091612+311351139+311236469+310619057
2758+309736932+308934723+308373221+308006922+307730705+307407815+306860566
2748+306058871+305249484+304695160+304394524+304218827+304136577+304109343
2738+303937733+303421563+302613619+301799904+301250560+301008066+300877221
2728+300625180+300203728+299728288+299252780+298704534+298088668+297578440
2718+297300676+297180099+297047468+296766202+296268612+295630079+295065624
2708+294709800+294457656+294120721+293664444+293204253+292801242+292347920
2698+291718385+290993652+290417830+290130382+290074747+290143981+290232379
2688+290165308+289799903+289241938+288798540+288659144+288693417+288582216
2678+288142012+287514418+286992393+286676200+286405202+286027657+285595146
2668+285244937+285021624+284880063+284781294+284713622+284642292+284492524
2658+284205746+283796674+283332653+282886800+282558021+282475684+282653116
2648+282834771+282651038+282016764+281256229+280731869+280459755+280205551
2638+279831989+279401057+279037833+278828394+278782255+278824805+278876783
2628+278906541+278849292+278589421+278121657+277618143+277261391+277088219
2618+277004766+276899867+276760178+276672896+276683302+276719241+276692076
2608+276578316+276386873+276151506+275938050+275782615+275661780+275549325
2598+275434449+275287291+275079347+274842176+274652347+274544357+274476788
2588+274416654+274404170+274475912+274591338+274685007+274695276+274535651
2578+274182764+273788630+273562518+273546721+273613260+273666869+273747127
2568+273891521+273989243+273892792+273632234+273408406+273418194+273717352
2558+274137414+274359491+274218428+273858020+273499809+273238822+273091063
2548+273006546+272864882+272662226+272560160+272573794+272446915+272027884
2538+271514616+271134598+270835473+270505372+270267481+270311096+270586695
2528+270867463+270979764+270854207+270502882+270021244+269506362+268991446
2518+268534225+268263004+268246279+268407947+268622280+268816333+268962340
2508+269036022+268998984+268797238+268424861+268030350+267856508+267968293
2498+268143646+268159238+268070119+268066376+268152232+268120723+267829772
2488+267406533+267123018+267102979+267219212+267248077+267061184+266717277
2478+266399848+266208645+266070880+265925559+265824660+265757606+265596934
2468+265311272+265033698+264884308+264865677+264884205+264783443+264469655
2458+264066575+263822811+263822313+263902366+263891394+263805554+263737075
2448+263656919+263458333+263162523+262955162+262966220+263067651+262980472
2438+262608336+262160542+261885681+261809870+261809852+261801078+261759008
2428+261667348+261531986+261397878+261317929+261320556+261394822+261488440
2418+261547681+261580804+261657646+261810350+261955585+261967674+261835867
2408+261695869+261686185+261798107+261905737+261934688+261951447+262077278
2398+262378429+262881394+263692945+265123504+267701210+272028965+278627112
2388+287945693+300466105+316668408+336826330+360799615+387992349+417538893
2378+448601493+480437214+511998777+541678502+568055187+590753673+609955942
2368+625560066+637164921+644097187+645932320+643684801+639201302+632843863
2358+623010057+608189701+587859689+562306334+534995564+512853359+501510984
2348+502751062+515128593+533744118+550908393+561114919+564409408+564064985
2338+563310993+563409247+563904914+564294394+564471671+564039606+562586501
2328+560430745+557930945+554371229+548552317+540434509+531259669+521892820
2318+512174131+502038281+492131222+482979839+474178716+464704134+453846574
2308+441684990+428833532+416029020+403911154+392846096+382773231+373300057
2298+364046264+354939526+346218936+338162224+330817744+324031915+317683474
2288+311768814+306276878+301168858+296557811+292727234+289809209+287543077
2278+285509083+283505877+281553379+279689484+277957019+276437563+275140459
2268+273969238+272851712+271793169+270819178+269964269+269264143+268703174
2258+268213568+267706843+267078080+266282070+265430922+264688555+264073392
2248+263501502+262985109+262637699+262501530+262475584+262398399+262153966
2238+261747915+261314271+260991313+260782321+260608977+260467760+260395846
2228+260305559+260036622+259611718+259283591+259255705+259440812+259557354
2218+259445259+259233829+259157485+259261166+259389350+259428758+259412582
2208+259379270+259268944+259015736+258686390+258471663+258515347+258768830
2198+259039450+259155184+259067027+258867651+258741441+258807019+258982132
2188+259072213+258972670+258731276+258469860+258305565+258295537+258397225
2178+258487186+258458716+258328780+258222524+258228809+258328248+258463507
2168+258563512+258517768+258294112+258045024+257932673+257922284+257897660
2158+257860725+257869139+257887701+257830744+257677867+257459380+257186682
2148+256877169+256619153+256543307+256737206+257218037+257928122+258699990
2138+259304420+259641785+259856907+260196522+260789481+261607351+262563038
2128+263571698+264579328+265621644+266828513+268310637+270046365+271872552
2118+273572821+275033551+276326036+277543465+278568163+279145462+279174499
2108+278764500+278031181+277011377+275769238+274423814+273044975+271623053
2098+270165861+268767841+267564252+266633343+265936446+265355489+264803963
2088+264278864+263803013+263389682+263081560+262928426+262907082+262938162
2078+262976334+263025187+263092979+263175831+263249255+263277450+263290003
2068+263415679+263734946+264114415+264314323+264272889+264153084+264110603
2058+264171612+264337539+264614169+264894267+265000643+264931099+264908948
2048+265100014+265420345+265711038+265940979+266120213+266186597+266118547
2038+266023023+266019057+266141712+266376959+266698199+267066061+267422760
2028+267700661+267905120+268154035+268517500+268929320+269390851+270017380
2018+270703254+271068042+270944374+270597633+270334981+270225514+270239285
2008+270367005+270568648+270781006+270980159+271181097+271410815+271667475
1998+271916304+272250424+272948404+274060521+275046395+275262702+274730563
1988+273970698+273341816+272943183+272808097+272863440+272952988+273053475
1978+273271808+273618978+273951706+274150086+274331793+274849148+275871545
1968+276949303+277329527+276850104+276137941+275817421+275946996+276287246
1958+276726316+277255124+277763721+278090989+278232189+278386439+278777121
1948+279516260+280707331+282397761+284075845+284622751+283548170+281827793
1938+280727198+280506358+280700085+280965982+281254632+281529390+281700588
1928+281895672+282635910+284272336+286215391+287514280+288223061+288944359
1918+289278685+288365274+286709718+285765519+286145418+287232224+288006359
1908+287919403+287226970+286591494+286390298+286516867+286761318+287184814
1898+288005449+289083275+289862715+290271118+291069721+292510120+293456740
1888+292925494+291615529+290728081+290499634+290567976+290716748+290903915
1878+291156746+291540662+292120434+293286229+295903069+300250468+304554149
1868+305761052+303160559+299361921+296910510+296239695+296459694+296748893
1858+296896464+297069722+297423623+297946730+298663941+299805490+301706733
1848+304773495+309119177+313307089+314316385+311297565+307329411+305298079
1838+305359690+306068247+306582596+307775041+310866462+315085110+317769296
1828+317887194+317068500+316157527+314391114+311959519+310315056+310071292
1818+310531003+311014925+311773485+313434226+315829521+317713523+318028377
1808+317203741+316629601+317421027+319898539+323358044+326154358+326974563
1798+326439883+326722866+329540885+334363895+337745888+336395673+331981993
1788+328755503+328490962+330132986+332171530+334134383+335778227+336624052
1778+337165154+339137452+343914099+350723728+355972071+356302138+352769655
1768+348433761+345215513+344466947+346699390+350149278+352078922+352395046
1758+352762821+353321542+353944723+356362719+362058272+369190893+373447593
1748+373177797+370916061+369525493+370108185+372348080+374903686+376349992
1738+377554560+381453169+388700872+394210254+392672426+387009051+381617670
1728+377583579+375400830+375488644+377240668+380372029+386270204+396029795
1718+406771689+411427073+407334153+399775889+393841758+391376678+392686300
1708+397220386+403013129+407644541+411587590+417792926+426420344+432524918
1698+433009149+429796327+423811815+416784661+412704791+413185450+416843627
1688+422747125+432055626+443860733+450224629+445803874+437626481+432729394
1678+432918759+437167767+442530781+446611647+450419042+454977065+457219329
1668+454330702+450193995+449970115+453665382+457025156+457149511+456445762
1658+459113428+467714162+482780617+499275794+504584753+499961239+498755332
1648+503464737+507267359+504281920+498627096+496471719+499481507+507420218
1638+519647327+532896817+539708574+537550930+534127863+535732385+542821047
1628+552760147+563212464+574113845+585534899+595754304+604277251+613884533
1618+626787403+640265648+648887915+653077166+657218888+662953557+669152745
1608+674305926+678029972+680996969+683797473+686272890+688212287+690095774
1598+692545571+695519780+698474620+701131709+703836329+706990218+710380591
1588+713407413+715699647+717287032+718589442+720392979+723656765+729299122
1578+737411057+745292210+748605037+748842413+752028791+760484840+771014290
1568+778882461+784101030+789897310+798356861+811087674+830477866+854888333
1558+870480299+870241274+865923032+863953207+863788157+864205557+864679897
1548+865917262+869983498+877927841+887972236+896570257+898323105+887855471
1538+871373413+860037735+855715578+853818354+849725056+844332027+841653301
1528+842909555+846272454+850167870+854737843+859150390+860957706+859868426
1518+857271986+852970366+847422795+843426480+843307105+847596706+855724988
1508+864333518+864872491+854350184+843559936+839432089+840861773+844398583
1498+846240103+843723406+838278726+834693493+835952562+840691983+843929462
1488+841592721+835339752+829658108+826937691+826606078+826959327+827667952
1478+830077294+835133765+841922891+847230819+846488675+839367456+831974243
1468+829207464+830625608+832226662+831236632+830108614+832893390+840122582
1458+847153960+846640813+838995388+831606571+827620834+826364787+826273848
1448+825406971+822650494+819099810+816620615+815847494+816666360+819250986
1438+823082387+825509724+824402312+821892964+820784384+820735068+819940243
1428+818540162+818496204+820443843+823049556+825437467+828044485+829973579
1418+828340587+822982038+817340025+813766468+812111497+811198738+810530499
1408+810740539+811965953+812505475+811014387+809345335+810261597+813690296
1398+817232876+819150499+818923563+816557974+813608904+812395785+813150705
1388+813505464+811413448+808394388+807854865+810905796+815757448+820480452
1378+825120622+830443112+835571977+838401879+838630875+838434435+839339501
1368+840726875+842004558+844262929+848193512+851675992+851812469+849036761
1358+846330424+845481680+845978481+846399041+845917557+844597220+842965533
1348+841694444+841297512+841981411+843959752+847425885+851677434+854897193
1338+855766130+854852342+853716494+853510713+854548478+856378116+858388740
1328+860528423+863049378+865922482+869052950+872425259+875571800+877769041
1318+879168778+880775189+883083014+885754733+888711221+892443509+896915332
1308+901094967+904074122+906015511+907684219+909722179+912386893+915217343
1298+917189572+917844692+917672841+917093619+916022472+914585508+913367512
1288+912801477+912704425+912429271+911490275+910108122+908930032+908185141
1278+907423970+906318687+905367465+905303176+906076022+907007875+907753042
1268+908433919+909023513+909411997+910013336+911601339+914432477+917816668
1258+920653026+922487129+923865504+925263112+926180129+926158424+925980324
1248+926626583+927768544+928390009+928229079+927816693+927705285+928028175
1238+928196591+927290770+925281657+923188474+921937372+921631104+921708513
1228+921442014+920628437+919880248+919871045+920628780+921859964+923135930
1218+923548728+922343714+920214677+919001833+919932106+922739272+926253279
1208+929296929+931133916+931673713+931653245+932264887+934109087+936744059
1198+939387411+941423723+942402351+942700239+943927644+947242326+951417016
1188+954037840+954448166+953891815+953242945+952608019+952916347+955616433
1178+960409977+965194661+968773026+971699087+974047985+974580571+972823876
1168+970385825+969469701+971163891+974932583+978705464+980200467+979048615
1158+976985242+975897679+976468042+978466920+981614285+985804841+990317257
1148+993229305+992872486+989970945+987299570+987215911+990110995+994866693
1138+1000042265+1004558939+1007529920+1008264509+1007237870+1006268721
1130+1006603493+1007523463+1007953708+1008380037+1010143600+1014126315
1121+1019203598+1021901074+1019903569+1015558402+1013327093+1014547012
1113+1017220036+1019736458+1022292992+1024749864+1025900548+1025672925
1104+1025809128+1027949017+1032135109+1037004619+1040035837+1038504224
1095+1032565285+1026575381+1025652182+1030838675+1038235734+1043347016
1087+1045791936+1047971732+1050311633+1051025204+1049808238+1048367565
1078+1047508587+1046390597+1044554091+1043386716+1045363615+1051269380
1070+1058174103+1061720117+1060852279+1058283725+1056321112+1055104696
1061+1054527671+1054972202+1056234294+1057652576+1058728256+1058990908
1053+1057804645+1055516327+1054209796+1055675264+1059510993+1064127192
1044+1067729184+1068470573+1066001269+1062784532+1061419138+1061416391
1035+1060825972+1059496706+1058886644+1059843498+1062109150+1065290239
1027+1069132836+1072586537+1073741823+1072010954+1069694269+1069051444
1018+1068940517+1066797881+1062703896+1059225125+1058085911+1058844540
1010+1060484263+1062459239+1064088934+1065001555+1066087538+1067913329
1001+1068713444+1067211572+1065639985+1066157047+1066853997+1064900794
993+1061200169+1057981372+1054851660+1050842432+1047053410+1045001781
984+1044395428+1043535488+1041294906+1038668657+1038154136+1040526456
975+1043256420+1043367965+1041224367+1039751823+1040141818+1040491838
967+1039169853+1037235951+1035966441+1034402066+1031184299+1026945800
958+1023189060+1020285803+1017746852+1014972105+1011353628+1007258544
950+1004688754+1005176694+1007132850+1007069248+1003771462+999165223+995055990
940+991840490+990008860+989976234+990448583+989275851+986392718+984188333
930+984318149+985601601+985632166+983672919+981396072+980819184+981887652
920+982618669+981798361+980200399+978498584+976120013+973203156+971458688
910+971989969+973858689+975154711+974715606+973075058+971874715+971785355
900+971649771+970506917+969130052+968668624+969020980+968937665+967389774
890+965090947+964069665+965035105+966120676+965611237+964208135+963270100
880+962927773+962608867+962251841+962433377+963130257+962952362+961110498
870+959240542+959226599+960767416+961786155+960337652+956733530+954110372
860+955640610+960709514+965069929+965423864+962230206+957697665+953520365
850+950741703+950178690+952407252+957184655+963022559+967400145+967962815
840+965038334+961634910+960433262+961985274+964753839+965755545+962550073
830+956437428+952059979+952178393+954843930+956619169+956979492+958057988
820+961149580+964787976+966591857+966291496+965482109+965515078+967163112
810+970964910+976092951+979510386+977900061+971084285+962952981+958518935
800+959734870+963551504+964583706+960558269+954168617+949718430+949641571
790+953696612+959816606+965090328+967079728+965743113+963713052+963871028
780+966668853+969862374+971424208+971737207+971930899+971719624+970248248
770+968163856+967091611+967456055+968202320+968363662+967992624+967277817
760+965453811+961985137+958832071+959493579+964702875+970413711+971707192
750+968961498+967370542+969416538+971611513+969840532+965160662+961262293
740+959911597+961121488+964151607+967771389+970691405+972545907+973678527
730+973686357+972361144+971607254+973437098+976914839+978990783+978954448
720+979697623+982153807+982187875+976937643+970349833+967316074+966863850
710+964987644+960858011+956422592+952432597+948856567+947470087+950431864
700+955833891+958429987+956661754+954818585+956334125+959077209+958567770
690+953741806+948176309+945590721+945263435+943665335+940135051+937466491
680+937654482+940394612+944072433+945334937+941417748+934390971+928232994
670+923441167+919464428+919773992+924546794+927361722+925010350+921087117
660+921137944+926299229+932879758+935768385+932201628+924671938+918762602
650+916667358+915087803+911178856+906121767+901701939+898654237+896557756
640+893740699+890389957+889888349+894062833+899368289+900373841+896494223
630+892164647+891367417+894527008+898462536+898891750+895032119+890424094
620+886648946+879884616+869476258+862519334+864404882+871559069+875957673
610+875671050+877294975+886037579+897872736+903534187+898809671+887368287
600+874985159
##END=
