##TITLE=<SNM>
##JCAMP-DX=4.24
##DATA TYPE=INFRARED SPECTRUM
##DATE=2/5/2025
##SAMPLING PROCEDURE=Instrument type and / or accessory
##ORIGIN=Admin
##XUNITS=1/CM
##YUNITS=ABSORBANCE
##RESOLUTION=4
##FIRSTX=4497.3318
##LASTX=599.83466
##DELTAX=-1.4281778
##MAXY=1.7842534
##MINY=0.28766984
##XFACTOR=1
##YFACTOR=1.6617154e-09
##NPOINTS=2730
##FIRSTY=0.30089664
##XYDATA=(X++(Y..Y))
4497+181075916+180837421+180669086+180570661+180523726+180345311+179953582
4487+179552832+179380821+179530952+180066087+180964847+181890832+182344669
4477+182144303+181671706+181528516+181906005+182395460+182351358+181420477
4467+179903007+178665245+178530287+179644442+181380483+182792982+183370927
4457+183533720+184024789+184647535+184333714+182822395+181345923+181097007
4447+181786147+182231106+181854460+181172297+181000214+181437497+181786327
4437+181565856+181176386+181165769+181393539+181443416+181447164+181914775
4427+182866442+183582735+183379212+182386743+181281376+180533608+180349921
4417+180955449+182219090+183296265+183438451+182869688+182256251+181857724
4407+181626816+181442214+180976702+180011368+178919846+178302086+178338350
4397+178817851+179447197+179992016+180390417+180667167+180668315+180250921
4387+179703160+179485936+179684311+180073727+180327933+179888408+178343282
4377+176229412+174688644+174215133+174462882+175169186+176379094+177750272
4367+178504640+178249753+177277424+176042102+174786244+173696121+173116186
4357+173374355+174410370+175757999+176920201+177630092+177829184+177585919
4347+177016188+176250826+175475079+174861086+174427192+174098468+173817557
4337+173529759+173286493+173299891+173652486+174141242+174525295+174682708
4327+174681219+174810151+175158156+175412254+175570330+176091279+176740980
4317+176491724+175196141+174027644+173910225+174666244+175682888+176563840
4307+177187159+177539665+177571140+177342222+177187482+177321615+177438011
4297+177076681+176240764+175406677+175029026+175134285+175421616+175764150
4287+176315462+176973503+177195983+176661261+175727994+174960229+174525833
4277+174297632+174278065+174633513+175398660+176356658+177180344+177654698
4267+177850975+178028510+178263437+178271884+177808739+177180559+177054102
4257+177680165+178554409+178978564+178755403+178194855+177708915+177574674
4247+177829184+178208198+178371547+178276314+178208019+178427073+178912672
4237+179451967+179867388+180163561+180454803+180701781+180656155+180259333
4227+179913678+180000661+180310159+180402559+180397286+180823288+181658972
4217+182086266+181501434+180425748+179982870+180526649+181243874+181259782
4207+180731230+180500249+180952149+181615768+181797356+181321962+180629791
4197+180304169+180492232+180740663+180580794+180303201+180663473+181626313
4187+182086123+181339664+180202426+179940221+180633217+181363140+181616629
4177+181646759+181699290+181795760+182115230+182811813+183615896+184110230
4167+184182417+184051117+184086233+184407031+184569806+184127626+183438522
4157+183208438+183402581+183467971+183442827+183907371+184851057+185425146
4147+184995091+183854230+182713495+181979339+181684601+181740324+182116378
4137+182870531+183872900+184604455+184601963+184086430+183812030+184273005
4127+185192838+185746105+185290224+183976132+182567435+181738764+181747731
4117+182538471+183778600+184884344+185383591+185353927+185320748+185628418
4107+186009386+185956586+185457967+185074003+185245746+185821718+186323279
4097+186383360+185913489+185124471+184409506+183994300+183692298+183167422
4087+182461746+182115248+182652356+183971631+185344853+186081143+186100602
4077+185782602+185412448+184974663+184414420+183832798+183344025+183008431
4067+183037324+183704906+184811655+185628400+185679137+185189646+184548750
4057+183838412+183158993+182953730+183589496+184751807+185597301+185668179
4047+185486052+185952354+187197092+188305867+188357465+187499668+186641314
4037+186256795+186059226+185843347+185956981+186698185+187765226+188547662
4027+188703407+188392169+188096910+188193739+188648150+189145389+189424542
4017+189435303+189218885+188750037+188050137+187425705+187344335+187993086
4007+189085631+190107315+190729541+191094440+191614796+192342513+192797301
3997+192646201+192167561+191762739+191445834+191153516+191148710+191747280
3987+192838569+193875426+194262815+193772427+192716936+191763008+191525912
3977+192203717+193462139+194631014+195193481+195220580+195145506+195095737
3967+194885004+194737438+195314307+196683942+197894604+198012722+197170976
3957+196281936+196068119+196571527+197517581+198905492+200708590+202159200
3947+202505572+202394718+202915129+203553047+202802911+200637156+198607453
3937+197919928+198888185+201480283+205071199+207851181+208014028+206136608
3927+204849060+205735176+207578305+208348868+208291495+209172608+211159213
3917+212145477+210317970+206486944+203055180+201585864+202109539+204353705
3907+208831365+215919667+224001569+229751192+231306487+229247748+224250574
3897+217401896+211781457+210562742+213833757+217682108+218188870+216918377
3887+217857724+221216834+223936574+225189884+226308793+225789512+221688552
3878+217313783+217364090+222047622+228430787+234406082+238271668+237881750
3868+234787373+233168464+233463884+232232364+228066947+223839977+222639915
3858+225765283+233810866+245744885+254087574+250234740+238963839+228638184
3848+222761727+222107076+225897784+232143014+239006290+245786080+251269607
3838+252566929+248852461+243567059+239771222+237361663+235253980+233734698
3828+233544196+234680913+237720320+243865438+251212467+254125040+251766074
3818+249158911+247270246+242782023+236032883+231246621+231368343+236631847
3808+244100813+249374737+252557621+257362858+263145857+264418502+260506196
3798+256051833+252725651+249652868+247453539+247656577+250225055+253952006
3788+258179854+262806964+267472382+272339493+278593314+286330959+293337623
3778+298182908+302773395+309743347+320127666+333526588+347807574+359800202
3768+368704588+376089476+382644133+388752324+395926767+404468190+411705297
3758+415340799+417462435+422613416+434027365+450917917+466547374+474949696
3748+480130414+488003448+497347341+501988081+502267682+504762395+512715849
3738+525646784+540751975+552767847+557312959+556151761+555135941+557745436
3728+562965215+567286717+568538952+568338622+568777447+569022614+567784727
3718+566390522+567460504+572178579+578895759+583067687+580938267+574240959
3708+567331769+563235741+563350308+566622740+569400713+569094317+567205258
3698+566203678+566836450+569501183+575440824+585209876+595547099+599559587
3688+595161718+588552038+584562076+583511750+584977622+589365734+597250032
3678+608075077+617599106+620024089+618015979+618021288+618527548+613104892
3668+601755544+590504514+582744002+578274108+576072842+576273603+579544708
3658+584680122+588411143+589839066+592571772+600136438+611194419+617378438
3648+611650892+599047839+587832607+581085762+577968860+576678819+576292757
3638+576963872+578902036+581695756+585140935+590448845+598735812+606810396
3628+608429395+604214675+600226004+600177150+604887584+612746270+619377580
3618+621506067+621312659+622217786+624292756+626295700+628419668+630404319
3608+629733275+625717200+622049918+622397348+626708054+631810540+634996169
3598+636529942+637451712+637364048+636368889+637084195+642224559+651009177
3588+657913165+657569035+651832522+646425290+644607001+646039408+648293079
3578+649516223+649668524+649108532+648030228+647649152+649809491+654595681
3568+659435675+661276060+659265296+654607016+649290318+645490894+644622640
3558+646372275+648968570+650647758+650764692+650032240+650107278+651936758
3548+654239929+654716848+653047775+651141535+650264673+649869249+649161906
3538+648326796+647965591+648093860+648404417+649086939+650190710+650698118
3528+649802102+648270266+646666260+644190845+640893233+638545871+638056326
3518+638370183+638308631+637715209+636910587+636460929+637205362+639180902
3508+640863389+640911526+639750866+638163504+635908398+633162600+631390008
3498+631303922+631803223+631934648+632342770+633757098+635772955+637897210
3488+640061422+641722388+641896498+640359497+638022394+635679982+632877008
3478+629290791+626255527+625013802+624969037+625206277+626032563+627555934
3468+628647151+628660997+628366438+628071807+626660563+623588354+620467219
3458+619374280+620459184+621894747+621905579+620861351+620813214+622552375
3448+624021512+622926062+620207955+618443972+618022508+617349025+615668259
3438+613797457+612592678+612020920+611410352+610125728+608529040+608053986
3428+609577931+612044451+613341415+612424164+610070345+607595289+605510132
3418+603748373+602421351+601584412+600770751+599790693+599621964+601277800
3408+604074067+605951971+605573190+603479712+601112479+599447531+598592478
3398+598165238+597924124+597811961+597495701+596434291+594512519+592550071
3388+591827986+592861094+594727484+595892592+595844312+595329049+594901737
3378+594353331+593502546+592346549+590596663+588198940+586092119+585525921
3368+586624778+588144598+588805957+588309059+586782173+584393095+582111231
3358+581546325+583006602+584731917+585002264+583912518+582473332+581322141
3348+580573871+579961079+579052042+577779613+576574403+575858379+575655932
3338+575779359+576298030+577536598+579319699+580643816+580710569+579989882
3328+579524405+579485667+579198138+578462924+577964484+578055986+578143005
3318+577786679+577584089+578359477+580050394+581814340+582766671+582375337
3308+580562428+577789262+575019933+573275212+572866338+573053863+572926562
3298+572833445+574182635+577386090+580796978+582418308+582096166+581063810
3288+580208398+579850817+580094262+580571575+580939810+581802862+583725029
3278+585713087+586298511+585547048+584608204+584082395+583752540+582986658
3268+581116179+578235225+575654247+574815585+575891630+577780151+579241468
3258+579898056+580061047+579812400+578854725+577281926+576066816+576349861
3248+577958206+579148638+578583768+576993787+575967063+575880869+575861284
3238+575390894+575094003+575652059+576562387+576631866+575477805+573861927
3228+572513240+571250639+569489490+567134667+564744513+563091188+562581233
3218+563159232+564395720+565274088+564835371+563488261+562604728+562691675
3208+563068016+563038998+562308232+560751968+558769541+557323540+556942823
3198+557134222+557090282+556604073+556081851+555856018+555638650+554775382
3188+552954654+550469662+547981477+546215701+545565820+545713961+545845888
3178+545405664+544471841+543382991+542357845+541421691+540361142+538892795
3168+537050868+535339793+534399944+534351341+534479072+533992217+533002008
3158+532151976+531579250+531060867+530744463+530787542+530645822+529614579
3148+527883273+526299570+525252615+524495126+523978572+524000524+524310758
3138+523995789+522712169+521236145+520408783+520312546+520609042+520837529
3128+520297696+518527866+516138358+514503039+514470326+515694977+517052668
3118+517328790+515928415+513587187+512007322+512125116+513045416+513154136
3108+511904735+510000037+508295059+507134758+506429351+505877753+505214995
3098+504416113+503607618+502928934+502574975+502624080+502591618+501719886
3088+500196120+499257383+499466538+499778421+499017202+497516106+496454194
3078+496248950+496423633+496611696+496909519+497323308+497545662+497389559
3068+496905215+495987928+494523204+493022502+492362327+492698494+493199194
3058+492948575+491719656+489977266+488543138+488048356+488278638+488268809
3048+487440837+486360094+485925106+486148285+486236668+485675743+484688080
3038+483620824+482506040+481474653+480971227+481035971+480898484+479953793
3028+478698043+478069756+478311013+478947048+479419770+479331460+478413025
3018+476759377+475039190+474104113+474189302+474625151+474490892+473416892
3008+471659688+469708001+468030966+466955029+466485392+466286676+466028381
2998+465693074+465392525+464949753+464039389+462875931+462205928+462300623
2988+462423440+461668462+460023242+458227444+456906053+456189957+455922444
2978+455901460+455911252+455710994+455140564+454295840+453489282+452868133
2968+452166385+451071115+449750405+448713889+448167276+447800870+447280550
2958+446678841+446218961+445788708+445055467+444027487+443168345+442946098
2948+443431016+444216949+444638199+444219496+443015577+441527107+440382946
2938+439958612+439965427+439552930+438240721+436598551+435601455+435531330
2928+435862046+435997883+435772050+435300439+434681909+433954335+433159578
2918+432329848+431483116+430623077+429692913+428661382+427701447+427097551
2908+426895534+426807906+426542831+426083883+425572207+425081048+424616647
2898+424216597+423969923+423944456+424027135+423840937+423004105+421576398
2888+420093200+419079245+418616531+418359419+417913061+417217196+416547336
2878+416129386+415895195+415683566+415473731+415283480+414994301+414427565
2868+413537324+412456473+411388140+410522792+409977148+409646935+409211445
2858+408445168+407446781+406480927+405708050+405170082+404925955+405034245
2848+405358611+405511271+405134464+404214487+403063403+402062649+401431061
2838+401125490+400949085+400760914+400486657+400001775+399239875+398324955
2828+397378292+396399274+395513839+394991796+394806316+394518106+393803409
2818+392820266+391918690+391254533+390802472+390503716+390222321+389742425
2808+389010870+388244916+387628788+387092003+386538468+386034898+385570139
2798+384917066+383966743+382919107+381965772+381131594+380568374+380524506
2788+380805255+380784738+380200462+379435907+378821824+378164303+377198305
2778+376155189+375577800+375619624+375748646+375289554+374128248+372726653
2768+371628872+371113286+371098508+371218419+371089039+370552648+369703011
2758+368792611+368077592+367635036+367364043+367136990+366841713+366376416
2748+365721550+364926326+364046666+363214031+362612000+362220917+361738797
2738+360889375+359723801+358603709+357896257+357614827+357407860+356995291
2728+356480925+356102575+355885063+355695745+355451439+355110178+354607828
2718+353969855+353352293+352790400+352057230+351009558+349924295+349213760
2708+348926518+348771060+348513016+348125125+347674785+347272869+347033872
2698+346920058+346709218+346257803+345718220+345353465+345169204+344847528
2688+344092047+342997997+341992148+341402564+341172175+340997420+340644071
2678+340110837+339573622+339206284+339032425+338930520+338723231+338277483
2668+337665480+337178590+336996122+336965382+336881843+336729685+336460880
2658+335904511+335100320+334365823+333908920+333682297+333607007+333593018
2648+333410910+332907161+332256168+331683155+331124203+330494194+330026673
2638+329935923+329994175+329868597+329637813+329541325+329438236+328993851
2628+328266959+327653665+327292173+326930359+326418575+325968272+325786450
2618+325730673+325509252+325061961+324586369+324259779+324023436+323638342
2608+322989215+322319893+321998181+322015757+321987241+321709719+321367347
2598+321089646+320746054+320313541+320008652+319900398+319765350+319462864
2588+319148971+318980959+318841463+318527929+318094376+317820083+317863198
2578+318091041+318223614+318026404+317433197+316606516+315830303+315288676
2568+314999569+314919294+315002582+315175221+315312171+315266043+314979554
2558+314583270+314270848+314065747+313842568+313577780+313393412+313294807
2548+313073565+312603784+312067645+311725953+311605038+311548436+311425404
2538+311161442+310736211+310284436+310064557+310195660+310491689+310653890
2528+310580502+310400904+310275397+310275361+310353269+310314818+309978040
2518+309464606+309144724+309218363+309526051+309782875+309846400+309771899
2508+309687463+309622826+309491831+309239490+308892383+308463565+307942204
2498+307398963+307009637+306920609+307077286+307235685+307211151+307048268
2488+306885780+306767483+306633152+306387196+305984419+305539819+305288554
2478+305360400+305656896+305959562+306069465+305880183+305460798+305061286
2468+304913073+305003392+305107091+305032590+304803959+304631427+304705605
2458+304965550+305108884+304906796+304453264+304044282+303894025+303991482
2448+304161109+304254225+304277612+304289879+304261579+304147658+303995858
2438+303871715+303769057+303673537+303637703+303724041+303873795+303884592
2428+303622243+303254116+303118028+303326536+303651979+303842266+303887748
2418+303902670+303892555+303783727+303627911+303616719+303828277+304062862
2408+304056406+303804926+303529808+303389882+303410686+303605995+303946933
2398+304273882+304394726+304221046+303813283+303417573+303339378+303595844
2388+303838966+303744701+303275136+302484360+301314266+299684381+297634878
2378+295310957+292856759+290350317+287841346+285434315+283278119+281469425
2368+280015605+278876215+277985436+277311720+277003100+277419166+278951774
2358+281847847+286161781+291800281+298538517+305730787+312094045+316306003
2348+317811905+317119950+315672478+314887155+314725599+313931739+311825742
2338+309079979+306678240+304784195+302978891+301125163+299513912+298384368
2328+297627346+296909421+296062348+295347221+295143304+295400756+295687029
2318+295716030+295579242+295559891+295865856+296449648+297061489+297536184
2308+297951802+298444145+298960287+299291235+299317832+299130523+298898520
2298+298725271+298647524+298673117+298801493+299039881+299331211+299485288
2288+299350940+299045566+298828574+298780743+298763310+298629428+298350795
2278+298002073+297707998+297543250+297460607+297390267+297352927+297346937
2268+297221269+296870108+296489409+296405026+296653242+296919375+296915590
2258+296686314+296489104+296460139+296487723+296401780+296208462+296103885
2248+296265405+296628779+296906784+296869570+296570294+296266301+296176682
2238+296330310+296590524+296812520+296969897+297097036+297176074+297159861
2228+297037044+296819514+296554494+296367094+296379003+296568483+296786335
2218+296901601+296882501+296770660+296628438+296513674+296489732+296610934
2208+296830311+296957306+296840157+296614629+296618431+296993588+297501606
2198+297800918+297801366+297662605+297527450+297390447+297224461+297085199
2188+297016491+296975528+296932879+296923266+296950366+296978523+297029529
2178+297147934+297300702+297423303+297503148+297543304+297533942+297511918
2168+297557957+297691408+297837917+297927070+297960698+297957774+297916022
2158+297882574+297965110+298179572+298382001+298447983+298436415+298499222
2148+298701166+298977988+299205220+299273767+299160025+298971980+298889839
2138+299000442+299214636+299401139+299540204+299672347+299795253+299897499
2128+299995279+300092879+300201671+300372427+300600699+300788798+300915076
2118+301109524+301451395+301821566+302055829+302148264+302225348+302374851
2108+302554915+302658900+302645055+302606208+302712525+303047760+303490710
2098+303829999+304013972+304191095+304481494+304816083+305026456+305012109
2088+304810415+304555062+304370012+304292641+304301178+304387014+304556353
2078+304780321+305006226+305232526+305515463+305856366+306156448+306368042
2068+306587419+306853856+306995863+306880866+306663856+306573214+306637205
2058+306788108+306996795+307160073+307118070+306911964+306803603+306969858
2048+307355740+307836891+308350469+308814654+309058207+308980119+308743059
2038+308621497+308654677+308652094+308540756+308474792+308581467+308814188
2028+309075316+309309149+309446349+309431284+309407682+309728964+310563284
2018+311512638+311889697+311477666+310769031+310364963+310415861+310699588
2008+310969720+311102759+311094151+311058389+311154662+311424507+311726527
1998+311925136+312204486+313010399+314414110+315696511+316000790+315301266
1988+314247246+313352951+312792744+312589329+312617307+312657875+312629969
1978+312631726+312765196+313024137+313312813+313610780+314156030+315197030
1968+316412032+316969155+316509453+315656122+315197927+315255569+315517379
1958+315796658+316015676+316042435+315880162+315772984+315968364+316528357
1948+317436568+318806993+320733750+322651577+323293028+322130610+320299947
1938+319187064+318999360+319185343+319358448+319450525+319535965+319739380
1928+320235848+321390518+323426175+325686267+327165447+328008843+328963039
1918+329481064+328380485+326223590+324906718+325361326+326915222+328253902
1908+328604023+328248522+327975700+328155441+328587236+329084134+329870856
1898+331299210+333171410+334677923+335557439+336737576+338801678+340606264
1888+340754692+339697945+338848989+338778183+339258115+339971269+340646438
1878+341133759+341527999+342103379+343518497+346875688+352471234+358031234
1868+359675772+356500115+351746099+348470080+347158554+346895524+346916543
1858+346959335+346990649+347015256+347044955+347281550+348158089+350042951
1848+353187545+357555355+361591984+362125540+358391326+353836637+351515890
1838+351421589+351947004+352349278+353744811+357490216+362596325+365786509
1828+365680694+364294667+362870762+360542447+357351079+354949411+354209821
1818+354468188+354931190+355758982+357556539+360126004+362085008+362192544
1808+360880730+359802175+360377591+363010652+366761294+369604693+370069883
1798+368986306+368856782+371642395+376851843+380585197+378789792+373147401
1788+368705198+367760830+369166836+371083192+372886057+374290055+374739282
1778+374832758+376671026+381899162+389535065+395216338+395049546+390540195
1768+385281498+381188770+379638999+381416325+384769858+386573261+386575772
1758+386654577+386973025+387284120+389457766+395231009+402734051+407237447
1748+406655216+403474466+400806181+400067560+401207703+402956441+403708262
1738+404283069+408005015+415787910+421780386+419557778+412520607+406044720
1728+401403549+398913858+398884409+400682217+404137798+410983283+422618940
1718+435717241+441552287+436479572+426939187+419359923+416114680+417623165
1708+423229616+430435946+436009038+440369352+447374240+457684095+465307407
1698+465881101+461606730+453992171+445282448+440173326+440547443+444640889
1688+451121762+461514546+475465498+483877792+479322492+469529695+463280681
1678+463097604+467845235+473843486+478005227+481675091+486524483+489100153
1668+485574304+480046802+478777494+482288851+485911835+485915386+484578894
1658+486795512+495921678+512919013+531819754+536947170+529640297+526342721
1648+530141966+532789877+527048773+517774861+512338969+512770621+518954353
1638+530262092+542615351+546668587+539488441+530637465+527353949+529694460
1628+534434056+539225662+544057442+548130191+549258426+548765079+551228047
1618+557994010+563822851+562837484+558061265+555472001+556538827+559452637
1608+562116438+563928737+565480588+567225847+568932260+570354515+571978535
1598+574550798+577958350+581112377+583157863+584393490+585642317+587211601
1588+588858004+590386791+591900298+593578589+595653810+598925883+604819647
1578+613647954+621632112+622945145+619760234+619654061+624727062+630231859
1568+631114532+629182824+628933747+632760504+642771065+661446941+684412290
1558+692919494+682811010+671237910+665117738+663309708+664031184+666133702
1548+669808158+676771689+688086674+702613543+718325967+731414906+733671160
1538+725208864+718095183+718477694+723444164+726661787+726942214+728879445
1528+734986202+743509547+752417053+762097401+771688361+777143730+777695544
1518+777146241+776805984+775868216+775714193+779051190+787362261+800658382
1508+815511017+820548938+808927844+793876995+786433245+787180475+793066348
1498+799405896+801317373+798776461+797323393+801060979+808624533+814194827
1488+813213011+807663521+802413612+800153198+800602928+801926865+803324909
1478+806160524+812079970+820790984+828999827+831353000+826544714+820502093
1468+818905763+822103515+825780841+825802721+824551383+827849211+837762924
1458+849122028+850718931+840596746+829297256+822919328+821577240+823399762
1448+825382906+824965387+822509556+820173816+819039054+819442799+822410127
1438+827959975+832272331+831259524+827524665+825804730+826486247+827050400
1428+826538330+826487180+827642962+828975508+830385389+833363262+837283279
1418+837948727+833708683+828114429+824118081+821821869+820415576+819795395
1408+820424902+822030270+823100611+822846728+822940491+825310378+829453933
1398+833226528+835162109+834721849+832078350+829278030+829046888+831644618
1388+834014075+832816326+829149259+827506802+830175266+835633504+841489103
1378+847233507+853463223+859370904+862639965+862506459+861152248+860809839
1368+861693014+863269328+865640579+868571104+870367657+869471425+866715942
1358+864255592+863014010+862240308+861169106+860143674+859614529+859201816
1348+858427325+857388262+856411755+855966330+856732857+858759189+860797572
1338+861469476+860877560+860089224+859658361+859436115+859246509+859148227
1328+859129432+859002957+858866797+859470836+861604704+864907912+867743312
1318+868910931+869155775+869993109+871546610+872655045+872858567+873173787
1308+874629796+876891501+878810726+879875831+880451964+880853916+880962170
1298+880767901+880624711+880617107+880198081+878877730+876828156+874457766
1288+871885575+869284115+867110863+865378589+863318900+860432063+857284958
1278+854806458+853433165+853137816+853585538+854134339+854279036+854157152
1268+854247255+854801365+855840141+857212502+858412978+858951090+859144927
1258+859894812+861472202+863188909+864379628+865090845+865651555+866077037
1248+866176467+866060537+866298351+867501265+869741521+872410272+874875285
1238+877275160+880243348+883788316+886834556+888225138+888118463+887972403
1228+889096046+891481788+894074855+896059362+897595000+899173467+900963347
1218+903211207+906295828+909737276+912171944+913124131+913933774+916158391
1208+919798771+923592169+926488189+928412436+929949796+931727122+933893128
1198+935987826+937439458+938178008+938685488+939597287+941247348+943406252
1188+945510563+947324835+949222538+951769405+955261573+959321840+962768668
1178+964625409+965165673+965380746+965812900+966401731+967105487+968141466
1168+969561964+970955057+972110624+973592315+976169528+979728771+983030042
1158+985184857+986564392+987557686+987619525+986418547+985074093+984999484
1148+985989407+986821145+987324535+988332751+990276009+993075037+996598698
1138+1000248404+1002806893+1003515169+1002928633+1002300417+1002386504
1130+1003016943+1003467678+1003410717+1003861523+1006524176+1011527878
1121+1016337886+1018093188+1017086264+1016244841+1017760966+1021383411
1113+1024722489+1025293959+1023401277+1022042546+1023520292+1026980679
1104+1029269287+1028349525+1025674748+1024302459+1025536866+1028665247
1095+1032758729+1037150715+1040633843+1041408693+1038624084+1034027499
1087+1030755856+1029964435+1030353474+1031481206+1034778675+1040011295
1078+1043776213+1043664660+1041222029+1039307323+1039474977+1041948168
1070+1045631447+1048307588+1048698635+1047874716+1047801543+1049535682
1061+1052742402+1055888072+1057249313+1056942917+1056746927+1057030367
1053+1056354732+1054127102+1051725721+1051028995+1052755028+1057023049
1044+1063578818+1070321753+1073741823+1072469537+1068329139+1063230598
1035+1058065197+1054276677+1053482673+1055208993+1057364382+1058794708
1027+1059140704+1057544087+1054042665+1051164581+1051347371+1053082945
1018+1052527042+1049455694+1047798745+1049105896+1049919412+1047708498
1010+1045258478+1045908000+1048626538+1050315482+1050050910+1048957612
1001+1047625640+1045229783+1041448580+1038632549+1039617450+1043150795
993+1044625025+1041915168+1037267434+1033334073+1030955146+1030235894
984+1030796532+1031395048+1030989365+1029649430+1028218602+1027814139
975+1028829314+1030175705+1030427508+1029232413+1026980320+1024045921
967+1020634459+1016588397+1011780398+1006985671+1003059915+999494861+995521326
957+991778791+989147559+987223025+985055512+982216812+978735118+975081323
947+972039459+970064995+969069549+968864807+969217618+969665339+969614979
937+968572472+966863298+965583838+964905334+963587924+961005475+958528984
927+958128969+960118139+962724047+963796827+962805973+960811924+958650868
917+956055720+952767578+949798887+949028270+951176485+954445115+956086353
907+955236465+953235457+951686045+951080499+950638732+949152019+946657808
897+944977760+945604541+947581229+948542169+947646583+946228883+945493633
887+944886867+943348861+941207892+939689614+939341610+939578419+939229339
877+937553308+935135068+933287940+932548171+932544728+933000053+933824833
867+934602050+935122586+935718160+936137401+935208313+932507208+929277389
857+927170280+926809650+927579119+928327712+928130072+926941362+925656450
847+925134193+925587007+926897243+928383740+928483313+926708068+925278818
837+926099365+927510537+927059587+925701502+925957538+927775324+929092805
827+928963030+927974758+927074796+927143163+928413296+930114436+931497558
817+932616179+933767944+935128397+936831258+938274425+938365031+937508686
807+937538027+939065416+940525226+940179446+938126285+936384326+936803208
797+938577736+939120081+937695135+936247807+936398889+937630929+938761674
787+939585737+940433401+941094401+941014843+940292363+939578921+939172163
777+939153224+940045008+942136549+944340505+944851572+943137806+940566118
767+938887432+938993462+941130271+944758814+947895444+948299548+946068619
757+943599014+943018433+944833350+948045522+950367416+949599812+946037843
747+942354061+940764618+941440397+943172312+944343375+943921623+942625448
737+942307718+943602171+945080777+945546146+945545930+945467377+944296816
727+941714869+939374107+938925382+940310154+942096806+942836862+942081095
717+940466544+939110540+938674583+938533832+937413919+935200207+933161967
707+932381020+932436474+931830497+929942335+928156041+928504548+931217203
697+933879139+933770670+930857505+927358953+924789703+923052694+921470641
687+919167757+915092856+908841403+901723993+895927793+892477736+890889370
677+890310726+889943352+889043533+886895964+882692722+876524701+871959682
667+873787225+878422979+879454079+876893008+874655908+875151838+876761152
657+876912664+875612185+874757419+875333696+876112563+874632235+869684130
647+862893920+856567356+851962952+849970697+850973317+853017511+851589911
637+844691877+837157377+835718730+841217931+848777108+853824069+854341090
627+849391837+840245943+830730452+824645791+823445818+824966965+824003945
617+817584982+810825332+812044890+821675522+830066080+828939423+822444418
607+819727315+821827178+823890813+824855770+826489906+825590374
##END=
