##TITLE=<SNM>
##JCAMP-DX=4.24
##DATA TYPE=INFRARED SPECTRUM
##DATE=3/5/2025
##SAMPLING PROCEDURE=Instrument type and / or accessory
##ORIGIN=Admin
##XUNITS=1/CM
##YUNITS=ABSORBANCE
##RESOLUTION=4
##FIRSTX=4497.3318
##LASTX=599.83466
##DELTAX=-1.4281778
##MAXY=1.7695496
##MINY=0.19667512
##XFACTOR=1
##YFACTOR=1.6480215e-09
##NPOINTS=2730
##FIRSTY=0.21813504
##XYDATA=(X++(Y..Y))
4497+132361771+133080462+134018988+134347496+133971509+133271851+132604915
4487+132155481+131987339+132083490+132269806+132189714+131545066+130487992
4477+129700474+129803172+130715503+131919281+133086005+133900775+133759650
4467+132467642+130881005+130163164+130621658+131611189+132315287+132395388
4457+132027910+131511710+130973395+130467070+130185244+130362799+130977916
4447+131697882+132158854+132136991+131467839+130195932+128947732+128655698
4437+129588979+130964001+131709166+131389365+130316568+129065339+128084687
4427+127594384+127538587+127569681+127282051+126593487+125839044+125438084
4417+125520518+125880167+126181206+126169949+125821350+125360758+125075623
4407+125076563+125296362+125677801+126218657+126842138+127344340+127450935
4397+126951174+125985441+125116836+124775569+124761545+124670530+124619534
4387+125067368+126020207+126889979+127148187+126732958+125752668+124216747
4377+122360962+120884319+120384983+120693220+121123232+121274294+121300452
4367+121532520+122074019+122677897+122916511+122542305+121713068+120865359
4357+120419188+120557104+121149345+121900243+122607325+123206510+123574061
4347+123485939+122927958+122299152+122042390+122109643+122089399+121883082
4337+121848506+122131588+122299296+121932043+121244809+120771323+120688572
4327+120794181+120919781+121021222+121014160+120837383+120599691+120420255
4317+120216931+119906904+119667874+119742388+120129696+120674395+121323355
4307+122022001+122483569+122428947+122050456+121892730+122189718+122611602
4297+122757619+122649650+122607849+122800043+123076308+123269089+123511636
4287+123960935+124239116+123666668+122240217+120795393+119952982+119552961
4277+119340143+119501070+120221461+121245460+122130241+122667815+122954234
4267+123151337+123259161+123172667+122901836+122633845+122654252+123187332
4257+124114619+124947925+125280972+125115118+124732422+124580265+125076509
4247+126063590+126756973+126700669+126303343+126078084+126053201+126195863
4237+126634727+127181886+127260613+126587954+125569869+124893267+124926125
4227+125504234+126174235+126645523+126980804+127347523+127722073+127889166
4217+127655516+127067714+126457109+126206361+126413247+126832445+127119361
4207+127118086+126985686+126968823+127036909+126971545+126829353+126954962
4197+127503115+128253191+128877205+129197793+129246519+129125431+128854610
4187+128533696+128498966+128958057+129631901+130129935+130400621+130502324
4177+130377022+130093515+129873997+129814121+129904187+130153788+130450677
4167+130627924+130828300+131378813+132188185+132673977+132408861+131590194
4157+130764465+130191067+129679534+129130865+128925724+129463822+130530959
4147+131427874+131609372+131129855+130589767+130519205+130753298+130700367
4137+130203599+129729616+129731696+130180253+130728017+131191656+131775977
4127+132651390+133445744+133560648+132876333+131779657+130732014+130122213
4117+130204657+130843997+131480100+131551712+130982048+130254731+129995257
4107+130429446+131199749+131710622+131708389+131516448+131623432+132109268
4097+132623180+132845989+132777452+132588803+132383083+132190808+132109214
4087+132277718+132665062+133024638+133143710+132984176+132576696+132057332
4077+131783020+131980187+132273278+132084557+131501493+131117350+131047764
4067+130863401+130487739+130365683+130693016+131135723+131341660+131269841
4057+131039193+130770785+130574912+130505289+130484566+130386733+130272371
4047+130421616+130965881+131588205+131809540+131555753+131268394+131421355
4037+131967980+132356481+132176440+131683225+131521186+131979020+132718237
4027+133253098+133466124+133533504+133573351+133579220+133520267+133347712
4017+133079106+132861432+132764576+132699439+132674131+132792217+132949762
4007+132936028+132793203+132758156+133004782+133558640+134172021+134386774
3997+134089415+133738718+133736629+133959710+134122183+134147789+134087769
3987+134088502+134368130+134857457+135058068+134632658+134003400+134027189
3977+135052164+136454482+137224983+136997626+136281340+135670744+135258508
3967+135013619+135251401+136246149+137596965+138495761+138629770+138370739
3957+138063705+137667799+137252932+137440849+138895049+141204102+142728838
3947+142408169+141310660+141165855+141956366+142118224+140854454+139067414
3937+138171864+139048887+141650155+144745523+146406755+145749494+144037519
3927+143208129+143818598+144864704+145384086+145711726+146648245+148000516
3917+148512538+147236652+144709862+142399706+141306628+141548841+143182142
3907+146826261+152811874+159737804+164768001+166128148+164116301+159690931
3897+154265044+150125071+149132565+150926187+152670658+152215727+151430153
3887+152963976+155929413+157638576+158371743+159737496+160030289+157200968
3878+153950315+154039215+157427412+161797157+165762406+168323383+168121062
3868+166245367+165452686+165895990+165063073+161855766+158341814+157153372
3858+159863974+167262304+177963928+184415251+179481458+168988374+160620885
3848+156804140+157350629+160926933+165865754+171274841+176810044+180921210
3838+181154254+177714789+173569210+170323403+167528387+165069149+163883907
3828+164216810+165381038+167931400+173402533+180188910+183008177+180949493
3818+178317971+175971467+171624851+166254752+163335808+164574198+169271547
3808+174666348+178020151+180493765+184684174+188786443+188613165+185419602
3798+183231384+181966918+179951417+178157641+178591125+181347135+185251478
3788+189732057+194749994+199895475+205204487+211948223+220710028+229624767
3778+236846889+243683756+252605276+264382140+277949940+290665112+299366680
3768+303396126+304580319+304685204+305633622+309559592+316687897+324657346
3758+331476094+338508554+348948273+364914550+385179540+403647480+415446116
3748+424346586+435427842+447294039+453991011+455863107+459828645+470231365
3738+487145807+506848501+522943716+531700927+536091830+541338851+549359802
3728+558565996+565844105+568775762+567599707+564274006+560304563+556536752
3718+553498365+551711623+552137314+554801766+556271464+552130189+543954187
3708+537282786+535132743+537309007+541755680+545770442+548176224+549927196
3698+551975609+554758473+559326090+566901676+576986629+586282264+590084651
3688+586824992+580210012+574736872+572698369+574351545+578529096+584472122
3678+592137440+598281268+597561862+592532894+589495810+587467253+580851802
3668+570422319+562449434+559550653+559637455+559673007+559314806+560362177
3658+562734831+563865821+563799888+566654581+574962955+585826627+591277958
3648+586849007+577973565+570768911+566281731+562985652+560521603+560352991
3638+562719025+565152332+565839006+567117921+573165254+584243870+593531331
3628+593736618+588339972+584493316+584427781+587805237+593438562+598561529
3618+601006336+602101774+604176843+608028525+613654581+620355531+625240227
3608+624707626+619348124+613951515+612292010+614799640+620031471+626512958
3598+632859829+636764968+635759803+630582585+625750549+625662445+631096307
3588+637594286+638905788+634958189+630879447+629842890+631267668+633525309
3578+636013120+638120449+638508019+637150584+636033880+636837158+639531918
3568+642847094+644598247+642607521+636979947+630876626+627625467+627348063
3558+627730569+627338225+626362140+624919422+622951337+621624862+622432625
3548+624698440+625910192+624929115+623182664+622266327+622036085+621346084
3538+619687085+617630969+615946436+615152851+615719233+617398991+618611829
3528+617982154+616140655+614365125+612665909+610912658+609973029+609914004
3518+609089749+606714889+604544954+604455585+605878121+606797894+606257263
3508+604801128+603096016+601148547+598981975+597553797+597966105+599603295
3498+600390225+599308494+597110602+594444920+591512793+589317215+588956590
3488+589906888+590535152+590007759+588537338+586467043+584434689+583744868
3478+585182486+587556261+588520592+587263558+585194494+583763061+583210061
3468+583279285+583454914+582746504+580793211+578516546+576708538+575286508
3458+574239788+573846576+573800715+573567363+573738001+575445174+578113858
3448+579253818+577435611+574242681+571911258+570468107+568712578+566769774
3438+565716435+565687392+565976984+566164621+566103787+565604496+564639152
3428+563243453+561623117+560735099+561633063+563470946+563572178+560740271
3418+557146426+555678934+556695382+558168480+558208879+556697769+554752795
3408+553534966+553552725+554485880+555364096+555301599+554293758+552928041
3398+551531148+550191761+549173721+548512219+547749087+546703488+545709102
3388+544719706+543338944+542021149+541828087+542741024+543450629+543001213
3378+541808195+540965712+541120255+542049865+542967722+543068701+541952322
3368+539960764+538258582+537885045+538503833+538889848+538494032+537543191
3358+536259755+535156251+535178567+536430682+537746452+538293230+538314859
3348+538154348+537955246+538090910+538657328+538918529+538206356+536806859
3338+535398284+534260168+533240031+532112584+531074182+530830559+531782846
3328+533270737+534091194+533645756+532206149+530346530+528602756+527596977
3318+527990225+529801090+531818109+532390892+531252487+529935596+529921057
3308+531003873+531849684+531710765+531014108+530328374+529555079+528480691
3298+527424784+526779413+526437631+526160516+525927707+525578076+524828652
3288+523964938+523786127+524579386+525800289+526982203+528304592+529834943
3278+530901628+531006839+530759562+530941701+531162033+530447691+528874843
3268+527659655+527726456+528827427+530017190+530563137+530244864+529038609
3258+527000757+524554177+522490972+521232745+520317312+519305348+518797702
3248+519632808+521452389+523032036+523814880+524117492+523971051+522837781
3238+520714972+518684137+517760024+517633112+517251438+516391956+515692298
3228+515259121+514312258+512436147+510477285+509727101+510487484+511766833
3218+512338640+511768461+510315182+508479723+506902897+505995819+505396706
3208+504365465+502865314+501705860+501535728+502129416+502787337+503108214
3198+503110493+502745021+501697396+499865048+497689109+495671113+493853014
3188+492071553+490397292+488984268+487767669+486754295+486284986+486576749
3178+487246894+487512399+486798346+485182387+483279367+481645397+480435055
3168+479646353+479235057+478897615+478229278+477113080+475686167+474179108
3158+472933358+472165597+471620265+470868200+469869510+468816171+467741565
3148+466788590+466347674+466276315+465617309+463899575+462033193+461044666
3138+460728671+460321390+459653993+458939904+458145270+457177358+456205396
3128+455408013+454669222+453761529+452854812+452585329+453257427+454157128
3118+454141793+452841539+450898156+449168269+448042306+447440444+447202427
3108+447335559+447806097+448202021+447915684+446784657+445367944+444409544
3098+444043784+443718169+442989396+442111070+441559084+441251480+440660939
3088+439634761+438705078+438388614+438470062+438391181+438130197+438041551
3078+437931313+437142574+435642062+434205854+433401708+433012330+432505372
3068+431672328+430778813+430247912+430163931+430140603+429763377+429002451
3058+428101015+427247718+426496665+425892091+425458770+425014453+424209837
3048+422964268+421663182+420690858+420020459+419401418+418684255+417938736
3038+417384688+417132131+417006775+416785214+416451678+415911952+414774813
3028+412941126+411060096+409893336+409464535+409139607+408395861+407356916
3018+406633749+406695704+407381401+408025362+408032451+407287222+406063353
3008+404704182+403466787+402501986+401798928+401202781+400585186+399928061
2998+399240627+398513843+397749373+396993981+396355012+395873479+395338527
2988+394486423+393409177+392414610+391610753+391002924+390683747+390566022
2978+390316793+389732472+388817907+387649592+386535781+385927481+385838980
2968+385758833+385272345+384381000+383278762+382224519+381497988+381190240
2958+381120075+380993598+380599084+379968541+379413155+379215066+379224216
2948+378990720+378311785+377385574+376457700+375610479+374856895+374183711
2938+373537038+372922482+372421816+372015512+371515245+370760105+369810531
2928+368864970+368009503+367145247+366239181+365514061+365235753+365384329
2918+365593231+365418507+364777006+364058251+363611764+363303257+362801940
2908+362017036+361067858+360169967+359605755+359452442+359406726+359157894
2898+358723994+358200471+357506455+356611276+355705897+354951446+354294935
2888+353667178+353153456+352840246+352625774+352296650+351747738+351066633
2878+350444554+350034922+349849166+349731188+349468034+349001294+348499327
2868+348142970+347892872+347568921+347088907+346496991+345840915+345169286
2858+344586304+344164267+343837097+343469455+342997253+342475394+342050283
2848+341852085+341817799+341700254+341338400+340792091+340177643+339543448
2838+338900139+338216539+337439952+336606981+335837809+335247991+334952070
2828+334943353+334885305+334361564+333431122+332586903+332114846+331805868
2818+331328965+330672201+330122420+329871021+329792103+329662914+329411044
2808+329033456+328481578+327780220+327106132+326616859+326268097+325858574
2798+325244054+324482441+323743324+323112637+322521734+321828839+320956445
2788+319984193+319107061+318505995+318243637+318175462+317927570+317162702
2778+315995761+314941301+314329385+313970749+313504877+312869849+312220500
2768+311538274+310633909+309537349+308605280+308134995+308021429+307883053
2758+307453348+306778645+306072188+305487759+305034798+304589143+303981278
2748+303220931+302580533+302240813+301943191+301270025+300209561+299151701
2738+298379184+297850615+297419608+296978746+296422509+295728891+295070753
2728+294659494+294487626+294327983+293979095+293460581+292924128+292401310
2718+291798418+291141762+290549123+289944712+289149753+288244863+287483213
2708+286925892+286487525+286178077+286013280+285877291+285664355+285367457
2698+284949796+284361461+283732220+283294288+283027282+282601899+281822437
2688+280946192+280371926+280148701+279994953+279711473+279362801+279060550
2678+278772658+278426843+278041190+277616477+277055050+276353294+275715880
2668+275326900+275170476+275130475+275062010+274802436+274338662+273869625
2658+273536198+273246822+272856522+272337303+271770885+271321306+271115351
2648+271034101+270781707+270244151+269616592+269141877+268873588+268681846
2638+268375454+267878749+267361393+267081999+267058762+267038761+266815627
2628+266402920+265888222+265318170+264754302+264295175+263999507+263840804
2618+263753460+263722302+263778325+263852088+263730765+263291783+262681947
2608+262148785+261808848+261656149+261651953+261730744+261793169+261739406
2598+261538171+261280279+261080888+260909111+260665849+260437289+260437959
2588+260660370+260825221+260751512+260549318+260372188+260212527+260029050
2578+259846730+259646706+259383571+259145119+259046725+258998605+258835074
2568+258585501+258400324+258372167+258567164+259013813+259598839+260163484
2558+260626572+260869924+260734893+260283596+259799387+259424313+259057323
2548+258654978+258344825+258151347+257860887+257326604+256737980+256374299
2538+256201762+255934973+255440276+254910152+254662514+254837166+255238679
2528+255479391+255360002+255087770+255034532+255291772+255552612+255468974
2518+255055237+254646673+254499634+254550232+254567249+254453683+254337586
2508+254364766+254469163+254426901+254114505+253639772+253246199+253113139
2498+253180645+253186324+252967764+252661191+252469377+252342122+252083779
2488+251701797+251405043+251258692+251076462+250707302+250235896+249837458
2478+249574123+249375365+249124761+248743358+248245821+247756024+247450301
2468+247422308+247576218+247703274+247667450+247448746+247046420+246456909
2458+245752730+245121085+244769248+244736734+244825651+244807061+244643494
2448+244418931+244170714+243923203+243770395+243784663+243887325+243890688
2438+243681116+243336875+243037445+242879574+242828958+242806679+242757853
2428+242665608+242527015+242324242+242089244+241984106+242164997+242543507
2418+242856283+242983574+243023719+243064498+243059435+242946520+242764960
2408+242620923+242580036+242607415+242632569+242664433+242771994+242950643
2398+243109111+243200741+243273926+243383549+243522902+243657318+243798931
2388+244016858+244331804+244608683+244612734+244185923+243357346+242300788
2378+241207104+240211469+239417306+238863999+238418055+237882904+237326089
2368+237108669+237486075+238281125+238970946+239161910+239120914+239707404
2358+241584565+244667347+248567042+253320667+259079891+265133391+270071759
2348+272951950+273987766+274292169+274688780+274760591+273660378+271298431
2338+268253841+265089447+262027570+259108300+256465495+254288416+252557137
2328+251031488+249497177+247907095+246389457+245190291+244493146+244257407
2318+244270663+244322491+244297662+244152196+243903347+243687771+243699128
2308+243953420+244220915+244285039+244176736+244088289+244113407+244134113
2298+244006406+243823453+243844159+244129140+244436508+244538374+244459366
2288+244336451+244213374+244067022+243922461+243840397+243840144+243896565
2278+243966332+243982571+243874340+243612145+243216582+242751632+242305489
2268+241923760+241601943+241369929+241265912+241213903+241097028+240948073
2258+240901833+240982938+241076666+241075762+240955324+240727886+240425942
2248+240137453+239958515+239875890+239790246+239670423+239580674+239574580
2238+239673154+239905113+240257565+240626002+240914238+241176759+241569013
2228+242135557+242752048+243322752+243915390+244646858+245545726+246530456
2218+247447372+248194156+248863868+249685320+250804918+252183655+253670822
2208+255144878+256612316+258173355+259898395+261742788+263548572+265159323
2198+266590358+268028536+269629794+271377257+273123889+274729794+276182150
2188+277545281+278798988+279875293+280819063+281716214+282526056+283140269
2178+283517694+283688440+283711840+283651639+283557351+283416859+283091605
2168+282408657+281374486+280153167+278874035+277618466+276424924+275202068
2158+273849787+272437324+271092059+269865930+268780836+267866127+267194299
2148+266830347+266705804+267010171+268735953+272976833+279607781+287446901
2138+295562232+303696785+311835317+320061447+328496226+337111408+345856612
2128+354813684+364043929+373457578+382762292+391515525+399480923+406729520
2118+413175056+418449022+422370870+425202994+427589463+430517973+435138141
2108+442379794+452585256+465300989+479286378+492644444+503283156+509971303
2098+512883646+512844151+510723802+507402658+503198054+497603717+490051676
2088+480278993+468175067+453936615+437869973+420182128+401589193+383328818
2078+366274734+350870787+337493372+326149360+316512376+308489110+302060663
2068+296910950+292743381+289365093+286408698+283643122+281186958+279076645
2058+277285473+276020898+275335128+274958119+274861968+275347786+276683484
2048+279190301+283287452+289265796+297438795+308268163+322036042+338799955
2038+358516249+380572284+403527368+425718054+445627445+461872067+473713851
2028+481406547+485851050+488187138+489193749+488907340+487208123+484208327
2018+479794784+473710053+466172081+457715746+448618272+438797233+428031718
2008+416267224+403776959+391001586+378386109+366338027+355073185+344535778
1998+334690688+325853438+318485344+312531576+307183865+301666818+296091596
1988+291077421+286915458+283528164+280793258+278569524+276691007+275057037
1978+273592745+272203104+270811889+269385899+268072769+267287521+267265422
1968+267501270+267098835+265825418+264367564+263429816+263065375+262989659
1958+263079390+263286919+263422890+263342833+263139084+263001630+263052463
1948+263381117+264153688+265471285+266850799+267171767+265880772+263873915
1938+262412970+261848089+261803422+261905722+262012307+262105438+262196797
1928+262397472+263075357+264472884+266059149+267060082+267659068+268444823
1918+268924746+268147907+266576000+265703443+266241053+267621961+268773892
1908+269057282+268657108+268177347+267974593+268016728+268220061+268689622
1898+269579575+270699535+271496465+271860526+272496801+273705805+274446983
1888+273709313+272116085+270928076+270502278+270488100+270577940+270620509
1878+270564811+270517649+270729463+271712638+274202184+278254940+282095519
1868+282939305+280244617+276444508+273823927+272785616+272681201+272906180
1858+273130598+273221144+273246949+273366862+273770400+274713645+276449264
1848+279239742+283114771+286764097+287453448+284442385+280624483+278692240
1838+278751464+279448355+280076673+281499951+284792377+289080673+291699970
1828+291618774+290505686+289399561+287737470+285639490+284308060+284200136
1818+284591467+284840408+285297817+286745742+289151000+291280573+291922978
1808+291307825+290766688+291506420+293953723+297441146+300323669+301300279
1798+300962892+301345633+303991333+308342270+311246765+309850342+305839125
1788+303108107+303163208+304905717+306966463+309053502+310957824+312045377
1778+312654473+314581218+319380921+326334645+331714690+332073362+328588163
1768+324465261+321596970+321156632+323540388+327095499+329291077+330023430
1758+330795242+331714907+332691427+335355806+341049495+348048645+352475787
1748+352858655+351335104+350363322+351025077+353193602+355634250+356910127
1738+357859810+361383238+368131640+373210591+371539766+365933458+360721266
1728+357093098+355476777+355993356+357810623+360699602+366225401+375529464
1718+385771564+390254259+386637556+379896170+374707740+372820236+374618805
1708+379593992+385744908+390597560+394543025+400465617+408702741+414825194
1698+415901825+413412785+407972992+401307811+397550669+398431020+402487953
1688+408555142+417719779+429333708+435881164+432056932+424619795+420561994
1678+421620179+426506250+432025141+435873605+439471321+444292796+447565909
1668+446067892+442796298+442715970+446406093+450309568+451531845+451841257
1658+455066231+463823443+478845715+495476785+501463936+497525343+496627849
1648+501623579+506048225+503770005+498377555+496050147+498722737+506305810
1638+518142892+530912116+537202892+534460644+530108694+530201427+535181786
1628+542762653+551101371+560114901+569303444+576767274+582759596+590693529
1618+602413827+614019220+619202081+618883952+618252614+619264361+620879741
1608+621663272+621506667+621635929+623307731+626847940+631927434+638250652
1598+645629451+653612391+661350695+668029438+673488690+678140685+682401421
1588+686578393+690862349+695056031+698854982+702572049+707234099+714028361
1578+723208369+732134844+736528966+737934358+742391122+752183589+764046639
1568+773493273+781143184+790366593+802364982+817608237+838644423+865885054
1558+886612371+890105708+886084906+882576307+880476862+878825242+876888912
1548+875389629+876200719+880000248+885820450+892445594+896099296+889644718
1538+875701175+864613915+858991621+855156141+849958742+844978057+843091928
1528+843945623+845206129+846485949+849613560+854230618+856649348+855252636
1518+852206111+848634364+844414135+840755225+839777765+843008526+850700680
1508+860077728+862979583+854719962+843979186+838132004+837477084+839847857
1498+842289590+841885239+838648329+836267140+837733150+842185211+845201066
1488+842977639+836952151+831495648+829290522+829981030+831555686+833037609
1478+835444621+839986740+846184602+851010851+850122869+843480149+836827084
1468+834594037+836481107+838660916+837701684+835540103+837077290+844176588
1458+852665293+853691796+845772076+836923868+831624260+829712813+829589699
1448+829111204+826984055+823959520+821233656+819028747+817955661+819665944
1438+824210016+827441211+825120566+819917886+816849589+816687415+816776603
1428+815327882+813516547+812858734+813182432+813966252+815458664+817030933
1418+816376520+812767086+808281823+804732210+802356301+800455054+798522630
1408+797121867+797012930+797546978+797404551+796867031+797350589+799202794
1398+801525753+803437272+804224275+803182437+800855210+799002354+798337019
1388+797465240+794891713+791999261+791940309+795838069+802036871+808458971
1378+814496900+820297644+825207513+828261921+830180457+832878255+836575287
1368+839484086+840796962+841909182+843605216+844238796+842338199+839307516
1358+837462690+837185648+837220441+836705634+835949157+835419738+835150653
1348+835176259+835605711+836444288+838019668+841026046+845351377+849401764
1338+851658971+852528146+853534395+855530763+858547268+862392007+866542578
1328+869995623+872126100+873666108+876309438+881122161+887350186+893096534
1318+897437924+901234705+905442275+909750101+913478959+916762091+920157124
1308+923641202+926395349+927478273+926860751+925737826+925572685+926945961
1298+929313551+931510865+932549231+932117609+930430183+928000024+925613410
1288+923840195+922463013+920932698+919184294+917427064+915640250+913825949
1278+912225831+911061169+910317061+909713499+908987403+908522724+909211424
1268+911226960+913684679+915773853+917307423+918171100+918455448+918938572
1258+920218609+921851928+923358517+925159798+927499973+929392758+929566144
1248+927865698+925031766+921597454+917651519+913368721+909154279+905267369
1238+901703072+898504139+895902907+894029074+892737030+891782211+890833830
1228+889380407+887066706+884255342+882071483+881724276+883491849+886174891
1218+888004961+888389782+888115705+887866295+887787884+888392965+890373057
1208+893441716+896560358+899179673+901351236+903124162+904812528+907284931
1198+911002071+915102948+918202493+920018531+921591812+923706882+925719669
1188+926603094+926881656+928307591+931464499+934951903+937176126+937932748
1178+937997994+938068376+938605389+940113497+942757261+945957063+948935665
1168+951404452+953250435+954272454+954777784+955568476+957052497+959037363
1158+961336018+964049875+967415396+971294927+974540228+975780046+975146683
1148+974144412+973957643+974992393+977537637+981218899+984387380+985654902
1138+985605425+985969703+987601359+990136187+992855107+994882796+995339807
1128+994461663+994010583+995613884+999173045+1003251425+1006393793+1007726851
1118+1007367781+1006562695+1006401244+1007193816+1009123419+1012205460
1110+1015627546+1018008807+1019119002+1020765848+1024501723+1028729764
1101+1030025931+1027719102+1024790122+1024224391+1026581059+1030369883
1093+1033257632+1033673340+1031973834+1029497597+1027491464+1027304551
1084+1029580421+1033319768+1037339991+1041459602+1044962197+1046141833
1075+1044791704+1042993895+1042868032+1044490791+1046060456+1046214746
1067+1045811624+1046401804+1047984779+1049534913+1050621309+1051585243
1058+1052538471+1053406054+1054545472+1056436303+1058436722+1058701684
1050+1056784089+1054683631+1054094898+1054932680+1057146920+1061233040
1041+1065981602+1068913837+1069871044+1071097842+1073224919+1073741823
1033+1070793674+1066628203+1064707714+1064923633+1064356818+1061914723
1024+1058906826+1055811114+1052242260+1049422649+1049012945+1049910186
1015+1049328542+1047118063+1046181617+1048282798+1051662424+1053516220
1007+1053665157+1053835506+1053896050+1051707995+1047096507+1043119902
998+1042472361+1044755970+1047619343+1049232481+1049411293+1048825453
990+1047590626+1045289295+1042475472+1040736109+1040241629+1038861698
981+1034690946+1028443680+1022913830+1020251909+1019788967+1018904963
973+1016520447+1014453769+1014109022+1013777150+1010972368+1005973890
964+1000807739+995941199+990408383+984560839+980170623+977697352+975700116
954+973241746+971010941+969632819+968553728+966812196+963798656+959985672
944+957400789+957999431+961276848+964279827+964487066+962294237+960101480
934+959430865+959584214+959140368+958044568+957275288+957163024+957311600
924+957384513+956867971+955399719+954151003+954770840+956404666+956255295
914+953676560+950912358+949603388+949445119+949847083+950525511+950944909
904+950688409+949859236+948728281+947277535+945269738+942877771+941052764
894+940794818+941843094+942544669+941412775+938503397+935064673+932326440
884+930752941+930543532+932215117+935447758+938259846+938855957+937660841
874+936415670+935913522+935713589+935597781+935950051+936620233+936725770
864+936079965+935410868+934607156+932645870+929864598+927938539+927279569
854+926832685+926542912+927509666+929332648+929889119+928549623+927389880
844+928095144+929601154+930175493+930150537+930426494+930049196+928122342
834+926483887+927440297+930212890+931995508+931869356+931782916+933522206
824+936221813+937495412+936358960+934163816+932845876+933429401+936111285
814+940374336+944833342+947860119+948584118+947292580+945319649+944353111
804+945160440+946797883+947562678+946482431+943713021+940462729+938641050
794+939454093+942020893+944281717+945474518+946555344+948201973+949902709
784+951150846+952284694+954138924+957387190+961281116+963295134+961572191
774+957125699+952424444+948545274+945773260+945502150+948080017+950539761
764+949946978+947584090+946106507+944918119+942270665+939565199+939686577
754+942828800+946494728+948522489+948961633+949392459+951049360+953665782
744+955560592+954960502+952175251+949849326+950130130+952228779+953421652
734+952378584+950421205+949259942+948882354+948419267+948589109+951500006
724+957081648+961680187+962004030+958802637+955191612+953535941+954382764
714+956147588+955936949+952810567+949019935+946640627+945339903+944013644
704+942390018+940670837+938770312+936148466+932122600+926661179+921040621
694+916326635+912605372+910382235+910420355+912239575+913650031+911737933
684+905519673+898113965+895000241+898790223+905930173+909597981+907081887
674+901892662+897124353+891554791+883491849+876622792+877609439+884099605
664+888820029+889187490+886543653+883655542+882241325+881179884+878131045
654+872851763+867827460+865422401+865622551+867246974+869722415+872853282
644+875953044+878438251+880480045+881387702+879076822+873453299+868434783
634+868339952+872835994+877325163+878122799+875391726+871558272+868436302
624+865890118+863813458+863140238+862690027+860090025+855438102+849853350
614+843329403+837440266+836340199+841586569+848898892+852554910+850571852
604+844452545+838062562+836179037+840356949
##END=
