##TITLE=<SNM>
##JCAMP-DX=4.24
##DATA TYPE=INFRARED SPECTRUM
##DATE=3/5/2025
##SAMPLING PROCEDURE=Instrument type and / or accessory
##ORIGIN=Admin
##XUNITS=1/CM
##YUNITS=ABSORBANCE
##RESOLUTION=4
##FIRSTX=4497.3318
##LASTX=599.83466
##DELTAX=-1.4281778
##MAXY=1.7110965
##MINY=0.18212315
##XFACTOR=1
##YFACTOR=1.5935828e-09
##NPOINTS=2730
##FIRSTY=0.20273434
##XYDATA=(X++(Y..Y))
4497+127219203+127085216+127234931+127197855+126742325+126266906+126288356
4487+126870346+127627035+128140680+128407288+128766524+129262730+129436420
4477+129037892+128518655+128489967+129086487+130022402+130860405+131150034
4467+130695832+129847870+129316478+129499191+130012350+130042870+129220259
4457+127986514+127048262+126642263+126452621+126206061+126084333+126336176
4447+126758361+126965611+126945572+126897210+126711421+126068783+125042447
4437+124274593+124363369+125176330+126005992+126402089+126522461+126575358
4427+126402192+125845020+125113652+124470135+123733924+122454389+120657749
4417+119097917+118536181+119020325+120003666+120851497+121147971+120871872
4407+120348614+119924736+119802981+120057975+120514711+120823529+120931614
4397+121127783+121430849+121439321+120979611+120408646+120117558+120141870
4387+120301954+120334588+119852988+118619917+116966708+115549970+114672750
4377+114285340+114514320+115541330+117001568+118114538+118422402+118081792
4367+117592141+117364460+117316070+116938908+115979589+114900767+114501809
4357+115201178+116697697+118251302+119307392+119791863+119838859+119485271
4347+118714621+117663898+116752885+116533854+117200991+118272210+118934784
4337+118656721+117490050+116041771+115125353+115117742+115645721+116117924
4327+116459749+117023626+117874383+118560428+118660761+118278054+117897742
4317+117970855+118720952+120082726+121580489+122445787+122232337+121350461
4307+120645781+120413340+120217657+119695400+119102489+118931212+119248660
4297+119580405+119486655+119131608+119052678+119508797+120331437+121245387
4287+122041592+122587113+122819890+122680892+122180011+121611673+121419722
4277+121717355+122173989+122437053+122483900+122495794+122531570+122517507
4267+122520873+122751855+123257794+123870342+124418211+124772332+124795980
4257+124486218+124084698+123883601+123967683+124236030+124624628+125082290
4247+125377231+125327008+125155198+125170804+125322267+125501829+125813807
4237+126150078+126172744+125971844+125996913+126272142+126396694+126258930
4227+126186910+126453500+126888748+127052021+126886934+126954194+127589978
4217+128189659+128019045+127357865+127077633+127415624+127842962+127906696
4207+127702673+127630897+127939443+128468367+128813670+128758585+128432656
4197+128109224+128047219+128415713+129127864+129854902+130345226+130554299
4187+130456706+130058916+129591399+129295177+129045952+128583558+128047135
4177+127894690+128359618+129344259+130665554+131976096+132734468+132736451
4167+132423959+132308505+132345964+132144026+131626239+131298019+131749725
4157+132831697+133612427+133464901+132826957+132502664+132625935+132699048
4147+132336380+131645137+131015487+130728681+130795585+131161882+131888976
4137+132941129+133982641+134625794+134761725+134554541+134303390+134302034
4127+134583547+134850408+134824244+134528752+134167412+133945986+134040223
4117+134504244+135171624+135778505+136157724+136247472+136015845+135490811
4107+134866874+134475135+134580807+135231001+136253391+137311566+138044215
4097+138268697+138010552+137349932+136446867+135713788+135655365+136388182
4087+137428432+138097654+138173619+138003408+137946107+137981443+137958637
4077+137899736+137894968+137965033+138139901+138475601+138944643+139384688
4067+139572217+139441831+139207314+139076881+138959894+138715877+138512003
4057+138653723+139199647+139904205+140440348+140656883+140687282+140777395
4047+141033063+141376711+141638401+141637859+141317746+140820829+140354565
4037+140035742+139954942+140264695+140990601+141805377+142230171+142121488
4027+141811418+141777474+142278814+143199084+144116045+144645221+144809841
4017+144917141+145015501+144772784+144029700+143145299+142586406+142468680
4007+142652693+142969047+143267494+143575433+144132166+144922340+145437789
3997+145306645+144824681+144506419+144492253+144670599+144963698+145297042
3987+145587513+145816138+145944926+145881996+145665433+145516083+145605036
3977+145924036+146395874+146860110+146982567+146556613+145899865+145586905
3967+145858637+146586517+147564762+148543110+149265735+149660438+149764848
3957+149581425+149249979+149085060+149257310+149668480+150104878+150372150
3947+150520715+150876688+151458901+151679719+151146905+150398613+150210729
3937+150722653+151724443+153182633+154920579+156041656+155589137+153966112
3927+152667034+152510279+152902794+153088948+153419628+154574583+156204705
3917+157044709+156183123+153973032+151718319+150614456+150983379+152565541
3907+155354985+159433727+163880111+166820859+167180843+165313259+162013238
3897+158447187+156281596+156601335+158702724+160209762+159735680+159136205
3887+160514390+162809789+163606116+163304087+163613783+163601216+161674704
3878+159322565+158974625+160842638+163787725+166901705+168923856+168631852
3868+167274575+167078060+167791259+167360265+165254443+163157355+162785608
3858+165096921+170599002+178095351+182202845+178533788+171251814+165421017
3848+162622793+162784635+165138120+168605184+172484390+176483173+179609365
3838+180107104+177853578+174920834+172792627+171403445+170501081+170364692
3828+170968225+171929779+173845519+177775051+182360387+183991808+182596492
3818+181470048+180926471+178733052+175196232+173003617+173724184+176891519
3808+180302385+182072608+183470879+186475437+189571070+189577990+187283134
3798+185482296+184274948+182686353+181203103+180827877+181699683+183510302
3788+186026489+188784936+191112669+193116175+195861792+199731853+203354138
3778+205340327+206371619+208315635+212496589+218824751+225521725+230652863
3768+234542897+238701783+243443669+248841508+255989018+265277902+274759541
3758+282347807+289096677+297879873+310361432+325366771+338633698+347524932
3748+355308329+365617059+377012493+384632477+388666120+394188212+404021663
3738+417853934+433512553+448055480+459033573+465520884+468737834+471295558
3728+474890202+478858278+481598789+483245640+485258740+488212485+491967140
3718+496829033+503271161+511352435+520758708+530693034+539808424+547182708
3708+553026952+558580724+565333222+572907911+578750059+581566723+582933463
3698+584532326+587161339+591789501+599303223+609130802+617907958+620748372
3688+617518892+613888715+613230685+614692952+616705716+619118914+623021983
3678+628511946+632097838+630010905+625928003+625445281+627759848+627839591
3668+624246592+620454535+619328483+621418820+625844445+630916654+634966567
3658+637368732+639088593+642111272+647875660+656708134+666798319+672747103
3648+671024849+666410152+665086911+667951825+672288394+675541774+677138056
3638+677611278+677183762+676127280+675824241+678082929+682615788+685070093
3628+681790530+676432712+674225267+676859404+683341180+690991947+696479104
3618+699149972+702058123+706787946+711413565+714219831+715518161+715682809
3608+714901910+714282743+714524739+714893831+714460481+713255434+712141800
3598+712333602+714288203+716611822+717700696+718153047+719433124+720969935
3588+720469634+717412095+714366076+713806229+716242356+720859297+725829846
3578+729077541+729674342+727460837+722385411+716226273+712857617+714595356
3568+719347771+722821679+724167211+726242624+730487706+734819487+736370885
3558+734748870+731626101+728583523+726226990+724426413+723159502+722934411
3548+724095173+725966292+727414084+728444983+729906464+731561020+731568575
3538+728677554+724865599+723905092+727030928+731784764+734811707+734223808
3528+730314904+725955744+724340836+725237982+725959933+725862012+726834563
3518+729820662+733574868+736160082+736274086+733809234+729703666+725108493
3508+721431712+720857053+724779198+731072089+734459147+731778480+725405996
3498+720296309+720037032+724837397+731522644+736181028+737338499+736299969
3488+734907683+734001485+733526543+733023399+732057656+730864877+730296652
3478+730628490+731470355+732561623+733423311+733205327+732061396+731557279
3468+732604112+733812675+732789855+729042831+724884898+722745751+722530534
3458+722975180+724568769+728659451+733860925+736154173+733823223+729674491
3448+727172087+727371893+729861132+733695455+736972474+738134433+737635179
3438+736106671+732704651+727571924+723891552+724869040+729841084+734818440
3428+736543462+735215659+733369526+733090201+734203910+734580557+733030655
3418+731491001+731944250+732833841+731287829+728207325+727896282+732012398
3408+736799672+737611166+734944787+733372293+735464014+739470614+742052613
3398+741390506+737620891+732496541+728905862+728816394+731503195+734783954
3388+737334534+738824591+739026717+737855557+735449502+732118922+729252811
3378+729300612+732999386+737599122+739341500+737197340+733042250+729030039
3368+726276212+725390062+726846607+730409982+734603298+737692929+739207672
3358+739768865+739903142+739870975+740089782+740634144+741008398+740995008
3348+740884893+740824151+740738274+740722490+740952219+740840534+739031055
3338+735475983+732491529+732278857+734480916+737139216+739006519+740078487
3328+740735132+741212094+740875468+738319353+733810431+730256556+730148312
3318+732897650+735686412+736070241+734100528+732173305+732257238+733602022
3308+734048987+733387030+733916207+737659191+743536461+747685417+747542164
3298+744839279+742807403+742416169+742765363+743008033+742641484+741622404
3288+740896339+741464713+742720255+742832015+741306798+740026123+740707379
3278+742112607+741516330+738943682+737290024+737761900+738256516+737209159
3268+736057898+736240723+736792491+736666593+736602858+736952875+736233093
3258+733513527+730371981+729318266+731358296+735390405+739185455+740878610
3248+740199448+738500832+737466940+737994695+739956254+742093756+742129214
3238+738489237+732669493+728438774+728152791+730746160+733315815+733903564
3228+732428842+730093554+728621599+729560039+733182511+737564487+739882346
3218+739251882+737405824+736396843+736624028+737043764+736674522+735538446
3208+734332950+733731960+733942239+734456230+734453163+734102698+734593199
3198+736027826+736894451+736590440+736357196+736705192+736208332+733719841
3188+730281167+728281682+729017846+731109791+732089972+731868547+732595360
3178+734688577+735702719+733606585+729292682+725411531+723506676+722543850
3168+720542794+717632323+716067011+716783202+717800113+716768391+713931006
3158+711388206+710047685+709105281+708279275+708429411+709500256+709978565
3148+709088525+707666017+706446532+705218445+703926623+703172057+703335582
3138+704037186+704685154+705210366+705961267+706734086+706313528+703681110
3128+699642867+696366372+695089137+695106567+695232615+695556599+696999678
3118+699773553+702918390+704798186+704238638+701646691+698617204+696430630
3108+695414019+695210248+694866964+693424109+691157642+689258172+688191216
3098+687506893+687142439+687481608+688123367+688129053+687586710+687531578
3088+688333572+689389980+690203119+690584779+690057472+688208496+685333783
3078+682077410+679083831+677210468+677016796+677883945+678614125+678931676
3068+679517480+680493098+680695373+678973342+675780181+672829913+671581928
3058+672510867+674940485+676993681+676694458+673964942+670788462+669027383
3048+668578997+667835652+665972164+664320900+664748789+667083030+669059924
3038+668910237+667138985+665198821+663401461+661127065+658528310+656758254
3028+656531293+657423503+658480285+658796339+657865755+656045804+654293701
3018+653180665+652588502+652221056+651872162+651416295+650886819+650357568
3008+649643546+648461315+646906476+645321864+643782210+642271207+641312196
2998+641676725+643328064+645132456+645659238+644386342+642302551+640914229
2988+640401435+639413250+637145212+634666222+633498054+633777678+634408067
2978+634368121+633363104+631749393+630418672+630230685+630953833+631238319
2968+630171139+628300021+626661661+625548999+624637939+623598101+622253989
2958+620654491+619194244+618366031+618186198+618063928+617591267+617277606
2948+617778543+618449963+617776187+615530778+613273287+612351418+612574077
2938+612909619+612604897+611586042+610248701+608870665+607262340+605413214
2928+604080062+603869970+604217368+604154157+603489881+602551255+601491331
2918+600209197+598396427+595949491+593491109+591726589+590605923+589813505
2908+589435885+589491690+589382811+588501299+587040864+585803164+585376061
2898+585521633+585321677+584162336+582490762+581151551+580222462+579090687
2888+577439723+575564341+573910159+572761403+572179040+571902670+571437228
2878+570434531+569063040+568020995+567947012+568621985+569043591+568462312
2868+566956359+565046304+563276697+561962920+560935312+559820668+558632340
2858+557685747+557115988+556802477+556443072+555638947+554289524+552778073
2848+551572838+550904074+550779148+550922925+550799122+549994510+548546082
2838+546837779+545246434+543908382+542843559+542156916+541846098+541588915
2828+541090896+540437616+539742146+538799630+537477101+536105274+535162870
2818+534741900+534509291+534150672+533673748+533127366+532246490+530850014
2808+529441159+528696392+528368443+527495945+525778516+523891987+522415844
2798+521353564+520638607+520180309+519462734+517980008+516083755+514710544
2788+514219331+513964992+513157201+511785337+510388263+509221479+508121796
2778+507001691+506003631+505206164+504455038+503464123+502037650+500317341
2768+498768037+497781124+497332476+497049598+496493865+495427171+494046256
2758+492911301+492362863+492072279+491410360+490110609+488344443+486409702
2748+484641442+483348124+482494739+481662786+480576194+479430580+478469811
2738+477508033+476251033+474943464+474174872+473979778+473602981+472323540
2728+470215100+468028488+466556833+466064461+466108783+465888218+464820440
2718+462908103+460745168+459100113+458291387+458019243+457806720+457367086
2708+456631408+455784718+455184252+454920411+454586590+453738928+452422645
2698+450982670+449550250+448033712+446507748+445265821+444417299+443718612
2688+442967412+442330216+442039558+441885196+441292060+439973570+438256851
2678+436672913+435501266+434749430+434234953+433695865+433131904+432851868
2668+432897350+432792061+432124531+430929620+429387947+427749661+426546559
2658+426197964+426375852+426275164+425525946+424446011+423459435+422681043
2648+422057012+421521590+420937019+420182939+419354951+418617515+417913106
2638+417061816+416049580+415056645+414307951+413881520+413535057+412901714
2628+411936494+410908325+410030292+409375741+408959147+408684497+408454656
2618+408306691+408142417+407607780+406580696+405425469+404543882+404005804
2608+403652234+403273230+402715815+401977145+401201969+400630789+400467413
2598+400576218+400455370+399770447+398724026+397719496+396917353+396246868
2588+395646252+395193116+395005877+395024317+394982537+394639740+393987021
2578+393272888+392837667+392775167+392779730+392506203+392001188+391575581
2568+391342074+391084032+390582197+389906438+389273843+388782032+388474430
2558+388453634+388680146+388880027+388857286+388684485+388496086+388312401
2548+388067187+387668248+387121230+386614046+386322528+386202801+386125901
2538+386071517+386035685+385943973+385816429+385812913+385954820+386002172
2528+385771695+385378591+385017690+384712445+384400841+384091930+383856965
2518+383763271+383799851+383826744+383706194+383507772+383437080+383536983
2508+383600755+383431320+383087438+382819034+382812676+383006460+383075581
2498+382680120+381863053+381055898+380573214+380346103+380218260+380141472
2488+380030572+379774886+379391468+378952508+378502364+378145091+377968026
2478+377881475+377795336+377841379+378141613+378502065+378614797+378463577
2468+378297957+378267137+378287671+378233138+378042682+377663117+377103532
2458+376529435+376122902+375887414+375718577+375579887+375473513+375320834
2448+375011026+374550035+374077075+373730687+373539932+373448557+373375509
2438+373221483+372911077+372508023+372195783+372057991+371987374+371879168
2428+371748108+371591015+371348757+371067861+370882268+370808621+370742680
2418+370637540+370558620+370601858+370792837+371016133+371106199+371040482
2408+370917052+370772340+370603055+370482468+370434891+370324665+370100135
2398+369991218+370212830+370618801+370893900+370946526+370882417+370734040
2388+370415442+369794404+368661619+366816421+364308556+361418956+358334113
2378+355012659+351418725+347700090+344032734+340416770+336740063+332989598
2368+329402172+326507074+324878065+324625969+325314519+326591978+328631410
2358+331759865+336041152+341524868+348519027+356888266+365177463+371289174
2348+373944594+373339003+370935155+368345078+365966814+363198400+359609702
2338+355385604+351065604+347052795+343422879+340314286+338132386+337021744
2328+336563633+336323694+336274060+336522939+337061728+337896935+339082346
2318+340508743+341895269+343071217+344117938+345178647+346271037+347370383
2308+348516371+349699650+350779210+351641235+352312281+352842318+353245446
2298+353598979+354029112+354574222+355150564+355599361+355743737+355548381
2288+355238461+355102800+355195597+355372251+355537123+355670576+355691597
2278+355525678+355287458+355169041+355154192+355048192+354752036+354306791
2268+353773613+353307610+353217656+353656729+354295234+354573960+354330243
2258+353944320+353792314+353832822+353879912+353957186+354121348+354238868
2248+354224692+354239354+354411744+354616338+354705469+354725293+354762097
2238+354786259+354780387+354837165+354997735+355166161+355321645+355615594
2228+356073368+356416727+356444331+356405731+356685355+357256797+357761586
2218+358029092+358197405+358383747+358550863+358689254+358875333+359132777
2208+359399872+359635435+359877357+360218509+360741178+361431486+362166490
2198+362815543+363327701+363712465+364016177+364374459+364978704+365847947
2188+366704773+367252950+367522177+367748015+368004525+368200553+368358244
2178+368629827+369068301+369604808+370235945+371039360+372006113+373026278
2168+374058561+375182780+376466149+377874780+379336673+380850033+382548873
2158+384663410+387364199+390618552+394186790+397713549+400850531+403419326
2148+405507307+407382539+409335046+411560595+414071228+416711986+419343655
2138+421961336+424586759+427171749+429706358+432328152+435220483+438411325
2128+441710711+444879150+447820665+450516966+452802359+454347100+454885515
2118+454403541+453119835+451304522+449106502+446570809+443779841+440892186
2108+438057157+435337479+432670950+429895766+426881054+423640315+420268218
2098+416805194+413246381+409688466+406380328+403509767+400966892+398465647
2088+395892625+393391904+391144624+389229819+387661926+386398830+385306740
2078+384236380+383152556+382118104+381164629+380292692+379601561+379262840
2068+379283524+379384212+379207596+378656090+377958413+377369429+376935481
2058+376610973+376398674+376257890+376101583+375967755+375952532+375984138
2048+375937945+375903572+376073979+376444979+376822674+377093583+377374703
2038+377880503+378687845+379686054+380715943+381675590+382541729+383357374
2028+384130568+384726059+384940341+384681326+384052283+383296557+382600601
2018+381888487+380916498+379612220+378171872+376834119+375731256+374900239
2008+374257918+373595438+372737752+371712313+370702060+369850546+369160836
1998+368608133+368305992+368416069+368809660+368999554+368620476+367818707
1988+366964948+366257472+365731175+365325803+364905992+364471034+364207418
1978+364135006+363999869+363663019+363257683+362950643+362863531+363063188
1968+363332040+363234606+362674422+362033448+361605634+361303643+361011040
1958+360832703+360852339+360917682+360807156+360471727+360067476+359835765
1948+359976438+360578026+361533446+362392329+362505136+361685078+360499742
1938+359567998+358974900+358549853+358276961+358239895+358432557+358757589
1928+359156005+359725988+360531048+361265342+361585960+361763736+362215937
1918+362536218+361972145+360731004+359762792+359569643+359889401+360146471
1908+359977821+359490237+359007478+358636777+358308006+358108873+358275353
1898+358867927+359588794+360008080+360119130+360412705+361037708+361323092
1888+360698239+359589018+358756429+358425301+358408620+358492439+358535266
1878+358505044+358461657+358517125+359020531+360549413+363176519+365690593
1868+366284215+364648174+362290257+360600056+359863668+359708446+359662664
1858+359443259+359122753+358992479+359203955+359717684+360505016+361660616
1848+363457452+366017233+368386221+368644937+366447965+363921996+362856200
1838+363146709+363690921+363972191+364734537+366853936+369688853+371342810
1828+371187064+370436724+369749258+368655261+367196622+366187416+365981551
1818+366202976+366537021+367215735+368599942+370437061+371791720+372016810
1808+371571566+371467436+372349247+374279612+376761819+378789095+379551890
1798+379451650+379907142+382033760+385470751+388063148+387839516+385857610
1788+384717569+385460428+387351557+389463363+391624504+393761706+395465409
1778+396817375+398843266+402585765+407725674+411965556+413092020+411794325
1768+410096196+409220556+409943031+412486167+415640991+417693027+418737354
1758+419958746+421457892+423061281+425719319+430231831+435418456+438828405
1748+439659199+439268226+439074853+439749676+441457120+443731179+445757931
1738+447909085+451867735+457909017+462642505+462800233+460559200+458908984
1728+458466582+459346972+461706535+465062250+469076480+474581067+482364165
1718+490805854+495802285+495684541+493317946+491738720+492267971+495258110
1708+500371986+506268743+511405921+516274248+522909001+531183873+537467525
1698+539950892+540583712+540024576+538662960+538870284+542238492+548143814
1688+555665765+565288750+576514300+584355111+585386683+584170340+585336937
1678+589840585+596547077+603142708+608231673+613269547+619677714+625490688
1668+627936091+628792169+631870578+637952068+644477381+648985480+652338801
1658+657147020+665369528+677751464+691570794+698982706+699652143+701616095
1648+706980347+711750116+712151225+710406753+710350200+713206586+718831461
1638+726411985+733195452+734679600+730763141+726756017+725715767+726953729
1628+728619580+729928382+731027505+730923300+728253330+724498526+722479891
1618+722155757+720216715+714649067+707914447+702670035+699344167+697205992
1608+695222516+692780030+690058669+687507566+685247607+683227326+681630969
1598+680759182+680544415+680411111+679755811+678500644+677081877+675927997
1588+675010429+673954470+672547746+670959543+669668769+669538008+671528516
1578+675528534+679127293+679500724+678344225+679629913+684158733+689242089
1568+692272024+694195282+697162979+702098144+709926051+722294447+738130767
1558+748932131+750624837+750495274+753203768+758901355+766394954+774407706
1548+782448286+791282256+801646679+812872790+823497762+831083447+831554425
1538+826208650+821989751+821892204+824163309+825768194+826367164+828176493
1528+832282734+837618111+842959472+848447676+853837661+857363185+858596584
1518+859260410+860141922+861082905+862640587+865820508+871483010+880132210
1508+889956984+894360579+889525055+882632446+879640511+880591144+883647635
1498+886638672+887773476+887334067+887477769+889517200+892788908+895522388
1488+896470851+895791016+894387359+893273052+893080501+893760262+895124047
1478+897253470+900047094+903034240+905505600+906279990+904975377+903751628
1468+905126559+908894230+911987301+912136764+911372772+912872554+916847137
1458+920186395+919170756+914922533+911357436+909545564+908891312+908868048
1448+908832814+908154699+907023411+906089535+905653940+906100157+908139140
1438+911324447+912921477+911124790+908589995+908377546+910123963+911545573
1428+911892074+912443767+913797079+915217492+916671867+919040070+921472083
1418+921190065+917948728+914546708+912604599+911785849+911391174+911179997
1408+911189647+911337239+911268791+910877333+910721138+911083647+911257795
1398+910628304+909458191+907681253+904682662+901161027+898891344+898219138
1388+897398294+894822654+891602263+890396917+892285091+896192723+900621977
1378+905148777+910010857+914573489+917104095+916734554+914725719+913079392
1368+913211798+915701261+919919413+924093429+926596432+927376282+927636906
1358+928358707+929624422+930847498+931483272+931610293+931649940+931967640
1348+932933309+934546870+936025408+936890836+938117128+940749845+943784643
1338+945056716+944252628+943198988+943411960+944907852+946864025+948428140
1328+949132586+949097876+948879892+948978711+949505718+950323346+951327015
1318+952442969+953432874+953978658+954139864+954421359+955033420+955486220
1308+955313493+954709062+953972225+953028549+952108138+951779666+952107390
1298+952630956+952864649+952404668+951098409+949369796+947750474+946127412
1288+944128001+941883677+939669798+937337801+934813927+932500108+930531892
1278+928288465+925288302+921992282+919162602+916974831+915173656+913599966
1268+912150154+910617831+908971729+907436115+905972987+904003799+900990171
1258+897158018+893394461+890496035+888629629+887426527+886526239+886063789
1248+886504769+887826963+889096642+889310661+888632696+888188275+888651697
1238+889675265+890644599+891327127+891765864+892209687+893125385+894633844
1228+896129288+897167294+898233576+899858957+901822311+903904382+906203464
1218+908154924+908776336+908307303+908241025+909700562+912498001+915567808
1208+917960098+919632832+921374835+923834451+926886678+929741867+931495765
1198+931985743+932196097+933316838+935442446+937705621+939501934+941113252
1188+943262573+946178205+949133409+951231114+952487254+953627220+955099474
1178+956942091+959455941+963185535+967926130+972200461+974361826+974203836
1168+972941712+971911187+971856279+973049881+975274831+977845010+980230044
1158+982367396+984097057+984929721+984932414+985310781+987197235+990042250
1148+992108762+992670478+992601358+992566424+992267574+991860556+992535529
1138+995155902+999285184+1003765904+1007688348+1010741772+1012938969+1014053726
1128+1013916681+1013554322+1014574299+1016848247+1018334190+1017817880
1120+1016395971+1015827447+1016912805+1019296118+1021478728+1021867569
1111+1020904967+1021013137+1023766291+1027834232+1030458196+1030813748
1103+1030656132+1031477351+1032692497+1033525310+1034898745+1037905865
1094+1041919646+1045451005+1047803050+1049142000+1049576322+1048684562
1085+1046395055+1044665320+1046262200+1050657491+1053593171+1052383561
1077+1049000542+1046686274+1046648273+1048469196+1051446094+1054713688
1068+1056678239+1056015309+1053761260+1053136407+1056456065+1062473072
1060+1067492170+1069599749+1070649500+1072547922+1073741823+1072477829
1051+1070703584+1070836290+1071645315+1070944459+1069850349+1070428598
1043+1071269864+1069361193+1065283378+1062440831+1061826900+1061483391
1034+1060713639+1060988999+1062436268+1063454824+1063862740+1064743130
1025+1065342998+1063811199+1060984287+1060319263+1063500755+1067876372
1017+1069410266+1067507655+1064639524+1062200704+1060094023+1059176529
1008+1060448453+1062346202+1062409263+1060861830+1059666732+1059931245
1000+1061597844+1063355557+1062531197+1057566633+1050895149+1047359751
991+1048950272+1052220634+1052166699+1048061130+1043121926+1039528777
983+1036842500+1034187566+1031355716+1028348821+1025577564+1024056388
974+1024304070+1025271758+1024768090+1021289993+1015434641+1009054003
965+1003477004+998779272+994457665+990466175+987310715+984989490+982333809
955+978519459+974621252+972059901+970548374+969089436+967699020+966604162
945+965305159+963690774+962485876+961905907+961179841+959864830+958740647
935+958729726+959488107+959906347+959616025+959056253+958478977+957822930
925+957080482+956172862+954940511+953510598+952276301+951515227+951325893
915+951636038+951973263+951711517+950816690+949952758+949688394+949908098
905+950184132+950332921+950123390+949100495+947391181+945661147+944102567
895+942459008+940886590+939730391+938700988+937088249+934816321+933019784
885+933197747+935458379+937920239+938517340+937209434+935604176+934623172
875+933484478+931361264+929180076+928682542+930246657+932395978+933311676
865+932588229+931493221+931446767+932334712+932867405+932162210+930138488
855+927274247+924868941+924522290+926612665+929770967+931892909+931723848
845+929953418+928456254+928476452+929842780+931466516+932326334+932389695
835+932698568+934104693+936055928+937263369+937264491+936559147+935568718
825+934269715+932966672+932874436+934907210+938098427+940440074+941136516
815+940790240+940299514+940919953+943663831+947449156+949612391+949260130
805+948256834+948125401+948292741+947573408+945585069+942937317+941216110
795+942111236+945443387+948854309+950506470+950924785+951136036+950764850
785+949231779+947347196+946231093+945825495+945598534+945335816+944630472
776+943160986+941432149+940160450+939547790+939726800+941127614+943604884
766+945918629+946882801+946802908+946765505+946525005+944937625+942893855
756+943226666+946719425+950287962+950567138+948099593+945958575+945663092
746+946424241+947264386+948313088+949737392+950840703+951288939+951888658
736+953051739+953770249+953151081+951597513+949727891+947658313+946048117
726+946113947+947735064+949003920+948474071+947176339+947469428+949762077
716+951845420+951812805+950146355+948699386+948154949+947504811+946087690
706+944358703+942854731+941531566+940366166+939477248+937678243+932891791
696+925968811+921246019+921061473+922570905+921730163+918034979+913653751
686+910404036+908751126+908458710+909304465+910705803+910874265+907925569
676+902383729+896945419+892826685+888354867+882109254+877111775+878382502
666+883426659+886535141+886890019+887155655+888606664+888861004+885251772
656+878980724+874542569+875172509+879250399+881357530+877881826+871076515
646+865642395+863512748+863362762+862652556+859831703+855887939+854058862
636+856322037+859292502+857030897+849823281+844256829+843735133+844953496
626+842862523+836854942+831903843+832679504+837125963+837421521+830008188
616+821083852+818206521+823477938+833510448+840939415+840424302+835334214
606+832617790+833011792+832011114+828645450+827358266
##END=
