##TITLE=<SNM>
##JCAMP-DX=4.24
##DATA TYPE=INFRARED SPECTRUM
##DATE=2/5/2025
##SAMPLING PROCEDURE=Instrument type and / or accessory
##ORIGIN=Admin
##XUNITS=1/CM
##YUNITS=ABSORBANCE
##RESOLUTION=4
##FIRSTX=4497.3318
##LASTX=599.83466
##DELTAX=-1.4281778
##MAXY=1.7404164
##MINY=0.27963835
##XFACTOR=1
##YFACTOR=1.6208891e-09
##NPOINTS=2730
##FIRSTY=0.2947537
##XYDATA=(X++(Y..Y))
4497+181846927+181911151+182565174+183228739+183457245+183357922+183314953
4487+183468075+183691028+183977213+184448033+184926411+184910948+184179390
4477+183186046+182718480+183211106+184304325+185015089+184551586+183128312
4467+181783310+181331906+181786546+182732177+183812048+184769943+185320965
4457+185235817+184559326+183648905+183080434+183360956+184327970+185033273
4447+184726661+183731736+182856948+182368053+182050593+181821205+181819292
4437+182199634+183017939+184006502+184516670+184150836+183398409+183154384
4427+183587072+183989329+183837200+183398593+183081979+182789396+182203476
4417+181364211+180796475+181076004+182107904+183014776+183063445+182395945
4407+181611765+181105918+180965924+181069936+181159919+180981240+180388554
4397+179534984+179033568+179424408+180349263+180841853+180504554+179810449
4387+179325397+179260089+179664792+180379600+180726276+179943677+178250160
4377+176920014+176934356+177999572+179110258+179685716+179907143+180116344
4367+180163358+179620904+178603694+177784378+177394954+176894365+175963223
4357+175199672+175421780+176643005+177991647+178579590+178408817+178155434
4347+177943714+176981223+174928123+172932279+172521582+173918949+175975082
4337+177363145+177499057+176700352+175776803+175310597+175306754+175563300
4327+176033790+176642545+177094887+177146369+176893446+176572235+176126071
4317+175347958+174567694+174547047+175400139+176314311+176668782+176774284
4307+177203974+177958386+178496557+178334407+177691398+177468021+178162770
4297+179023787+178999645+178374618+178499388+179868624+181376107+181711088
4287+180784248+179418819+178248892+177425548+177023456+177184907+177830987
4277+178506081+178711861+178434429+178209563+178548700+179349005+180014887
4267+180244754+180467597+181175364+182051825+182323705+181859301+181262662
4257+180964196+180921208+181041787+181190624+181063152+180703826+180728464
4247+181451638+182270532+182441709+182048461+181735119+181805907+181972157
4237+181804179+181209599+180450719+179798332+179332200+179005786+178729623
4227+178535242+178709342+179449542+180417274+181097975+181521506+182084627
4217+182812434+183377356+183667953+183859338+184006282+183857223+183159036
4207+182082733+181158228+180747402+180859577+181413321+182268583+183087072
4197+183517442+183393665+182698585+181731038+181207908+181616582+182501649
4187+182960959+182825323+182775404+183186726+183521524+183225632+182610202
4177+182354208+182620829+183094592+183528529+183949891+184507293+185218865
4167+185887707+186318427+186460848+186298956+185927661+185673579+185695238
4157+185627025+185077474+184246022+183643316+183484898+183682846+184132008
4147+184661592+184896386+184499405+183540333+182496721+181950461+182265586
4137+183313335+184456583+185041730+184978132+184730338+184800280+185274024
4127+185808627+186053258+185982636+185745691+185472984+185294911+185167530
4117+184696930+183625095+182432038+181919314+182293993+183079791+183815063
4107+184465942+185082346+185426962+185305557+184970373+184725374+184465298
4097+184054233+183807488+184123293+184845474+185354483+185264482+184858234
4087+184731680+185095345+185614191+185897765+185929205+185987141+186272792
4077+186707686+187098783+187329716+187262404+186692333+185670288+184686818
4067+184306164+184717744+185673542+186697794+187381860+187610330+187485633
4057+187140851+186768508+186615496+186697389+186696948+186401166+186061918
4047+186104685+186622465+187289928+187649401+187500360+187142285+187109870
4037+187546032+188046860+188326793+188783548+189964966+191503246+192184426
4027+191443380+190251739+189994072+190889747+192003136+192438599+192101319
4017+191540001+191297576+191359575+191304526+191047318+191107185+191907968
4007+193113546+193987856+194245854+194176813+194038364+193753374+193227689
3997+192627170+192217852+192104187+192253411+192699907+193530807+194622481
3987+195560648+195911019+195465516+194320724+192955331+192073813+192150172
3977+193190989+194866211+196594037+197644250+197641713+197010342+196558312
3967+196629504+197021778+197602973+198384505+199044816+199155153+198899986
3957+198855528+199131839+199377261+199622774+200503207+202318754+204188799
3947+204851684+204364518+203941980+204077120+204014496+203205715+202141657
3937+201629853+202250265+204190251+206691722+208011700+207147116+205393550
3927+204941888+206324453+207963105+208350028+208101646+208868157+210847729
3917+212205142+211064560+207827082+204668978+203179882+203382279+204886342
3907+208211891+214053656+221214242+226441349+227581545+225257669+220733823
3897+215194000+210833406+209972316+212781391+216262673+217119847+216416990
3887+217495279+220547183+222783705+223656581+224982351+225696994+223183223
3878+219172652+217702236+219769199+223738033+228229317+231741855+232064353
3868+229863206+228483638+228947968+228897791+226509526+223166712+221408365
3858+223101680+229612140+240464789+248647548+245345533+234808083+225533134
3848+220730955+220486232+223697822+228618594+233705468+238333878+241902366
3838+243021400+241346766+238548135+235969717+233619071+231632217+230948501
3828+231803082+233228948+235291461+239673548+245793775+248915162+247102391
3818+244097133+241656301+237981006+233220600+230222697+230985218+235543502
3808+241632767+245857484+248104615+251027098+254191968+254235194+251604835
3798+249592793+248465063+246792341+245091543+244890690+246364876+248919961
3788+252504831+256995214+261417071+265394105+270266981+276902799+283529811
3778+288013924+291324764+296113319+303849344+314313231+325747294+335611269
3768+342935126+348691982+353860290+359565371+367448799+377775119+388349250
3758+397146446+405407973+416216641+431667914+450904138+468421931+479424797
3748+487676542+499285093+513686869+523057610+525337929+527792588+534792696
3738+544974572+554465561+560170274+561553078+560687483+560495492+562422204
3728+566143502+570488650+573787576+574312360+571344427+566191012+561731206
3718+560372377+562944966+569018363+576745029+582243409+582450220+579705387
3708+578310925+580079330+584657728+589901494+592606244+591624006+589003907
3698+587268120+588553035+594942090+606665556+620372363+630313965+632505183
3688+628611016+622985144+617884903+614305143+613717735+617709864+626774141
3678+638868497+647518492+646547763+640993230+639649405+642222104+641165989
3668+633680222+625114878+620063398+619169818+621121572+624795764+629753474
3658+634699343+637092150+636879750+638124436+644439651+654865184+662419569
3648+660304397+651893279+645132672+643532907+645364193+646878130+646576666
3638+646206217+647606599+650458110+653699339+657925932+664365145+670529886
3628+670813625+665979839+662664623+664935418+672547095+681991750+687956299
3618+687546282+683247468+679227317+677884153+679244821+681634906+683502156
3608+684662632+685644099+686814577+688312995+689824358+690826417+691740736
3598+693568124+695679325+696335646+695898270+696628504+699687561+703911800
3588+706446477+705548779+702984758+701430224+701993584+703976300+705648507
3578+705830164+704550838+702760002+701967107+703411470+706928495+710841710
3568+712503620+709681013+703348073+697461114+695099932+696288135+698718597
3558+700283648+700825017+701423384+702735585+704437284+706302033+708735805
3548+711542967+713178180+711954602+707773607+702580257+699581214+700722568
3538+704321449+706466481+705299680+702810528+702146411+704387273+707942247
3528+710697487+712465376+713813982+713774194+711297545+707390287+703977624
3518+702082647+701447140+701389259+701895768+703464569+705487957+705579374
3508+702507888+698903197+698519877+701604233+705095076+706871791+707157736
3498+706363296+705035210+705140086+707735805+710285778+709321448+705501268
3488+702860098+703287619+704590259+703765371+700664026+697644316+696610780
3478+697358445+698019105+696841860+694200616+692423681+693184657+695341824
3468+696297255+695491268+695008074+696553488+699552678+702961738+707224883
3458+712541349+716257683+714753160+708457214+702113389+699415442+700356164
3448+702951368+704731908+703470527+699231504+695252834+694561652+696296078
3438+696825901+694373522+691044259+689841935+691227093+693034845+692974758
3428+690795822+688064705+686598206+686928940+688126410+689383746+690572611
3418+691486489+692081473+692727571+693399705+693553268+693395365+693829064
3408+694474868+693512744+690444568+687434861+686749342+688027050+689093682
3398+688705067+687390586+686002266+684712790+683332192+681707643+680250484
3388+679905040+680982189+682583571+683739267+684455969+685179364+686182526
3378+687303435+687333294+684952402+681105819+678842526+679866796+682476415
3368+683697714+682644908+680742430+679166421+677681315+675873196+674110969
3358+673222023+674191501+677325060+680899597+681790749+678847013+674488332
3348+671938431+672192458+673848705+674875770+674382646+673104791+672288803
3338+672394856+672962113+673240262+672915779+672271887+671527679+670687053
3328+670215919+670770012+671902541+672351758+671951228+671894451+673025289
3318+674835614+676096848+676001386+674768320+673719780+674482669+677178410
3308+679741033+680151491+679076181+678718014+679339033+678925265+676508850
3298+673935121+673381691+674666827+675971526+676363671+676501937+677092729
3288+677893347+678297774+678250116+678505393+679777732+681214814+680706319
3278+677703967+674309395+672813109+673392428+674478624+674848558+674811712
3268+675126193+675487669+674844219+672981897+670919236+669635718+669188781
3258+669319325+670046912+671080522+671576955+671136858+670391179+670158701
3248+670567394+671177896+671446852+671190767+670877683+671166350+672128988
3238+673235776+673835541+673658001+673217316+673099202+672886067+671804799
3228+670220185+669089348+668041617+665906293+663090305+661482157+662121268
3218+664276081+666220701+666109794+663329990+659736331+658067507+658700882
3208+659433323+658818114+657874597+657720372+657720740+657137302+656709193
3198+656938141+656413393+654294102+652746482+653696250+655408245+655322711
3188+653977268+653286527+653057874+651897839+650025882+648721919+648318889
3178+648193714+647886661+647394420+646648594+645455831+644107593+643486500
3168+644029561+645031694+645390596+644554971+642679116+640262628+637844154
3158+635909389+634833858+634636535+634937925+635356400+635548133+635154223
3148+634217325+633124070+631838787+630080531+628363021+627726410+628367948
3138+629375964+629844965+629595939+628789953+627612046+626421637+625520777
3128+624722439+623702067+622771127+622565714+623029198+623349048+622714349
3118+620786572+618007724+615720676+615221338+616444181+617910276+618043173
3108+616409247+613702437+611052883+609527767+609605064+610769181+612149264
3098+613445947+614577336+615003091+614019566+611434070+607917229+604913626
3088+603665703+603953304+604504491+604679015+604917891+605634777+606441242
3078+606563180+605676441+604286686+603210640+602738514+602617899+602555863
3068+602290437+601554650+600325666+598868396+597572302+596908332+597204353
3058+598056600+598248775+596965256+595023579+594018026+594242083+594492322
3048+594028470+593384651+593012510+592563183+591856373+591340966+591215019
3038+590893330+589714468+587858434+586102422+584676887+583098671+581334864
3028+580168099+580115330+580799635+581462943+581525384+580804379+579613896
3018+578496922+577739145+577198621+576380390+574842624+572946398+571802506
3008+571980964+572618899+572359687+570918782+569097094+567524762+566161336
2998+564943531+564048812+563447393+562947172+562576429+562383997+562167809
2988+561700831+560896242+559771472+558631184+558040282+558200134+558590256
2978+558432391+557429890+556062530+555113314+554799605+554496156+553581432
2968+552243711+551282911+551377711+552291993+552742350+551654059+549539512
2958+547929047+547611881+548000643+548034548+547267026+546057605+544947581
2948+544110374+543443720+542875213+542374404+541859658+541282031+540655937
2938+539873522+538640676+536874957+535147517+534356828+534789571+535759233
2928+536208449+535414304+533349437+530785894+528797662+527825646+527436884
2918+527028669+526430890+525947181+526106738+527053454+528006164+527850578
2908+526404304+524483881+522765524+521342563+520297443+519795237+519506754
2898+518748646+517383529+515937733+514759605+513778360+513096665+512958657
2888+513018817+512433946+510937035+509348523+508813222+509682163+511079052
2878+511611522+510747251+509278876+508198160+507568168+506858710+505889011
2868+504893755+503990431+503128109+502381106+501875627+501534596+501129911
2858+500428690+499274870+497828742+496635465+496124506+496134545+496128000
2848+495744165+495041216+494319072+493723573+493038937+492048093+490951161
2838+490046108+489209416+488200150+487235121+486752809+486744829+486685294
2828+486047654+484663304+482729275+480756194+479367726+478827239+478782965
2818+478652973+478156981+477379126+476573250+475982678+475530005+474734720
2808+473314333+471716113+470640362+470191954+469853938+469148415+468066155
2798+466964331+466228102+465954550+465830515+465323638+464091713+462270502
2788+460362030+458881373+458120654+458100319+458548101+458954809+458810328
2778+457880344+456367805+454830481+453697032+452784920+451615839+450240205
2768+449254436+448954921+449009897+449006256+448836108+448504859+447956319
2758+447142169+446103227+445004051+444055901+443250760+442302021+441081900
2748+439945510+439296212+439002213+438655005+438258741+438135037+438206082
2738+437956763+437135332+435993940+434867736+433968237+433455955+433238738
2728+432868252+432039319+430967686+430006003+429178210+428294082+427272901
2718+426213256+425289890+424599812+424030863+423384066+422696341+422245580
2708+422124965+422051015+421776837+421430584+421193878+420900725+420263305
2698+419293201+418210573+417111066+415973168+414880060+414057746+413688621
2688+413700057+413747053+413488871+412920547+412375611+412162549+412194983
2678+412037963+411365572+410280774+409118423+408121475+407398374+406932500
2668+406559035+406170199+405841046+405547121+405076833+404412974+403772061
2658+403189322+402551902+401970708+401604487+401301296+400830604+400190058
2648+399443202+398607504+397779748+397034767+396283278+395498841+394858700
2638+394433679+394027377+393519397+393094634+392959715+393021089+392963024
2628+392560289+391894738+391273571+390880249+390579742+390195098+389808984
2618+389555178+389300526+388818950+388119862+387376499+386691422+386112397
2608+385737131+385621223+385606330+385403748+384939050+384448060+384096475
2598+383750186+383317443+383012045+383025504+383200873+383222863+382922981
2588+382323290+381571654+380860137+380278759+379759122+379228969+378724483
2578+378248054+377662300+376910517+376225402+375899412+375913054+375963139
2568+375803949+375416621+374893234+374305972+373729338+373319983+373237170
2558+373432875+373660462+373743937+373682894+373481673+373077466+372469207
2548+371764750+371103391+370609974+370351461+370257727+370150902+369921991
2538+369644614+369454499+369337855+369153587+368887057+368716432+368727243
2528+368707202+368376504+367762361+367203047+366957110+366916844+366791118
2518+366488294+366165723+365993148+366044556+366277696+366429751+366148881
2508+365430561+364694479+364283286+364142740+364090817+364110086+364197311
2498+364142814+363731841+363112145+362694884+362659950+362796120+362860840
2488+362858964+362903607+362972850+362883087+362493001+361936702+361543859
2478+361468364+361556655+361606188+361533489+361282294+360816345+360250044
2468+359809395+359614058+359589237+359601629+359592178+359542829+359419420
2458+359230371+359056031+358938799+358830209+358691980+358558679+358471086
2448+358412691+358320575+358143771+357902063+357677492+357534188+357468916
2438+357438616+357417324+357427363+357476308+357456083+357215772+356780934
2428+356369373+356148589+356104608+356146493+356191282+356166460+356071844
2418+356016207+356071219+356128217+356024407+355759275+355457812+355203675
2408+355045074+355039521+355131343+355129835+354965203+354797703+354746809
2398+354715552+354593320+354447332+354423025+354567983+354774242+354843926
2388+354634321+354121377+353255819+351803219+349441081+346065043+341989807
2378+337766634+333691067+329560193+325122083+320657643+316732330+313422630
2368+310307863+307297493+304864439+303326122+302586492+302792365+304553102
2358+308199622+313356034+319652532+327365482+336406555+345001574+350647891
2348+352136712+350272404+347222909+344823520+343177679+341438730+339237951
2338+336815284+334472783+332200849+329819000+327495363+325784545+324932850
2328+324503196+323940830+323277853+323108882+323923436+325583839+327537431
2318+329362172+330894789+332052544+332878498+333706107+334958258+336705591
2308+338598692+340252660+341513820+342365037+342837273+343063389+343192351
2298+343237729+343184445+343175877+343416702+343957925+344687681+345457115
2288+346139177+346621563+346837787+346837346+346762219+346701875+346630058
2278+346514333+346377612+346209009+345940126+345573391+345250709+345135022
2268+345227175+345347275+345364301+345393756+345637449+346069015+346436154
2258+346545186+346414275+346185143+345994145+345894013+345824880+345702574
2248+345590784+345700110+346108362+346565521+346751224+346687570+346694373
2238+346951636+347327785+347631308+347811421+347902912+347950826+348000102
2228+348060262+348096998+348095748+348084128+348096263+348173670+348357791
2218+348627740+348900668+349119430+349280164+349388423+349461821+349540331
2208+349631344+349685878+349660541+349570889+349491975+349521651+349693269
2198+349908721+350023011+350008523+349995137+350161056+350588209+351153481
2188+351581443+351710478+351678045+351728571+351879780+351918502+351736109
2178+351527901+351573389+351913722+352367682+352774720+353044302+353060997
2168+352796232+352489143+352472374+352793879+353176500+353372426+353421002
2158+353516538+353749751+354070300+354427070+354806786+355145279+355339072
2148+355392282+355454502+355655061+355961856+356245375+356425929+356527974
2138+356650391+356900225+357281633+357659032+357912544+358086773+358262768
2128+358353045+358225002+357988112+357922619+358115860+358401217+358686648
2118+359086847+359651714+360186243+360476969+360555405+360615566+360764753
2108+360947293+361052500+361042903+361008520+361087876+361296708+361500246
2098+361610785+361700878+361866430+362123545+362468253+362864113+363180101
2088+363314763+363342049+363395259+363481087+363500356+363394708+363223015
2078+363102327+363081330+363127369+363234966+363407946+363545035+363569967
2068+363651492+363996090+364442733+364600083+364386948+364102584+363979358
2058+363968584+363948506+363904783+363913572+364059450+364315352+364497745
2048+364478733+364402871+364521500+364853853+365167892+365266113+365163884
2038+364991751+364838004+364715329+364591111+364425229+364257986+364232024
2028+364417948+364689699+364890883+365018926+365180248+365493663+365999546
2018+366496053+366604275+366197163+365595928+365206945+365140460+365210659
2008+365180616+365018227+364917874+365021647+365238570+365407394+365447476
1998+365358192+365350028+365851940+366978880+368112806+368459390+367930266
1988+367052572+366267767+365716616+365420889+365342379+365376321+365429825
1978+365464244+365481344+365504989+365532642+365575482+365808033+366433465
1968+367233421+367593868+367265266+366701797+366396435+366359957+366410078
1958+366488110+366535841+366463325+366333443+366312630+366459353+366742798
1948+367252837+368279093+369956521+371645570+372102803+370900737+369118285
1938+367983366+367646012+367572099+367428611+367302370+367377938+367634943
1928+367993074+368708305+370065552+371607216+372568163+373111628+373826602
1918+374217056+373302883+371521535+370368377+370578496+371642518+372546026
1908+372651894+372132773+371618946+371444128+371431699+371384299+371515063
1898+372211467+373367824+374315974+374853446+375721872+377209811+378121151
1888+377361498+375697345+374547643+374260521+374416769+374704369+374979062
1878+375146010+375257395+375531757+376500978+379033742+383356422+387630305
1868+388700946+385812846+381648399+378816709+377786776+377778392+378044369
1858+378231764+378319062+378483731+378815532+379302588+380113906+381641522
1848+384352671+388347044+392226539+393113536+390177153+386279052+384095740
1838+383788503+384155165+384577500+385858886+389044808+393376498+396273607
1828+396570180+395710652+394590773+392615999+390046830+388354435+388208374
1818+388885324+389524583+390232312+391694068+393888192+395623684+395776255
1808+394690832+393781293+394319132+396782984+400471333+403579261+404599008
1798+404021638+403981335+406253747+410464859+413416980+412018326+407849945
1788+404896169+404715357+406178584+407893447+409580694+411097351+411940368
1778+412469639+414264079+418681118+425113418+430107276+430224176+426447462
1768+421946874+418634233+417666519+419500048+422555795+424235320+424364503
1758+424552779+424992067+425485522+427606283+432844202+439522953+443434918
1748+442863027+440232411+438318350+438150592+439485960+441226564+442072522
1738+442722776+446016994+452861003+458409652+457003276+451221413+445825776
1728+442257857+440816657+441432970+443227005+446093335+451864533+461935098
1718+473404390+478968226+475744832+468938295+463656911+461800693+463741672
1708+469023608+475774360+481447890+486173159+492830692+501983445+509129321
1698+511072727+509494916+505153665+499338781+495912217+496870994+501113657
1688+507660394+517772880+531143510+540042088+537852562+530883379+526850211
1678+528152005+533830793+540600961+545622546+549965010+555331487+559270002
1668+558496890+555777063+556047821+559885395+563666522+564541126+564345274
1658+566875832+574806330+589055830+604983898+610002615+604812905+602674566
1648+606420943+609448963+605696004+598870345+594970552+595604552+600603889
1638+609584103+619359198+622176731+615539423+607619442+604730938+606837616
1628+610870600+614618742+618138415+620897037+621100538+619861515+621096493
1618+626144517+631023754+631018091+628141501+626873207+628292196+630964991
1608+633360078+635091783+636588951+638299622+640393686+642890781+645771930
1598+648931303+652133920+655055446+657462521+659473111+661460681+663590563
1588+665701028+667664622+669561584+671533710+673889008+677487669+683583056
1578+692378450+700646301+703336379+702029180+703137512+708603864+714467067
1568+716365574+715630927+715927021+719188475+727075949+741748814+760693136
1558+770341585+765439035+757365197+752196043+750160080+750751386+753491843
1548+758269808+765793892+776500148+789504337+803034231+812823520+811783438
1538+803002606+798076006+800520221+805525000+806934869+805386881+806111747
1528+811105053+818423798+826003262+833984065+841935744+846848591+847673552
1518+847022821+845978326+843850872+841724815+842330242+847798212+858680242
1508+871861235+876965889+867483653+854656929+848147260+848284569+852311265
1498+856686788+857806888+855172263+852845427+854792400+860840571+866306040
1488+866338106+861779013+856968762+854509985+854273242+855105410+856844838
1478+860353993+865826449+872097316+876967728+877603603+873521086+868723044
1468+867251396+869494537+872407311+872872487+872271399+874764522+882111582
1458+890603012+891778786+884028622+875437170+870646776+868975011+868049145
1448+866142696+863763054+862815345+863858001+865528884+867000311+869466001
1438+873679798+876855939+875592498+872053557+870518071+871718704+873559845
1428+874586762+875241097+875979422+876726866+878139236+880978097+883727306
1418+883301550+879760549+876051202+873647585+872294345+871663986+871762757
1408+872497110+873334795+873400545+872645746+872733265+875322586+879774449
1398+883439742+884407750+882902933+880022225+876929043+874867118+874469825
1388+874833508+874253748+872919336+873093492+875826153+879762903+883349428
1378+886627136+890232416+893682661+895715609+896252124+896544100+897097163
1368+897398112+897863877+899862332+902986182+904206451+901540128+897126288
1358+894454669+894550352+895679351+895602202+893780624+891322656+889379948
1348+888153281+887196820+886387304+886354429+887761136+890134232+891647139
1338+890693252+887773418+884876529+883195350+882441140+882096064+882271691
1328+883041934+883811001+883951399+883648391+883667366+884411280+885377596
1318+885736204+885472543+885352958+885654201+885726202+885176816+884758783
1308+885331850+886485855+887041786+886623753+885970668+885945662+886723407
1298+887647434+887790775+886852994+885207411+883124820+880775111+878702228
1288+877063043+874789527+870900362+866264119+862725251+860826230+859439454
1278+857575514+855663254+854582207+854212346+853812405+853429232+853913236
1268+855476301+857105116+857875653+858221538+859116515+860546095+861717676
1258+862317147+862624494+862859399+863206681+863896612+864855868+865996707
1248+867706643+870150049+872599780+874425550+876029580+877942575+879901757
1238+881574258+883309787+885563887+888314199+891358693+894451581+896873144
1228+897793861+897559030+897738114+899458125+902378842+905508135+908288674
1218+910669566+912792754+914941169+917418553+920232850+922987427+925160259
1208+926767084+928546667+930936238+933244099+934691550+935917482+938311613
1198+941998161+945523423+947601601+948412368+948970432+949777816+950600718
1188+951388759+952614397+954591450+957300356+960779873+964641459+967536582
1178+968293881+967420380+966773031+967931228+970902250+974235191+976587841
1168+977965057+979096924+980263357+981398460+982554156+983606520+984324252
1158+985113323+986624612+988441483+989402503+989259825+988843189+988934312
1148+990016683+992265928+994812225+996264530+996892315+998560845+1001930484
1138+1005480605+1007605191+1008271808+1008514509+1009463394+1011366240
1130+1013426988+1015125524+1016928495+1019155236+1020891795+1020667407
1121+1018149720+1015024178+1013967622+1016264967+1020585183+1024485675
1113+1026615556+1026846857+1025529067+1023827001+1023728082+1026204951
1104+1029791844+1032076392+1032366015+1031942907+1032119637+1033254225
1095+1035351893+1038562086+1042376088+1044693878+1042964747+1037308133
1087+1031478981+1029801038+1033961881+1042016670+1048950184+1049831113
1078+1044759996+1039088672+1037466844+1039967101+1044098453+1048424332
1070+1052944152+1057222962+1059885461+1059811400+1057387558+1054381969
1061+1052375056+1051723074+1052268341+1053593192+1054395207+1053654823
1053+1052458310+1053420948+1057811989+1064202736+1069620621+1071357033
1044+1069044391+1065450805+1063710936+1063854718+1063430580+1061290476
1035+1059123896+1059186630+1062154564+1067151180+1072036815+1073741823
1027+1070476839+1064365492+1059657617+1058334090+1059114335+1059760066
1018+1059128529+1057863912+1057966288+1060547224+1063933779+1065244289
1010+1063190601+1058379541+1052536856+1048356965+1048172586+1051507585
1001+1054715498+1054080799+1049360568+1043860606+1041234954+1042399475
993+1044888995+1045267902+1042769631+1039674169+1037944744+1037197667
984+1036093012+1034329241+1032890027+1032915694+1034365426+1035202301
975+1033024027+1028313872+1024005275+1021332480+1018604232+1014341307
967+1009636815+1006478766+1005061468+1003817224+1001619754+999027198+996766111
957+994148549+990422213+986208123+982336976+978757952+975170470+971496572
947+967837016+964701399+962654109+961234899+958989405+955495767+952554310
937+952009778+953377653+954775241+955258362+954690663+952481721+948670587
927+945048244+943435095+944105316+946294622+948541735+948954252+947145618
917+945059056+944487533+945167756+945975949+946426563+946548134+946397145
907+945615355+943467676+940184011+937685740+937676914+939500478+941041258
897+941322276+940871295+939944546+938032434+935233876+932883137+932247997
887+933039863+933743106+933436936+932762596+932839892+933837686+934935428
877+935182541+934158786+932377658+931072150+931078034+931892993+932109437
867+930764656+928149668+925385897+923545197+923237482+924257928+925394502
857+925530855+925263370+926193722+928463560+930467384+931116057+930985366
847+931179968+932098553+933088182+932877180+930704054+927417080+925386044
837+926491288+929897994+932414872+931900127+929626611+928364495+929527177
827+932801060+936892035+939923218+940254688+937807972+934460250+932661471
817+933115100+934193279+934227110+933432302+933107819+934116203+936239171
807+938303891+939137751+938893947+939051776+940828491+943768771+945810839
797+945225783+942632639+940240862+939373979+939779436+940917628+942547105
787+943982642+944088915+942713686+941360446+941563579+943001470+944120687
777+944132675+943356254+942497977+942074354+941717363+940628079+939543502
767+940477017+943249245+944614472+942554827+939062219+936793852+935830110
757+935168567+934882254+935583732+937577407+940889387+944644994+947113185
747+947891297+948498049+949275720+948154738+944564976+941470250+941638449
737+944743398+948774360+952041697+952723318+949461349+943935499+939875928
727+939319997+941169375+942656614+941549091+938100022+935399942+936123998
717+939677281+943424357+945237404+944783921+943790320+944322128+945592482
707+944222842+938751416+931507246+925659119+923098702+924222479+927322868
697+929173570+927622934+923398989+919145037+916640514+914766204+911037368
687+905329639+900937201+901602274+906956983+911715017+911089511+905634707
677+899017954+893581021+889205866+883777243+874860646+863419154+856911470
667+862577204+874482695+882836006+884924187+882339941+877794160+873385836
657+870263824+869331707+870848438+872930662+872417093+869036568+866299421
647+867249704+871010606+873994426+874198956+872084740+868056720+862879771
637+858234335+854921473+853079008+853698262+857227790+861612359+863750109
627+862312293+857941477+850965160+841264125+831388787+826746882+830451816
617+839142408+845079010+842782180+833514403+823769608+819845067+822982817
607+829192348+834100267+835869334+834710990+832885882+832225884
##END=
