##TITLE=<SNM>
##JCAMP-DX=4.24
##DATA TYPE=INFRARED SPECTRUM
##DATE=2/5/2025
##SAMPLING PROCEDURE=Instrument type and / or accessory
##ORIGIN=Admin
##XUNITS=1/CM
##YUNITS=ABSORBANCE
##RESOLUTION=4
##FIRSTX=4497.3318
##LASTX=599.83466
##DELTAX=-1.4281778
##MAXY=1.7522649
##MINY=0.19341482
##XFACTOR=1
##YFACTOR=1.6319238e-09
##NPOINTS=2730
##FIRSTY=0.21288638
##XYDATA=(X++(Y..Y))
4497+130451174+130543069+130854693+131154374+131244442+130726676+129466629
4487+128109738+127469314+127706173+128507870+129578886+130556592+130937183
4477+130553277+129804039+129197811+129073081+129714253+131023781+132023512
4467+131540407+129700338+128032252+127858105+129098027+130594860+131174708
4457+130546493+129431027+128665435+128311169+128022573+127835697+127926387
4447+128049190+127913019+127678260+127596007+127588657+127542308+127638878
4437+128004357+128329924+128313050+128242412+128561843+129007785+128906239
4427+128283219+127834538+127832921+127830538+127349679+126342370+125137968
4417+124241857+123981266+124324475+125176857+126429517+127506861+127604691
4407+126705183+125655744+125116766+125070727+125218193+125221289+124792669
4397+124052854+123558298+123713791+124384785+125086615+125308865+124846752
4387+124118853+123833371+124013216+123811831+122681718+121199175+120225679
4377+119908950+120059713+120684915+121525035+121905653+121594257+121093146
4367+120835194+120730032+120505016+119992152+119225547+118577024+118519517
4357+119048578+119661298+119995440+120111020+120133784+120093060+120133693
4347+120386668+120595486+120355750+119695521+119000010+118556835+118545394
4337+119097886+119961153+120487301+120369986+120055695+120101351+120494040
4327+120876037+121041291+120934530+120588154+120327325+120535751+121034324
4317+121313076+121385777+121593837+121706733+121165363+120081600+119194684
4307+118987555+119345118+119884205+120310150+120540143+120605968+120502943
4297+120186781+119664284+119134638+119086965+119896432+121129378+121775709
4287+121433843+120711834+120286546+120186333+120095498+119825328+119403785
4277+119023650+118938266+119288387+120057540+121165135+122397323+123294165
4267+123430135+122933635+122430998+122293001+122266886+122013947+121632535
4257+121470249+121764825+122520866+123389904+123832942+123780100+123738636
4247+123915815+123803165+123000839+121949016+121507430+122084804+123343080
4237+124563489+125206688+125200242+124821550+124433189+124271889+124323735
4227+124432531+124576254+124839347+125113880+125177040+125091948+125164165
4217+125458294+125752871+125951224+126102160+126110643+125874596+125559740
4207+125388588+125353570+125345772+125369988+125544080+125981831+126610211
4197+127154650+127467168+127665778+127798516+127735265+127508706+127333810
4187+127259099+127169734+127018378+126782998+126481820+126405521+126925360
4177+127930158+128857022+129350007+129554369+129761991+130035693+130215356
4167+130205522+130203997+130513667+131134148+131759314+132160916+132344568
4157+132354795+132145091+131708098+131267096+131189327+131575716+132086616
4147+132335081+132219144+131819561+131370396+131258130+131556523+131745782
4137+131367456+130677112+130229253+130167463+130239443+130246301+130271840
4127+130489734+130787087+130727899+130111235+129462374+129584465+130575457
4117+131635388+132002985+131776252+131592280+131794368+132204288+132539452
4107+132697748+132645701+132408011+132245241+132474886+132996013+133334053
4097+133243227+132940432+132725095+132699629+132851332+133148017+133570328
4087+134155911+134910116+135640536+135993067+135728961+135003965+134345444
4077+134236958+134686972+135285731+135670221+135783674+135708434+135508300
4067+135275258+135039905+134611047+133812858+132868845+132252463+132176813
4057+132440855+132708741+132780575+132650348+132401281+132093702+131838517
4047+131879159+132352476+132996871+133314476+133054296+132467499+132090579
4037+132232576+132677066+133019051+133232078+133623681+134222805+134572560
4027+134324689+133788788+133624493+134092998+134825462+135288872+135346470
4017+135329615+135474433+135432713+134719889+133559106+132762450+132771015
4007+133292881+133895932+134493905+135144839+135712662+135924036+135697742
3997+135295647+135129654+135482194+136351360+137417125+138145828+138126050
3987+137432858+136556854+135911079+135506528+135155540+134892868+135062504
3977+135932044+137257214+138379683+138870550+138863628+138580767+137950424
3967+137096188+136759216+137601098+139269622+140654207+141033656+140613902
3957+139999667+139583410+139518324+140031233+141438399+143497394+144996893
3947+144979909+144287375+144503077+145597341+145972791+144833977+143114913
3937+142129527+142667619+144861507+147768273+149436760+148672027+146645895
3927+145602719+146372393+147787229+148460625+148598933+149322842+150785305
3917+151617518+150412193+147550762+144794348+143369787+143309577+144601811
3907+148036579+154147071+161586896+167385892+169421821+167588930+162852531
3897+157221237+153568784+153760792+156850425+159145001+158139326+156479741
3887+157814517+161281810+163247997+163390532+163866022+163679548+160852688
3878+157787745+158086640+161710585+166412906+170823363+173675863+173351967
3868+171296515+170692278+171418122+170471672+166909434+163297103+162396345
3858+165736406+174271517+186776002+194899468+189953877+177907388+167615227
3848+162268054+162089597+165856479+171592653+177823382+183856753+188197997
3838+188422858+184609005+179914409+176377720+173732348+171637103+170699473
3828+171091432+172322661+175215430+181372106+188821665+191637933+188875465
3818+185587962+183045607+178555765+172521444+168559176+169063319+173876271
3808+180076813+184150426+186831317+191003563+195218451+195240220+192131776
3798+189883313+188522404+186381906+184173710+183732224+185480964+188835288
3788+193296075+198200649+202583420+206602192+211913663+219123312+226170740
3778+231233390+235911642+243156355+254478826+269569659+285951054+299777750
3768+309532311+316485269+321466726+325263303+329815528+335957613+342153353
3758+347480474+354223199+365752999+383652102+405676023+424720523+436082605
3748+444715418+456390804+469768946+478557024+482651126+488620818+499984652
3738+516000423+533154871+546410583+552803590+554306924+555400092+558926646
3728+564848490+570949595+574598395+574654058+571084516+564470575+557064169
3718+551880807+550431747+552426112+556297052+559042866+558054339+554066632
3708+549328499+545628346+544500589+546028285+548014213+548424051+547820854
3698+547798903+549469445+554011005+562569237+574544632+585787571+590250677
3688+587036624+581871853+579375171+580415050+583942955+588316431+593041561
3678+598672601+602778391+600593370+594392627+590387351+588528381+583996901
3668+575721331+567492109+561850405+558634452+556711382+555982178+557557245
3658+561298707+564703416+566757060+570700354+579467869+590469859+595549566
3648+590630748+581767649+574854977+570305273+566619583+563639285+562586914
3638+564037033+567059444+570844260+576212544+584367366+593903312+599189637
3628+596219273+590132303+587449238+589478557+594183818+598673514+601319397
3618+603377971+607196828+612148919+615122497+615235868+615053905+615946263
3608+616426702+616289298+617991397+622886146+629189996+634264882+637700344
3598+640778089+643351435+643194893+639745332+636786145+638743255+645203941
3588+650018117+648228871+642668726+638546025+637126769+636578249+635592170
3578+635132112+636520249+639048451+640907092+642545493+646693907+654003998
3568+660396822+660871344+655764463+649457179+645163253+643683367+644400920
3558+646493974+649550096+652591025+653463952+651069647+647572898+646304852
3548+648004978+650302421+650425580+647661286+643237553+639036033+636641947
3538+636418054+636979211+636436535+634549332+632618081+631556396+631292400
3528+631625135+632137277+631307448+627812597+623097840+620537350+621630883
3518+624506576+626381873+626685462+626941861+628151176+629534273+629856343
3508+629127832+628333870+627823554+626683343+624143088+621266810+620086715
3498+621159283+622901559+623629704+623488137+623573822+624107148+624412782
3488+624014596+622997325+621577412+619917462+618222668+616580907+614882022
3478+613236244+612130475+611738936+611609494+611399042+611178144+610639887
3468+609139731+607145146+606345961+607780630+610806072+613745756+614765948
3458+612936161+609349489+606164911+604242644+603253899+603388965+604812860
3448+606175466+605788895+603749276+601321406+599430112+598702222+599315280
3438+600114100+599347604+596798509+594006420+592434055+592472040+593554762
3428+594353363+593759407+592283174+591579974+592162754+592559990+591247276
3418+588593138+586166436+584846563+584734580+586267901+589568041+592754737
3408+593022058+589846099+585344058+581617133+579238899+577719312+576625011
3398+576216562+576616099+576773153+575679510+574281877+574293419+575507007
3388+576080582+575220584+574084939+573973650+574842377+575691308+575720417
3378+575068461+574606978+574824845+574970649+574005900+572439964+571871940
3368+572474150+572693039+571927018+571492125+572154637+572857398+572819997
3358+572851920+573689419+574738538+575089682+574574837+573450733+572051347
3348+570812849+570179703+570318823+570782095+570630411+569317842+567547845
3338+566635690+567135925+568565919+569996826+570575515+570100701+569181132
3328+568315619+567346670+566148129+564969056+563923151+562862343+561942299
3318+561878930+563272911+565672073+567657381+568156849+567316975+565849398
3308+564238829+563006577+562857412+563923041+565336051+566050866+565902797
3298+565548330+565578133+565996152+566415231+566461835+566022084+565380355
3288+565190795+565923433+567119343+567652632+567127452+566573271+567173764
3278+568663439+569727497+569929001+570323900+571767335+573462786+573886978
3268+572727957+571042257+569697657+568661393+567548210+566104191+564269655
3258+562209766+560303278+558905352+558170997+558182649+558982382+560190345
3248+560849387+560332424+559325234+558998489+559409933+559808047+560071751
3238+560491815+560680280+560144361+559299667+558693731+558052842+557043022
3228+556079076+555554881+555084414+554387350+554165466+555058701+556386171
3218+556789471+555688085+553612892+551433751+549669963+548479129+547919725
3208+547829401+547573951+546529652+544815172+542970263+541268639+539990732
3198+539583670+539881342+540091539+539972945+539905156+539710628+538863304
3188+537946767+538315259+539982697+541146722+540311268+537865099+535151683
3178+533045225+531724183+530847749+529772405+528306544+527145039+526926114
3168+527167392+526772712+525404006+523872036+523091734+522871274+522044587
3158+519981593+517531187+515975586+515548035+515458477+514921682+513831326
3148+512674350+512002561+511902777+511818735+511031457+509479655+507933551
3138+507221805+507323671+507261178+506023958+503765487+501827625+501305366
3128+501853411+502148270+501369831+499930158+498803570+498437197+498382374
3118+497964026+497147273+496473183+496240451+496119118+495644779+494864732
3108+494230819+493866892+493359827+492401178+491119508+489684365+488244254
3098+487194622+486720356+486286924+485380212+484375469+483937909+484031374
3088+484131122+484082253+484188319+484558674+484859487+484779974+484345153
3078+483677054+482795653+481710118+480452299+479123258+478064678+477667295
3068+477793779+477821354+477423095+476811023+476152054+475328946+474434615
3058+473941393+474007867+474054654+473474870+472414720+471340142+470188280
3048+468604264+466776704+465328120+464466661+463874239+463394202+463305887
3038+463819161+464595628+464910429+464260336+462840569+461295670+459977294
3028+458780251+457684271+456917227+456494277+456183456+455987724+456054745
3018+456138568+455743560+454825306+453871587+453199798+452609531+451842414
3008+450911559+449877305+448782091+447824830+447091388+446259806+445152649
2998+444291227+444232715+444612968+444441305+443260734+441599798+440235548
2988+439338259+438527057+437580461+436756987+436399671+436509134+436736314
2978+436678241+436213653+435562866+434994842+434565720+434139483+433556996
2968+432780675+431853655+430683494+429107038+427311328+425847915+425067795
2958+424839227+424844596+424775346+424292716+423326068+422365446+421894832
2948+421610601+420801152+419481608+418456703+418143034+418003950+417405246
2938+416474428+415748400+415381734+415088190+414637153+414074717+413552422
2928+413175858+412939839+412629055+411932904+410878159+409966005+409591779
2918+409514639+409224930+408607891+407865062+407052144+406089331+405042621
2908+404174588+403818733+404086492+404520363+404373061+403502106+402561572
2898+402053192+401649345+400735912+399290066+397913252+397126521+396884549
2888+396793312+396591844+396275143+395879769+395374932+394767499+394124930
2878+393429838+392597781+391752430+391239777+391150585+391076221+390609077
2868+389822858+388975863+388069589+387064335+386230123+385858855+385786866
2858+385587590+385154560+384735847+384475868+384240177+383791186+382955988
2848+381795944+380717714+380170436+380149691+380191803+379857424+379067809
2838+378026907+376999920+376173671+375579642+375084265+374559303+374097747
2828+373907748+373962169+373933388+373492286+372536412+371218548+369908499
2818+368989040+368534862+368265533+367881372+367392094+367052566+366983243
2808+366931926+366499225+365582468+364500075+363659216+363136591+362633763
2798+361865405+360858507+359786522+358736051+357796613+357124350+356709800
2788+356286485+355646911+354924792+354417142+354157090+353803062+353062388
2778+352117947+351402511+351043552+350784742+350345320+349604171+348572181
2768+347464623+346650645+346264950+346018047+345591956+345002858+344393671
2758+343756727+343031028+342231879+341390874+340541067+339750245+339032948
2748+338300638+337513725+336815822+336377532+336082088+335554569+334677807
2738+333839249+333384267+333132981+332744401+332196867+331629902+331079812
2728+330559051+330077918+329526841+328786789+327942642+327215775+326694868
2718+326228819+325641840+324985902+324393809+323766580+322930030+322042238
2708+321458070+321199625+320912326+320377503+319806192+319523349+319494568
2698+319325205+318739248+317894079+317130103+316569859+316102131+315632942
2688+315176499+314747012+314321140+313928980+313639891+313388934+312934062
2678+312113656+311111141+310342892+310038354+310013079+309921951+309645354
2668+309301187+308968963+308583450+308082960+307525966+307043811+306705378
2658+306410409+305963298+305300257+304562579+303910531+303394244+303025259
2648+302803173+302624132+302311321+301794029+301185208+300665743+300313522
2638+300025511+299621919+299057712+298483242+298066611+297812366+297578831
2628+297230043+296771409+296332973+295991381+295676068+295317237+294976558
2618+294720578+294462188+294048588+293470411+292911865+292579879+292493645
2608+292469302+292315060+291991255+291588631+291233233+291002656+290868101
2598+290728140+290512849+290203854+289788100+289289399+288815042+288471112
2588+288248844+288075153+287962221+288015436+288243018+288412509+288224263
2578+287642653+286934559+286357258+285939184+285574180+285184303+284773059
2568+284411159+284159672+283958278+283651402+283186504+282738517+282595361
2558+282911477+283544514+284139748+284420089+284381301+284198534+284009047
2548+283802576+283465713+282931602+282311678+281835987+281620367+281537165
2538+281365519+281039468+280678628+280394415+280177772+280002967+279906525
2528+279905247+279945077+279977784+280013505+280082517+280179142+280229618
2518+280129414+279870585+279594116+279439893+279382148+279268375+279003064
2508+278671534+278468332+278470450+278540357+278520799+278405474+278205760
2498+277850398+277382158+277016314+276833419+276664257+276387642+276068822
2488+275759938+275432298+275079858+274692610+274249116+273863274+273742635
2478+273921238+274196594+274335075+274238323+273971386+273680161+273409991
2468+273054429+272573406+272133362+271892376+271778987+271633000+271440700
2458+271272835+271105883+270879835+270624020+270364479+270049951+269716851
2448+269551214+269645136+269853159+269976246+269933312+269726603+269400150
2438+269048404+268772062+268636448+268671073+268802578+268806596+268506477
2428+268038256+267724422+267669873+267680063+267586068+267463584+267495908
2418+267735014+268020158+268127466+268031243+267958176+268114810+268447344
2408+268727466+268785595+268618752+268351195+268141728+268108565+268285378
2398+268608343+268957733+269236157+269395676+269461072+269627696+270240717
2388+271538329+273516149+276163182+279680788+284327610+290189245+297229824
2378+305433479+314727325+324810842+335238489+345694552+355957877+365538018
2368+373723046+380154110+384919198+387958958+388931267+387743173+384608633
2358+379594633+372746938+364536051+355874347+348181811+343197980+342106821
2348+345141175+351761873+360498597+368945065+374972939+377871679+378090897
2338+376520029+373931416+370790631+367431613+364150612+361014866+357787774
2328+354282624+350586525+346712663+342423485+337704856+333004891+328681526
2318+324570769+320322351+315893359+311552097+307528413+303814363+300312956
2308+297015811+293923749+290942263+288005137+285207532+282708732+280554062
2298+278632490+276786887+274993442+273409973+272154546+271092168+269991257
2288+268831378+267791170+266995199+266424271+266007238+265661373+265285795
2278+264828421+264357698+264007322+263837886+263776945+263691534+263496093
2268+263192175+262843954+262544620+262384553+262392114+262477635+262485962
2258+262352047+262150452+261959631+261778544+261616395+261536462+261556770
2248+261603941+261603740+261573534+261604580+261736468+261866695+261863901
2238+261765724+261761414+261969383+262318737+262661114+262947664+263269314
2228+263732404+264333756+264986899+265635696+266291542+266972901+267667426
2218+268382477+269177773+270095680+271112914+272191929+273302026+274404763
2208+275526420+276780678+278216772+279760392+281351147+282982371+284606491
2198+286158694+287650651+289141056+290644975+292113137+293488180+294766525
2188+295967330+297052609+297955979+298680326+299322476+300025968+300879830
2178+301804493+302590073+303071626+303217558+303101393+302841140+302503219
2168+302058062+301439599+300576277+299404253+297956052+296362887+294729563
2158+293083894+291403253+289637876+287781463+285904084+284099115+282472147
2148+281062716+279759753+278677067+278559076+280189478+283451798+287563925
2138+292022502+296725572+301503114+306146467+310706198+315412263+320410338
2128+325654550+331001687+336427570+342086879+348105366+354454068+361020418
2118+367617083+374030141+380283296+386754026+393983362+402647367+413688657
2108+428072272+446419928+469071189+495973715+525908039+556368019+584958217
2098+610422276+632186438+650087878+664416744+675318694+682738065+686845572
2088+687584967+684480852+677093184+664848021+647457335+625899608+601556658
2078+575193703+547746783+520521602+494373300+469887029+447709706+428051819
2068+410755877+395847591+383242922+372450398+363121324+355221989+348576966
2058+342914553+338128536+334101346+330710297+328073326+326390767+325758205
2048+326317500+328258175+331748094+337136102+345007825+356047143+371121028
2038+391141015+416377748+446091284+478831101+512680413+545477903+575465187
2028+601638691+623644241+641925751+657436977+670752590+681893700+690569064
2018+696118326+698033287+696798333+693556887+688930371+682425200+673142950
2008+661062803+646986100+631243969+613475112+593657687+572497708+550837165
1998+529291564+508484043+489063563+471132758+454060307+437369972+421449602
1988+406978658+394235196+383165381+373544552+364994539+357209743+350101557
1978+343619359+337684001+332303189+327531344+323418066+320063724+317421530
1968+314997239+312171766+308946391+305924218+303488768+301481218+299699551
1958+298200472+296978027+295797803+294507679+293213956+292105229+291308838
1948+290949915+291239351+292233904+293253074+292999249+291016353+288455516
1938+286655952+285856128+285593319+285487691+285375872+285212335+285044598
1928+285033239+285536450+286788919+288309584+289353791+290039843+290829824
1918+291105545+289888048+287784859+286480910+286728763+287848229+288677199
1908+288659321+288117814+287610329+287292203+287057645+286992796+287409975
1898+288479951+289828970+290707285+291025538+291708065+293162859+294184257
1888+293566762+291976408+290815999+290462318+290503115+290625891+290754803
1878+290908972+291160769+291631273+292786185+295525954+300093263+304546618
1868+305567778+302378452+297857675+294853453+293894036+294012502+294267021
1858+294362093+294415620+294554137+294792439+295255109+296247909+298066520
1848+301039696+305255625+309239972+309929548+306592153+302481615+300443621
1838+300415169+300847980+301114899+302405772+305980903+310714452+313477797
1828+313187832+311857878+310628986+308723703+306180088+304416957+304140232
1818+304659368+305151385+305816983+307458141+310019653+312057044+312263004
1808+311171297+310504767+311532959+314439807+318254025+321136292+321804064
1798+321087971+321308212+324146248+328927078+332084299+330381616+325679058
1788+322318214+322012324+323629358+325683879+327759401+329554636+330453277
1778+330920165+332874609+337950700+345414376+351240235+351566468+347587161
1768+342760092+339096207+337943468+339947586+343444591+345573584+346061547
1758+346572411+347319476+348202666+350986574+357178040+364785913+369206176
1748+368732166+366110352+364326329+364487218+366357219+368676649+369898638
1738+370780988+374484319+381960230+387925392+386418697+380330850+374609852
1728+370653044+368872345+369453043+371683719+375393113+382157570+393116936
1718+405144159+410677423+406850823+399296166+393537110+391661119+394001003
1708+399881831+407159452+413202593+418357431+425674023+435453476+442658341
1698+444059262+441673102+436376003+429768199+426131525+427503336+432513501
1688+439928745+450928068+464858529+473166642+469499215+461496918+457190793
1678+458507014+463961057+470074032+474477714+478937898+485219688+490240993
1668+490188106+488219381+489942444+496087305+502494921+505487272+506764887
1658+510675529+520354870+536661190+554024556+558753302+552773275+550584272
1648+554472451+556764306+551164970+542356438+537080414+537290647+542986334
1638+553431075+564563017+567956112+561516574+554076749+552096153+555639946
1628+561671327+567645693+573283818+578092588+580376919+581205762+584560469
1618+591837396+598609195+599533877+596948222+596061050+598152168+601487262
1608+604117330+605597764+606677053+607940752+609182902+610077707+611061960
1598+612998106+616020699+619208601+621609626+623234440+624623892+625923275
1588+626970715+627910701+629109497+630634088+632442692+635280838+640699270
1578+649136570+657118413+659201824+657169912+657845098+663288001+669659641
1568+672890860+674509538+678047560+685077073+697229464+717511256+744205230
1558+761528857+762346268+761158795+765666387+774388283+783948993+791904905
1548+798143012+805222782+815266487+827352916+838897983+845191461+838812517
1538+823425984+811805458+807948214+807436803+804603770+799947671+798089979
1528+800367771+804314864+808296801+813605661+820033109+823611819+822552472
1518+819401314+815379785+810592052+807208308+807998618+814086245+824975339
1508+837141098+840723607+830260239+817034183+810334484+810582191+814986274
1498+819095461+818266874+812923974+809003543+810615866+816280033+820341957
1488+818681277+813392433+808854598+807128831+807628044+808778628+810502057
1478+814629360+822185112+831137184+836706168+834590689+826666627+820023320
1468+818971498+822397610+825592013+825082063+823552942+826139291+834342398
1458+843578116+844752806+836752919+828400721+824575107+825037430+827703840
1448+829551524+828559382+825854329+824008398+824208697+826390869+830379673
1438+835155353+837787430+836521064+833964884+832714005+831919312+829525446
1428+825775802+822942331+822355023+823764563+826761151+830830162+833554791
1418+831506808+825209240+818550374+813828166+811213620+810121183+809938489
1408+810425794+811369067+811957837+811842566+812453616+815192854+819060251
1398+821735865+822303524+820962357+817752467+813936131+811971424+812610450
1388+813648540+812386265+809582890+808876659+812330456+818715390+825418742
1378+831027684+835819070+840196271+843631368+845584388+846577041+847442591
1368+848529185+850197754+852808866+855524218+856407884+854842020+852505643
1358+851073823+850613180+850255024+849385092+848090895+846875663+846282876
1348+846589021+847475244+848289367+849093337+850806247+853603413+855961194
1338+856383194+855343643+854215923+853475213+853073740+853528027+855560158
1328+858937255+862430279+865050450+866938091+868899365+871402585+874209029
1318+876774778+878896247+880995948+883677624+886977947+890277686+893023061
1308+895236352+897226261+899112734+900890730+902644109+904206978+904898891
1298+904285212+902986778+902017062+901523475+900785394+899133334+896390661
1288+892870390+889426308+887046686+885884487+884975401+883210554+880422080
1278+877423374+875242297+874419554+874760470+875573352+876343062+877246158
1268+878757820+880887836+883173591+885198417+886741125+887722091+888454692
1258+889462467+890703119+891402703+890849362+889120089+886996429+885287463
1248+884255510+883655126+883187251+882710538+882124617+881356514+880490526
1238+879795399+879599118+880033828+880910481+882107378+883842568+886158418
1228+888381790+889516230+889304317+888596771+888512693+889451729+891078150
1218+892958632+894756059+896242593+897683909+899583603+901746564+903446179
1208+904626640+906018795+908132083+910947438+914335565+918108145+921852237
1198+925026625+927274687+928768598+930191871+932121077+934422318+936441082
1188+937802483+938766064+939733808+940970881+943013896+946398590+950407409
1178+953267031+954383356+955072859+956577362+958714025+960527011+961462468
1168+962148830+963904035+967022541+970033373+971577761+972314380+973595136
1158+975351583+976721531+977709217+978855565+979954723+980629543+981830823
1148+984689130+988154469+990071623+990332624+990729350+992045753+993498830
1138+994918378+997337520+1000818564+1003383071+1003630851+1003544873+1006273009
1128+1011511961+1015463437+1015497185+1012774528+1010042594+1009091724
1120+1010445602+1013867842+1018700281+1023639589+1026622444+1026367505
1111+1024145960+1022521146+1022452919+1023115029+1024257578+1027052260
1103+1032100337+1037664574+1040654661+1039237888+1034466445+1029507999
1094+1027291859+1028938587+1033739103+1039872240+1045091323+1047717922
1085+1047766133+1046605177+1045472270+1044994242+1045256558+1045273944
1077+1044005314+1042786868+1044569466+1049968979+1055863320+1058392545
1068+1056968834+1054608496+1054398336+1056244413+1057646576+1057350511
1060+1056570209+1057235533+1060536002+1066074964+1071487990+1073741823
1051+1071989321+1068748678+1067405393+1068777167+1070195254+1068533697
1043+1064147730+1060532496+1060556236+1064025009+1068370142+1071212087
1034+1072113722+1071459282+1068868624+1064927229+1062803860+1065015398
1025+1069428539+1071227792+1068871984+1065105832+1062689832+1062699328
1017+1065170772+1068475039+1069951346+1068783668+1066632395+1065074713
1008+1064201421+1063802577+1063712435+1062808608+1060060896+1056681973
1000+1055034660+1055443512+1055487121+1052901065+1048213189+1043770317
991+1041467250+1041820366+1043925034+1045918668+1046058994+1043968132
983+1040815732+1038050123+1036078110+1034306616+1032030357+1028903670
974+1025154757+1021849248+1020314941+1020779382+1021787668+1021274358
965+1018442274+1014321253+1010191248+1006313259+1002858073+1000641568+999798079
955+999116977+997600201+995300713+992247440+988260463+984043968+980849199
945+978939497+977405410+975609809+973986967+972760194+971300250+969771422
935+969575945+971199005+973211559+974041681+973463065+971845921+969532262
925+967711313+968150553+970640040+972003633+969508375+964580316+961197814
915+961446763+964013096+966067069+965746094+963405042+960909273+959648021
905+959517630+959941018+960828701+962021361+962717876+962024210+960062132
895+958154986+957340790+957223109+956820101+955884352+954933336+954348804
885+953803279+952766723+951216638+949711843+948931321+949014158+949379619
875+949410884+948838988+947133018+943950230+940846261+940447928+943181688
865+946738630+948935704+949306351+948262199+946823877+946580773+948007333
855+949382468+948712396+946163521+943313102+941062264+939625842+939469957
845+940812366+942632730+943346047+942549820+941787269+943547514+948542485
835+953777493+955309608+953141973+950623267+949440249+948034945+944823668
825+941235827+940314104+942520309+944692693+944615700+944284791+946290186
815+949994540+953332775+955951630+958494223+960839001+962731756+964077890
805+963536675+959309661+952713325+948062558+947566706+949020733+949423010
795+948738839+949021463+951401596+954558379+956209125+956065585+955677407
785+955618603+955370823+955488869+956845449+958675529+959778120+960039049
776+959447284+957877914+956448943+957019596+959953509+963259822+964378703
766+962908094+961039226+960786698+961688845+961972272+961130317+960497427
756+961693739+964450948+966178833+964242541+959437934+955773027+955793042
746+958083253+960252204+962400262+965623300+968676574+968868472+965920826
736+962416771+960584939+960559006+961297233+961729533+961364729+961117753
726+962991735+967241174+970896439+970758889+966848978+961704550+957667754
716+955617799+954980964+955021725+956533752+960955440+967393334+972122336
706+971717502+965911476+957444226+950073505+946548558+947145144+949282392
696+949741208+948164971+945928013+942246889+936107397+930725051+929977547
686+931965777+931911721+929916625+929322158+929139464+925172721+917913106
676+912413079+911013474+911014350+908895073+904438979+901151878+902276530
666+905349965+906427208+904657247+901121271+897551253+895099459+893506056
656+891965541+890241819+889078306+889787824+892936207+896589426+897548112
646+894991202+890598076+886313938+883664403+883346789+884476335+884841796
636+883412824+882253840+883327504+884903521+884950711+885857971+890483682
626+895324229+893071857+882609074+870123436+861031842+857593458+859874538
616+865048112+869612463+872981305+876105728+878090962+877127674+872440310
606+866594034+864251009+865348487+863223219+853359651
##END=
