##TITLE=<SNM>
##JCAMP-DX=4.24
##DATA TYPE=INFRARED SPECTRUM
##DATE=2/5/2025
##SAMPLING PROCEDURE=Instrument type and / or accessory
##ORIGIN=Admin
##XUNITS=1/CM
##YUNITS=ABSORBANCE
##RESOLUTION=4
##FIRSTX=4497.3318
##LASTX=599.83466
##DELTAX=-1.4281778
##MAXY=1.7476237
##MINY=0.19049372
##XFACTOR=1
##YFACTOR=1.6276014e-09
##NPOINTS=2730
##FIRSTY=0.20951883
##XYDATA=(X++(Y..Y))
4497+128728592+128409603+128635803+128713852+128245110+127612278+127342655
4487+127489817+127952718+128906562+130320010+131492848+131756695+131235649
4477+130432886+129607628+128940445+128764307+129179536+129680101+129569917
4467+128787058+128021886+127938893+128568457+129472001+130180181+130452798
4457+130350177+130057446+129637254+129119504+128793970+129057432+129854976
4447+130540808+130523550+129874697+129067777+128309435+127489250+126694387
4437+126275048+126246813+126044948+125175974+123934306+123185879+123455182
4427+124440154+125407108+125895790+126035152+126172536+126261031+125922285
4417+125160263+124551665+124596563+125255487+126126402+126747039+126788989
4407+126221773+125321131+124514458+124160469+124363652+124980352+125713325
4397+126131255+125870686+125017267+124059605+123440048+123339203+123672291
4387+124095659+124240514+123937217+123120199+121846488+120487523+119464712
4377+118862083+118567118+118407853+118052710+117440532+117242137+118111157
4367+119672647+120917510+121272955+120744786+119504364+117998108+117039540
4357+117094591+117716308+118230140+118633522+119232305+119875180+120205485
4347+120246958+120177882+119912616+119315115+118536283+117956030+117923474
4337+118453391+119116738+119486245+119651324+119880087+119921414+119292629
4327+118228601+117616561+117866894+118474522+118820042+118843480+118762703
4317+118625007+118374317+118032065+117650454+117280855+117057814+117146858
4307+117558315+118196402+119070613+120148466+121092971+121554379+121546524
4297+121162560+120310313+119136916+118261771+118183493+118800853+119687909
4287+120469560+120858211+120663405+119919647+118930318+118103440+117688000
4277+117694821+118043353+118641011+119336254+119972180+120500615+120922390
4267+121162212+121138647+120904949+120596718+120319056+120216810+120449702
4257+120850154+120916732+120491194+120097892+120288395+121025927+121930744
4247+122749410+123404059+123874064+124097636+123941145+123446466+123013934
4237+122987832+123240014+123493122+123695646+123782008+123583438+123286413
4227+123455283+124270543+125097879+125132422+124376396+123697294+123809730
4217+124463033+124902798+124817755+124461129+124143367+123994035+123997477
4207+124064467+124254146+124800634+125669535+126339437+126300600+125609605
4197+124838702+124559676+124850503+125290076+125495951+125489918+125423844
4187+125318668+125254801+125416062+125756053+125975496+125969325+126032982
4177+126520034+127428715+128358993+128833328+128718777+128365933+128271011
4167+128645947+129387736+130284918+131038499+131272069+130868687+130226168
4157+129864965+129822329+129691737+129230924+128674438+128387576+128447305
4147+128727585+129164869+129649330+129836867+129476112+128854358+128532541
4137+128692319+129069736+129419816+129702495+129925445+130080672+130148504
4127+130081167+129916024+129816533+129809081+129678883+129325782+128975904
4117+128890576+129147327+129742833+130543427+131106321+130957584+130161248
4107+129376191+129270008+129986785+131111906+131967806+132045278+131426601
4097+130753659+130603403+130987879+131555251+132011312+132193988+132072616
4087+131874175+131946081+132365906+132887776+133280666+133550957+133853283
4077+134269437+134644190+134679859+134283087+133698101+133209959+132893397
4067+132708414+132624213+132607926+132675016+132907038+133241536+133374242
4057+133071238+132438050+131756100+131240538+131038737+131212220+131582158
4047+131905148+132302386+133055812+133888925+134045764+133256294+132059259
4037+131053806+130397262+130101308+130241046+130703919+131167314+131490944
4027+131812551+132199078+132573420+133011006+133643481+134225711+134287583
4017+133782009+133128697+132613941+132190829+131864159+131862099+132286594
4007+132862516+133278963+133599737+134038357+134533439+134857097+134908165
3997+134673561+134211484+133793957+133705242+133844906+133883175+133816122
3987+134024634+134732740+135643875+136243244+136350004+136186802+136024909
3977+135991016+136104120+136319068+136576039+136804601+136880058+136770424
3967+136754539+137224874+138234052+139410333+140295036+140648183+140456609
3957+139795798+138860604+138187251+138598543+140497643+143033731+144485586
3947+144205004+143539973+143833931+144497891+144103234+142567297+140970468
3937+140169444+140753927+143088049+146339505+148359940+147872961+146275802
3927+145912465+147249934+148597428+148622944+148293133+149232603+151155562
3917+151908859+149962536+146245013+142965259+141449463+141717429+143706984
3907+148078680+155111416+163026896+168591572+170030985+167647002+162225167
3897+155630466+151229106+151444988+155294595+158498635+158125960+156908709
3887+158471645+161773079+163453605+163737383+164719123+164749335+161571644
3878+158092763+158323567+162042849+166688425+170956493+173753013+173339487
3868+171138976+170663469+171882789+171318621+167567187+163417094+162137111
3858+165414375+173861320+185664465+192485247+186664699+174608446+164842847
3848+160274395+160984882+165580361+171816010+178049993+183725741+187657150
3838+187686044+183979599+179573341+176262276+173593784+171239575+169981363
3828+170160166+171432531+174745959+181655675+189780957+192643560+189439648
3818+185700921+182526636+176952823+169934067+165817977+167040922+172931014
3808+179915694+184270352+187289877+192312248+197303932+196957917+192368590
3798+188391404+185501739+182183606+179335066+178795947+180717386+184211887
3788+188683165+193428077+197365657+200670808+205170284+211516987+217575170
3778+221592419+225304669+231684551+242245964+256728588+272767098+286699708
3768+297105408+305027114+310947455+315702089+321732312+330359780+339804889
3758+347994259+356420091+369054390+388771586+413846788+435751366+447975911
3748+456055051+467248417+480792642+489426153+492257847+496508575+506288584
3738+520642612+535480077+545786039+549264536+548414889+547334491+547691255
3728+549063816+551151588+553901690+556163083+555586410+550953064+544433803
3718+539821991+539509759+543811353+550597070+554547614+551399403+544235499
3708+538828202+537615822+540588325+545805265+549179282+548502487+546754522
3698+547656465+551917263+558974855+568869745+580779678+590641719+593079150
3688+588284964+582149089+578810961+579281177+583265229+589235466+595724918
3678+602593912+607808435+606837425+601115040+596187224+591541610+582885614
3668+571584472+562902621+558771315+557831213+558328785+560079313+563909520
3658+569047834+572759425+574529362+578237584+587278798+598953696+603208122
3648+594231581+580142946+569987423+565801625+565439735+566080751+566550198
3638+567560393+570089962+574306742+580479055+589810345+602075906+611511896
3628+611166668+604451850+598916049+597531440+600792810+608193726+616637942
3618+621682873+622478431+621450548+620610678+621057237+623390517+626813643
3608+629116088+629264624+628888378+630109401+633302546+637316444+641319723
3598+645572025+650035778+652839274+652106191+649857432+650919739+657290209
3588+664802966+667139615+663892710+659268703+655636031+653031388+651646962
3578+652230483+654472357+656531052+657194701+658165162+662677620+671431688
3568+679506799+679292932+670384469+660342875+654940962+653964422+653958709
3558+652871573+651478505+651180189+652765811+656573753+661908503+666436269
3548+667391056+664230577+659444338+655763180+653848040+653286931+653867303
3538+654956636+655314131+654506342+653212883+651992299+651071790+651115662
3528+652684513+654678388+654834687+652615225+650317248+650130700+651197987
3518+650932117+648598104+645839213+644055762+643296093+643240722+643558374
3508+643733130+643568481+643146825+642235325+640942012+640180145+640122284
3498+639174675+635925060+631582304+629211670+630784548+635261485+639211589
3488+639890252+637975625+636289001+636407214+637530825+637611464+635138218
3478+630804397+627339376+626892525+628836523+630770120+631040018+629678956
3468+628051731+628118968+630623196+633807552+635296934+634743295+633270466
3458+631814116+631182254+631872270+633164704+633682380+632745685+630480446
3448+627529733+625205901+624465421+624299161+622675526+619433235+616795413
3438+616428689+617524028+618382135+618482184+618128130+617565117+617499858
3428+618899299+621234117+622291223+620726328+617798540+615514552+614172386
3418+612830953+611200323+609813736+608856239+608048230+607450610+607353527
3408+607731750+608541151+609908695+611349737+611594440+610087699+607869849
3398+606336594+605949875+606254050+606478318+606051388+605095613+604475873
3388+605014387+606566428+607818469+607252453+604772651+602077114+600845252
3378+601055384+601515639+601459352+601070252+601006897+601808864+603346733
3368+604745661+605047786+604248675+603443559+603408220+603597148+603209953
3358+602523746+602140102+601736867+600791675+599799058+599675792+600621826
3348+602167202+603570012+603900152+602663858+600445678+598306563+596774847
3338+595963285+596257170+597834919+599814220+600961780+600951160+600204015
3328+599165256+598310701+597950386+597815913+597645075+597843269+598703573
3318+599542820+599568638+599097397+599241099+600559314+602132156+602185916
3308+600041783+597115460+595544486+596251714+598505489+600851148+602290359
3298+602757755+602554471+601931765+601540431+602220925+603929412+605603512
3288+606349888+606107565+604942793+602740836+600031310+598171724+598259285
3278+600210094+602951041+605075288+605481856+604179681+602579154+602418533
3268+604106073+606195053+606715037+605110701+602494522+600158788+598750595
3258+598706137+600348156+603127372+605436373+605909665+604814436+603657903
3248+603482561+603897845+603787029+602605740+600638452+598298177+596019169
3238+594696779+595016006+596179863+596518425+595623954+594621340+594331007
3228+594450282+594291053+593489233+592144980+590644062+589305632+588363260
3218+588226553+589097954+590423933+591410800+591733322+591322945+590248920
3208+588935722+587651711+586189904+584659506+583604085+582943695+582011504
3198+580614370+579111364+577927036+577565402+578226231+579155932+579387708
3188+578915258+578157603+577021542+575460015+574072257+573316250+572922829
3178+572575587+572350769+572229920+571914575+571279381+570467417+569531783
3168+568386346+567075638+565860768+564982666+564432726+564047801+563756809
3158+563508664+563031161+562172102+561284662+560790386+560757500+560947857
3148+560677300+559077505+556257346+553604180+552172769+551489455+550552099
3138+549176462+547804817+546803741+546406035+546737310+547481745+547959578
3128+547676570+546537505+544783864+543211169+542939513+544086891+545089138
3118+544342543+542108689+539827008+538348832+537706350+537732424+538048465
3108+538050076+537539541+536982386+536720765+536320239+535150669+533358760
3098+531779033+530994608+530748330+530268520+529152527+527915501+527447116
3088+527944761+528765624+529216431+529052002+528301598+527146566+526000544
3078+525239849+524841191+524444950+523736038+522730275+521681335+520775144
3068+519997604+519294478+518764460+518623505+518894611+519198933+519052668
3058+518356683+517478142+516885025+516739090+516756595+516472415+515686122
3048+514605688+513545322+512617525+511788276+511056951+510453398+509967619
3038+509571341+509184219+508606483+507684875+506522959+505368844+504383295
3028+503662188+503293816+503143413+502788444+501919936+500646948+499302769
3018+498128255+497138861+496192571+495302017+494837368+495076504+495571915
3008+495468387+494597207+493730823+493479053+493457593+492957238+491962790
2998+491004195+490394526+490054352+489718902+489034380+487837454+486450647
2988+485333446+484504269+483672713+482833356+482247124+481848540+481227811
2978+480324294+479530237+478939868+478223778+477363620+476711873+476349104
2968+476125129+476004243+475748590+474874407+473390518+471908935+470874278
2958+470272849+469952743+469740304+469396504+468731428+467733098+466623184
2948+465800819+465546119+465706190+465757607+465231214+464130382+462928695
2938+462055208+461472638+460892559+460196977+459443423+458675990+457935437
2928+457264465+456587632+455733481+454661506+453568108+452718790+452275015
2918+452292154+452608707+452651078+451837282+450382800+449148960+448530758
2908+448039669+447068952+445588541+444029469+442938854+442744140+443425403
2898+444373781+444831838+444477639+443492017+442254551+441090072+440115949
2888+439263628+438480302+437743228+436862965+435667431+434477573+433924776
2878+434092355+434225949+433591194+432374090+431393009+431117179+431340018
2868+431618596+431591752+430959415+429600001+427800584+426163142+425184918
2858+424908941+424968963+424986687+424805486+424309086+423349648+422025684
2848+420744749+419873971+419480696+419371712+419247456+418871797+418174310
2838+417258744+416414554+416006411+416086245+416179372+415724281+414693323
2828+413550486+412643710+411858735+410922296+409853947+408899709+408158973
2818+407529822+406945311+406454039+406031943+405472738+404654695+403849212
2808+403452129+403405181+403252361+402781486+402152408+401403578+400383240
2798+399195579+398241268+397745821+397512251+397108466+396192351+394833377
2788+393577198+392940356+392807494+392596154+391992271+391182504+390375740
2778+389513385+388536112+387621462+387005202+386718275+386581055+386367041
2768+385930627+385259215+384446079+383558894+382572980+381511992+380557132
2758+379852943+379282972+378611999+377786228+376935665+376161787+375482831
2748+374943621+374587846+374286894+373789798+373020095+372141260+371273595
2738+370360556+369340254+368234515+367085453+366019668+365316102+365181519
2728+365440907+365602333+365327674+364754334+364187328+363576744+362628366
2718+361407599+360405059+359882511+359496781+358752126+357646167+356688231
2708+356311326+356400315+356454368+356122947+355477609+354789754+354176862
2698+353534380+352784562+352070633+351592580+351317702+350996864+350447473
2688+349708275+348930369+348212447+347573298+347016693+346530657+346025212
2678+345381852+344606545+343849439+343215527+342616185+341896506+341080001
2668+340361567+339846491+339464898+339170061+338988018+338822966+338485575
2658+337978043+337495449+337114845+336729847+336280835+335790588+335193626
2648+334412753+333622725+333152473+333026496+332871662+332429938+331884136
2638+331474821+331109745+330604776+330025612+329546791+329183326+328835571
2628+328443395+328005699+327536582+327029892+326460286+325860981+325358466
2618+325046490+324882537+324747478+324533757+324188053+323759256+323365799
2608+323048733+322729213+322340040+321892969+321407702+320887205+320375937
2598+319959372+319689034+319526986+319352156+319041902+318589997+318117511
2588+317722515+317364909+316960722+316540860+316222000+316013625+315754128
2578+315302406+314710169+314105846+313516392+312969345+312650888+312694760
2568+312887204+312872702+312612765+312376778+312342611+312433944+312463790
2558+312278780+311875801+311454474+311215851+311105658+310902777+310503386
2548+309997026+309520841+309128848+308781753+308419606+308009010+307542236
2538+307066326+306685759+306463432+306374168+306369078+306371568+306262052
2528+306024601+305826242+305818662+305952640+306051444+305986826+305772739
2518+305530966+305366042+305309975+305369851+305507638+305601407+305555465
2508+305391714+305151735+304814766+304369361+303853314+303292919+302694254
2498+302129629+301752450+301639529+301676992+301703304+301667983+301546145
2488+301295839+301018159+300896192+300874787+300673133+300163568+299521928
2478+299025694+298838358+298902903+298973325+298827463+298458212+298018593
2468+297641981+297368092+297200843+297169202+297274122+297400776+297374372
2458+297110059+296678845+296269659+296077562+296134984+296252282+296195940
2448+295896983+295450755+295014468+294745138+294707913+294772769+294689950
2438+294355581+293978456+293886317+294124043+294342379+294197542+293773561
2428+293448896+293415277+293507178+293496192+293389093+293365583+293490534
2418+293595801+293482294+293171069+292893078+292873174+293146863+293526990
2408+293735017+293633869+293347748+293120202+293060290+293064831+292993805
2398+292863506+292791930+292803814+292805865+292735149+292657274+292726342
2388+293023632+293390393+293532630+293354010+293024109+292673662+292224064
2378+291562558+290760976+290137483+290075849+290612367+291302237+291771683
2368+292192570+292871105+293680012+294258901+294526656+294745669+295265781
2358+296297491+297831551+299841137+302592960+306421171+311031903+315452113
2348+318746516+320668138+321834998+322951833+323588309+322661940+320097434
2338+316882243+313744542+310668548+307541211+304640852+302387424+300823920
2328+299484831+297797859+295586637+293248120+291476279+290666603+290525117
2318+290379255+289852369+289092223+288439561+288081662+287994577+288070603
2308+288242905+288453166+288526554+288257719+287696499+287155550+286845003
2298+286687385+286546101+286435523+286424171+286480823+286496204+286388062
2288+286176520+285990503+285948388+286006287+286009070+285879980+285651336
2278+285394658+285248485+285340843+285539916+285527392+285230449+284898625
2268+284725425+284692850+284738187+284802989+284803758+284733775+284690086
2258+284727787+284803593+284885038+285005009+285170244+285281938+285244713
2248+285143291+285178813+285412749+285708447+285926709+286050177+286124024
2238+286188587+286301288+286561262+287024300+287601413+288156406+288694060
2228+289302502+289943812+290487910+290946700+291508432+292313109+293297009
2218+294318978+295365336+296515808+297764644+299054423+300448132+302074148
2208+303905225+305740970+307424353+309001296+310645330+312449545+314336559
2198+316183071+317973809+319777694+321590515+323281277+324772564+326218037
2188+327846397+329644386+331354557+332778315+333930050+334887803+335648424
2178+336216236+336692970+337101625+337255141+337025966+336560072+336020935
2168+335380504+334605674+333761080+332834382+331676970+330162282+328352062
2158+326469075+324601872+322554860+320183347+317642937+315154273+312801694
2148+310503130+308028529+305563064+304307014+305597232+309349783+314213329
2138+319141219+323954886+328669457+333237873+337755349+342307139+346817621
2128+351272951+355831845+360643169+365738271+371104845+376744979+382610040
2118+388532047+394341042+400050207+405830637+411889424+418566413+426502620
2108+436576221+449750133+466947318+488621037+514128807+541714792+569131001
2098+594075611+614752905+630970950+644013282+654938252+663926768+670796311
2088+674803105+674730229+669957760+660547954+646704790+628873437+607565087
2078+583387287+557709192+532160222+507552380+484300619+463087631+444338588
2068+427926048+413638853+401269472+390520210+381282194+373574539+367198539
2058+361895210+357523779+353856354+350701148+348158248+346291814+344913650
2048+343969960+343688856+344364113+346358648+350090637+355943430+364556176
2038+376982211+394113331+416112356+442430113+471907983+502833305+533277570
2028+561448871+586014086+606557859+623390664+636893763+647668073+656656663
2018+664256725+669864669+672644581+672358716+669465791+664556359+657701538
2008+648549764+636865345+622694495+606411521+588758402+570416293+551569875
1998+532274224+513124216+495031204+478237950+462103328+446189714+431005667
1988+417275041+405159957+394478115+385062889+376723409+369245516+362527328
1978+356559288+351316310+346707098+342598241+338989153+336112781+334060861
1968+332308685+330034914+327075998+324127628+321848731+320231906+318949763
1958+317851971+316890665+315905886+314762757+313559715+312567025+311991927
1948+311896748+312391976+313569383+314834827+314843616+313014572+310478667
1938+308656655+307856629+307625000+307547583+307438635+307256189+307025970
1928+306915410+307432812+308939187+310758453+311813984+312277974+312983188
1918+313419822+312347262+310190678+308706276+308745974+309673881+310336980
1908+310110039+309271085+308538185+308280739+308308754+308362843+308578835
1898+309305618+310431829+311282904+311686140+312482760+314037035+315104761
1888+314481579+312885226+311732722+311354352+311315094+311341205+311408625
1878+311552399+311799116+312203707+313279636+316108401+321033653+325958320
1868+327291440+324187028+319634432+316512772+315319105+315137061+315126221
1858+315021815+314931836+315021815+315328444+315886660+316890482+318654230
1848+321655188+326120735+330534866+331530412+328096629+323582742+321120372
1838+320875633+321359838+321767688+323100112+326712533+331687920+334792332
1828+334602121+333073335+331551066+329400269+326691256+324817095+324418767
1818+324800908+325262884+326097993+328013975+330772757+332851337+333020747
1808+331898015+331141935+331914275+334469992+338074686+340974715+341654001
1798+340770955+340872835+343976259+349417723+353171428+351440895+346148516
1788+342192442+341664035+343381018+345537199+347504707+349022581+349618077
1778+349906286+351893203+357167968+364864087+370815867+371056212+366784574
1768+361631355+357878345+356993981+359363663+362821689+364352123+364192858
1758+364479711+365339576+366343948+369115437+375252887+382962775+387705361
1748+387445278+384578208+382216656+381886077+383545821+385745214+386758521
1738+387578433+391714975+399995385+406343443+404314484+397505439+391454123
1728+387505044+385863940+386559486+388777373+392450328+399472545+411191058
1718+424279753+430593460+426974410+419328352+413407297+411370172+413695103
1708+419941317+427993174+434844736+440572249+448530246+459352640+467575115
1698+469243208+466419754+460416814+453314617+449700182+451541347+457205724
1688+465272266+476921712+491499093+500318457+497042108+489507305+485868591
1678+488169388+494982132+502524149+507845276+512557979+518685834+523223635
1668+522361133+519597408+520845603+526618672+532151873+533656490+533578999
1658+536879481+546704607+563578135+581095682+584561545+576959212+574165311
1648+578474852+581576774+576327461+567333854+561716535+561482526+566616446
1638+576606734+587598793+590867635+583886470+575727350+573165956+576128352
1628+581221768+585875585+590182965+593858155+595113601+594989639+597452558
1618+603635930+608907179+608330433+604691608+603043730+604411530+607026830
1608+609045900+610126884+611010442+612157747+613257663+613957676+614573095
1598+615681691+617292435+618845465+619959188+620794370+621611168+622304627
1588+622575330+622513074+622782679+623980484+626123994+629363867+634652768
1578+642151169+648292610+648213802+644841359+645263821+650819104+656504026
1568+657694213+656540208+657066161+660967046+670300754+688228055+711485565
1558+722125110+715117065+707093370+705433479+709109731+715989381+724128653
1548+732535845+742436155+755704879+772262695+789771929+801925905+798843722
1538+784395943+773376198+770424533+771034934+769476484+766141469+765609730
1528+769579536+776103522+783291083+791231355+798692184+802027858+801128076
1518+799566257+797933833+794866078+791592879+791210774+795865104+805895565
1508+818039800+822267859+812629536+800011131+793726868+794393739+799383298
1498+804334552+804689704+800798633+798331685+801308326+808359949+813710666
1488+812583980+806645566+800771020+797814814+797628559+798706979+800736450
1478+805103523+812753096+822483997+830356593+830740676+823045985+814648681
1468+811887885+814910888+819019562+819667757+818743512+821859679+831278494
1458+842327976+844630421+836275011+826528071+820328915+817513554+817112991
1448+817638432+817164408+815384839+813916697+814198533+816797683+821956359
1438+828586619+832526543+830395778+825609832+823111830+823067445+822412366
1428+819940731+817856914+817917558+819525080+821974596+825526629+828621849
1418+827314620+821234556+814689257+810623649+808818592+807812536+807010679
1408+807211363+808812367+810240958+809941177+809268374+810584098+813897214
1398+817515824+820337777+821420152+819594587+815994362+813852097+814595946
1388+816204787+815609766+813004171+811980463+814924658+820639975+826546455
1378+831952177+837686830+843004588+845470511+844937453+844410108+845737113
1368+847887800+849781992+852063271+854985639+856793406+855937569+853410636
1358+851115881+849621226+848447371+847333722+846414677+845644607+844883913
1348+844241505+843762427+843433862+843863867+845925711+849233115+851869911
1338+852294863+850873816+849033090+847846271+847647052+848273787+849532236
1328+851432801+853838152+856195822+858143921+860127323+862769246+865934632
1318+869101410+872150781+874852983+876321051+876145709+875398711+875537139
1308+876877107+878640709+880037952+881050234+882290300+884066499+885744261
1298+886449145+886222606+885833031+885523435+884646725+882643181+879766150
1288+876624055+873588454+870890793+868742450+866995620+865024011+862395198
1278+859569949+857591527+857088133+857766723+858883815+859939822+860836528
1268+861714557+862778548+863955625+864787365+865042102+865154675+865625550
1258+866306264+866654018+866368373+865510999+864313194+863124105+862371760
1248+862237800+862412995+862499641+862627888+863270443+864494542+865933387
1238+867381461+868787347+869915425+870730392+871842797+873970339+877159310
1228+880746938+883781587+885540647+886041185+885912645+885679661+885724193
1218+886659717+888808792+891594930+894249451+896764739+899542234+902670926
1208+905910872+908749085+910656828+912141816+914677245+918472661+921529722
1198+922335168+922242443+923595449+926778340+930301222+932818706+934171199
1188+934919955+935710972+937207825+939896917+943398998+946431596+948224275
1178+949619028+951896644+955129780+958418433+961080278+962972347+964240684
1168+965293249+966615786+968156657+969171063+969171210+968810931+969307441
1158+971118577+973765407+976656135+979329845+981411465+983035687+984562642
1148+985733934+986153832+986197924+986378979+986586840+986880908+988022683
1138+990527643+994162512+998349409+1002254543+1005024347+1006572910+1007486754
1128+1008040026+1008239978+1008461975+1008947206+1009139979+1008435754
1120+1007412779+1007893761+1011494280+1017678641+1023447499+1026083783
1111+1025881561+1024580631+1022667029+1019869319+1017053738+1015941187
1103+1016786770+1017857572+1018019658+1018604497+1021320249+1025425261
1094+1029171972+1032700859+1036743396+1040091228+1041298701+1041785689
1085+1044075976+1047693927+1049360336+1047200420+1043180296+1040630878
1077+1040734296+1042324826+1043933374+1044929176+1044928151+1043727636
1068+1042194015+1041760567+1043076951+1045383279+1047225176+1048181648
1060+1049159652+1050378184+1050676720+1049951402+1050494786+1054412811
1051+1061203179+1068423113+1073317896+1073741823+1069642231+1064462974
1043+1062416437+1063488851+1063854331+1061551006+1058298242+1055879634
1034+1054679339+1055084369+1057005808+1058441211+1057185545+1053825407
1025+1051145984+1050797936+1051932240+1053145499+1054464080+1056637692
1017+1059566066+1062365241+1064251450+1064545006+1062752034+1059427345
1008+1056510251+1055998433+1057919799+1059771877+1058711548+1054856952
1000+1051062268+1049499277+1049335580+1047588385+1042968699+1038223037
991+1037076721+1039818694+1042933250+1042848582+1039320573+1034695980
983+1031021486+1028850658+1027921872+1027701193+1027392110+1026350092
974+1024438321+1021655406+1017726102+1012805025+1007974474+1004179644
965+1001525123+999635105+998150483+996940520+995646328+993745544+991386116
955+989006913+986441967+983393695+980130164+976925593+973789577+971252683
945+969902608+968821185+966166517+961711700+957577391+956083102+957420360
935+959738772+961437994+962521614+963270077+962928694+960933647+958516577
925+957784008+959500149+962281745+964093906+964444005+964195200+963438974
915+961510064+958874293+956821604+955375361+953507243+951591444+951394568
905+953338639+955696309+956646994+955824703+953849870+951660804+950330943
895+950407408+951372669+952184267+951958900+950145494+946820879+943355565
885+941618111+941880905+942422824+941823702+940758320+940523578+941135151
875+942055002+943172093+944195362+944332691+943063548+940556977+937465931
865+934944052+934233894+935427085+937124549+937803432+937401258+937395033
855+938872989+940852436+941571968+940896967+939931121+938902213+937303114
845+935561118+934877914+935862291+938047036+940136712+940740156+939725383
835+938483780+938218349+938816153+939787493+941087178+942300070+942472849
825+941573946+940716718+940541156+940652265+940789521+941250215+942244040
815+943807544+946055277+948658968+950543419+951140198+951079333+951106213
805+951420862+952330239+953815593+954821942+954821796+955090742+956597702
795+957769433+956413205+952941006+949825718+949044808+951160632+955105756
785+957837402+956548703+952622988+950863928+953930071+959461623+962971395
776+962437458+959202858+955362397+952132558+950092759+949383774+949738413
766+950784020+952245644+953562687+953736271+952195912+949717686+948124958
756+948987167+952260878+955822139+957358617+957091795+957172801+958835767
746+961364239+962872737+961875836+959082008+956830393+956023922+955217817
736+953639885+952856705+954232195+956910227+959019972+959590163+959269508
726+959329640+959616457+958587916+955989132+953601359+952909878+954108782
716+957282225+962237360+967032315+969098773+968162004+965082018+959590237
706+952151821+945712503+943068382+943560204+943986401+942264255+939253703
696+937209949+937008753+937458607+937238660+936278600+934711434+931675247
686+926712715+921543712+918358330+916882058+915120581+912850728+911892059
676+913112423+915287134+916895095+916463478+911958051+904377178+900214452
666+901193921+902359572+901840211+901190845+900570849+897795331+892980821
656+889675542+889709380+890963801+890477179+887860744+884797750+882127482
646+879734509+878043930+877066805+876018561+874131985+871246458+868643060
636+868086931+869256244+870620090+872469531+875541241+877795859+876341413
626+871140183+864100572+857735741+855834298+860290067+866065297+864505968
616+854894599+846507988+846985162+854584857+860636943+858062915+848094636
606+837371156+830385744+827182711+827579245+833472980
##END=
