##TITLE=<SNM>
##JCAMP-DX=4.24
##DATA TYPE=INFRARED SPECTRUM
##DATE=2/5/2025
##SAMPLING PROCEDURE=Instrument type and / or accessory
##ORIGIN=Admin
##XUNITS=1/CM
##YUNITS=ABSORBANCE
##RESOLUTION=4
##FIRSTX=4497.3318
##LASTX=599.83466
##DELTAX=-1.4281778
##MAXY=1.848309
##MINY=0.36032042
##XFACTOR=1
##YFACTOR=1.7213719e-09
##NPOINTS=2730
##FIRSTY=0.38012406
##XYDATA=(X++(Y..Y))
4497+220826223+221162824+222502981+223822328+223950653+222706272+221346274
4487+221167776+221921070+222422233+222396419+222686362+223802244+225081147
4477+225356409+224303165+222997461+222832346+223899769+224884124+224675865
4467+223532350+222378863+221697073+221502525+221759106+222389667+223143705
4457+223624491+223483700+222715223+221703634+220930517+220699266+220980171
4447+221362600+221483965+221575206+222066102+222724901+222849884+222288177
4437+221635871+221407944+221481299+221331143+220580463+219410113+218504325
4427+218424927+218924549+219121867+218525447+217533873+216843148+216832864
4417+217542893+218711563+219815154+220385586+220265537+219680752+219264510
4407+219557032+220210984+220299159+219610062+218844493+218435159+218122692
4397+217790626+217815488+218322780+218787118+218747557+218446032+218415855
4387+218750535+219084072+219049567+218505312+217641734+217019760+217071682
4377+217475770+217444502+216646298+215451849+214397168+213775246+213543181
4367+213349759+212872730+212300809+212299683+213297889+214841059+215845791
4357+215673509+214762786+213929350+213481910+213400486+213721229+214245765
4347+214480392+214296111+214157901+214448986+214988324+215327489+215212737
4337+214723988+214130338+213547180+212774755+211714275+210823514+210802306
4327+211856762+213469427+214751775+214918379+213852826+212425688+211716196
4317+211837250+212071687+211950928+211578401+211211363+211136311+211618308
4307+212517898+213274620+213486099+213323633+213388557+214104247+215104582
4297+215526520+215142290+214657748+214595040+214576515+214105459+213431632
4287+213115027+213150744+213045481+212568920+211990263+211571303+211186934
4277+210621661+210027405+209771067+209871674+209955279+209840839+209804689
4267+210152943+210893840+211833406+212634484+212878409+212402731+211499990
4257+210690065+210467886+211063942+212138273+212994199+213329849+213446279
4247+213689044+214101442+214636868+215306072+216029241+216601076+216911570
4237+216998707+216754782+215913174+214637595+213657724+213300053+212947835
4227+212132456+211516247+211891249+212863831+213526145+213870780+214467598
4217+215145960+215164537+214484184+213849415+213662399+213537814+213043853
4207+212424476+212352938+213028756+213761690+213706530+212859364+211984186
4197+211744399+212198730+212965355+213643493+214110705+214400111+214309512
4187+213563281+212495062+211969106+212268225+212553043+211972465+210968858
4177+210813733+212046877+213969395+215582095+216492038+216817161+216641156
4167+215943732+215009273+214451912+214509513+214618395+214122616+213202840
4157+212642206+212773128+213120602+213162171+213016221+213070273+213309471
4147+213495120+213639909+213785599+213747043+213552668+213622700+214130373
4137+214684375+214864034+214661314+214305582+213958332+213622769+213220620
4127+212783100+212480103+212287806+211882524+211127845+210422923+210285076
4117+210750938+211417458+211965315+212429151+212908793+213235128+213174896
4107+212845722+212608982+212664661+213046883+213770000+214574125+214870318
4097+214436607+213790689+213430992+213216707+212862948+212445235+212106348
4087+211823313+211657124+211765366+212079599+212297086+212200704+211849455
4077+211521060+211459252+211597013+211668066+211583612+211360896+210812434
4067+209916982+209321653+209712999+210842195+211819486+212206591+212298108
4057+212479792+212699374+212596240+212093034+211637197+211581708+211708682
4047+211808562+212142636+212756248+213026800+212574183+211969470+211903715
4037+212181175+212105724+211571372+211232675+211655843+212656784+213507966
4027+213646246+213149879+212575170+212370528+212552437+212929794+213321140
4017+213465618+213131544+212463881+211855048+211499194+211426011+211759860
4007+212501191+213285683+213786222+214126391+214568672+214965765+214841457
3997+214066487+213180644+212788311+212859676+212997056+213088763+213259436
3987+213529954+213926355+214483249+214853386+214538322+213808383+213724155
3977+214900028+216734336+218068900+218239331+217352881+215928479+214506293
3967+213467817+213105938+213672198+215048678+216520120+217369658+217612648
3957+217684030+217721166+217696685+217949197+218911790+220265468+220953301
3947+220519451+219902533+220168411+221057232+221454724+220866701+219751649
3937+218884816+219048096+220630636+222901062+224187600+223624698+222382032
3927+222262796+223563514+224896486+225175158+225093561+225821682+227064019
3917+227100186+224798268+221195425+218398836+217535829+218399875+220630273
3907+224442830+229780794+235257870+238929602+240101354+238974062+235539208
3897+230745430+227128805+226718951+228978210+230960251+230699636+230237913
3887+232115902+235066231+235948057+235031137+234584234+233909853+231449849
3878+229194087+229965041+233562292+238101706+242411842+245106647+244435504
3868+241728978+240219395+240295088+239634818+237330233+235239570+235294210
3858+238378560+245059382+254337103+259876125+255312681+245558173+237821095
3848+234425819+234890503+237666004+241235260+245056993+249093149+252222184
3838+252517096+250128526+247343399+245303549+243536572+241937982+241179650
3828+241256018+241738119+243688997+248628188+254570155+256414990+253842069
3818+251136894+249010825+245310873+240650007+237824350+238443986+242249082
3808+246913964+249839172+252045158+255983962+260085753+260475990+257994570
3798+256076778+254781497+252778195+250809209+250474788+252168531+255437681
3788+259712672+264262387+268489542+272848571+278553660+285869856+293540833
3778+300613140+307874644+316470159+326797436+338808830+351577881+363068531
3768+371888354+377742648+380318114+380562713+380974835+382581908+383859790
3758+383831223+384533547+388871835+397768148+408740824+416401153+419121495
3748+422173902+429572214+439256032+445692601+449212670+455268766+466641929
3738+482493512+499193784+511961796+518960002+523051162+528179482+536104460
3728+546289042+556685191+565350824+571967795+576242024+576961662+574962931
3718+573458282+574656246+578910565+585213996+589915063+588481605+581499154
3708+573255961+566866103+563563833+562389311+560845084+558481912+557774914
3698+560009310+564031356+568763552+574369333+580892017+586712758+588880707
3688+586443505+582297843+579858943+580573283+583775483+587413316+590142211
3678+592085920+592157943+588486938+583941066+582444935+582449506+579840141
3668+574543573+569347974+565295768+562419747+561199276+561857417+563459746
3658+564214529+563110610+561941801+564246420+571760800+581851441+586980211
3648+582109407+571607406+561789099+555107169+551289834+549295881+548637429
3638+549682553+552701061+557125706+562230688+567922204+573351599+575240356
3628+571751485+566609384+563840289+564712836+568877957+574246410+577554324
3618+577897748+577587462+578008309+578657240+579961229+583434830+588259374
3608+590764444+589249131+586462618+585966978+588747050+593036549+596514063
3598+598427440+599083261+598441498+597284012+598580834+604637449+612831680
3588+616400192+612727317+606774581+602779751+600541995+599366227+599695107
3578+600915128+601382721+600881540+600695320+601886325+604962866+609704861
3568+613769705+613816936+609993436+605605737+602797133+601587500+601504051
3558+602295191+603359394+603632734+602313890+599813736+597998905+598535682
3548+600774822+602172614+601243246+598986377+596553260+594026583+591844298
3538+590785082+590426700+589354394+587512209+586592190+587281113+587948638
3528+587128619+585557003+584320847+583005257+581070827+579189514+577947298
3518+576739015+575013901+573527223+573550769+575308709+577458202+577933863
3508+575611134+571367169+567070156+564259474+563383915+563370757+562845685
3498+562066906+562367496+563603999+564093961+563332218+562258874+561051180
3488+559398192+558351683+559287215+561448897+562567948+561634147+559484896
3478+557135401+554965963+553048466+551429066+550227985+549445294+548511354
3468+546636205+543938786+541448605+539887065+539375705+540138763+542147778
3458+544148621+544567806+543360077+541649541+539959607+538384390+537753119
3448+538498587+538866422+536603493+532344811+528905317+527553266+527151844
3438+526748518+526887092+527903926+528774603+528476437+527311021+526062503
3428+524864538+523579143+522654484+522739006+523276960+522679692+520537124
3418+518216577+516577128+515040969+513524097+513152038+514259593+515457384
3408+515551533+515078885+515108213+515629407+515775392+514921024+513123991
3398+510940875+509232555+508617974+508656790+508214301+507035935+506131498
3388+506340952+507460661+508733487+509319051+508519878+506511936+504621759
3378+504052227+504465699+504559570+503980135+503615278+503982143+504514487
3368+504695478+504737445+504824461+504792986+504777577+505132981+505495899
3358+504964351+503475561+502056543+501372017+500977659+500413978+500045970
3348+500206255+500489117+500526859+500554387+500626791+500264670+499387067
3338+498709709+498837722+499557498+500183575+500097736+498910610+496662744
3328+494162071+492702471+492939245+494230804+495339952+495563326+494891127
3318+493455523+491515310+489824926+489262354+489925792+491042835+491878470
3308+492343085+492576708+492419401+491669120+490578913+489707266+489220525
3298+488716886+488004902+487599775+488080698+489171148+489725307+488925890
3288+487474947+486863101+487363381+487804173+487693542+488215083+490155503
3278+492078091+491943533+490017033+488590085+488951895+490131091+490725243
3268+490644460+490476835+490227214+489490818+488321282+487304343+486903164
3258+486913690+486551534+485325073+483801137+482996492+483095558+483368032
3248+483202034+482535202+481501885+480422654+479921543+480420404+481668126
3238+482984512+483607611+482921838+481115526+479440896+478937431+479027148
3228+478104912+475574669+472645358+470851337+470355074+470141326+469555623
3218+468912441+468547688+468119742+467186669+465955810+465146802+465281048
3208+466145804+466821708+466413326+464957466+463375635+462491385+462393150
3198+462606967+462490207+461625175+460241579+459032431+458279864+457594022
3188+456625560+455368835+453802794+452026918+450511674+449490823+448555152
3178+447395208+446426123+446227611+446747593+447269203+446979070+445582386
3168+443469146+441432846+440189175+439815939+439646893+439058559+438216275
3158+437630122+437352316+437044108+436465018+435570553+434323351+432632516
3148+430601376+428807286+427922793+427891526+427904476+427316453+426208309
3138+425065574+424284545+423940602+423830906+423731840+423562137+423292503
3128+422816288+421991976+420808589+419483754+418305215+417338866+416476846
3118+415786883+415477290+415469534+415384803+415025556+414567832+414182823
3108+413736386+413062006+412350367+411921140+411641118+411058947+410234877
3098+409793738+409876010+409748897+408853290+407558303+406539148+406086099
3088+406185615+406653277+407081118+407046735+406415429+405364557+404263581
3078+403424345+402729292+401782853+400649051+399956907+399993299+400203411
3068+399895238+398971514+397692005+396263153+394971213+394185820+393942190
3058+393874461+393632735+393093016+392276010+391324896+390421740+389651548
3048+389098048+388910339+389049294+389145278+388786239+387902231+386916560
3038+386450837+386649072+386884911+386363925+384900724+383007015+381431832
3028+380594500+380259076+379870465+379254776+378704531+378394106+378095109
3018+377549226+376898322+376547800+376560577+376390666+375464345+373883103
3008+372321182+371389979+371204763+371348393+371249916+370747489+370120858
2998+369553334+368989999+368506721+368239302+368002736+367543834+366970804
2988+366447186+365873776+365274915+364940183+364865425+364632979+364046549
2978+363348345+362712746+361997714+361086663+360201685+359747389+359834301
2968+360014080+359667299+358667985+357476704+356606927+356171398+355875344
2958+355326206+354412281+353417158+352699736+352317705+352070162+351814794
2948+351536295+351111119+350316481+349204737+348190603+347600018+347352059
2938+347202751+347041046+346816876+346449734+345988928+345635498+345387678
2928+344861809+343739711+342267680+341028476+340316941+340005617+339869986
2918+339762264+339559008+339190965+338702943+338213882+337887218+337810105
2908+337803007+337594141+337227553+336972116+336828590+336522355+335950849
2898+335298733+334776535+334453056+334222653+333882347+333384179+332917001
2888+332590995+332208583+331521529+330587763+329738243+329230138+329000323
2878+328787164+328454752+328101391+327847061+327612573+327207099+326651971
2868+326265958+326271429+326450377+326387427+325940610+325329907+324870209
2858+324667437+324484507+323981111+323136646+322267769+321675591+321487882
2848+321669359+321932137+321842005+321222542+320313187+319481118+318924779
2838+318619064+318420240+318214975+317975189+317692465+317355517+316982800
2828+316594225+316192006+315817800+315549863+315404190+315275450+314963121
2818+314292964+313343721+312516915+312182426+312225985+312116116+311502609
2808+310630512+310022094+309831442+309747162+309495360+309111840+308702592
2798+308297811+307948986+307645349+307203137+306494442+305668294+304994848
2788+304585151+304292282+303872646+303305953+302840611+302584100+302311418
2778+301865398+301388975+300979555+300512827+299957319+299470577+299064585
2768+298508903+297676522+296769696+296123224+295890847+295924469+295884372
2758+295494480+294737966+293796340+292871750+292126524+291651175+291371534
2748+291107855+290776101+290398761+289960756+289441380+288935543+288585281
2738+288411665+288257578+287889016+287206516+286390427+285774236+285543123
2728+285563016+285501069+285132386+284534305+283947442+283491726+283093888
2718+282645859+282141614+281651878+281209943+280763195+280241291+279643850
2708+279056087+278578937+278228762+277949224+277764372+277773531+277901717
2698+277866969+277526888+277064870+276734380+276567100+276381850+275988305
2688+275374642+274736601+274314646+274185698+274190822+274052785+273601328
2678+272931050+272340032+272073653+272082621+272065273+271795985+271339974
2668+270909155+270648921+270598055+270687183+270733253+270551517+270105739
2658+269538180+269065688+268768803+268481110+268035211+267564658+267337458
2648+267355844+267352156+267146563+266823881+266550316+266354332+266159126
2638+265945084+265766569+265649722+265548077+265359918+265002454+264553421
2628+264219451+264066420+263955201+263813683+263710081+263595070+263289217
2618+262810076+262431334+262341445+262453997+262582963+262630643+262573094
2608+262400759+262136474+261856850+261642583+261498434+261345715+261135170
2598+260953434+260954923+261177518+261443932+261452364+261035395+260387953
2588+259931337+259867850+260016396+260160493+260324622+260556150+260684596
2578+260532258+260202824+259949412+259880003+259947663+260078741+260167280
2568+260104814+259939595+259862638+259968162+260168094+260347129+260456340
2558+260474986+260411655+260321557+260247596+260184472+260123720+260046019
2548+259854605+259447383+258895475+258404233+258068116+257826858+257649260
2538+257547718+257441052+257223651+256933518+256675725+256457424+256233375
2528+256026795+255906503+255895752+255942705+255951310+255842653+255601412
2518+255260239+254874624+254534560+254355403+254404711+254633435+254901494
2508+255085377+255143843+255066592+254843149+254550644+254372491+254415047
2498+254581928+254709803+254732518+254659872+254500834+254256165+253933067
2488+253570288+253251553+253036698+252892999+252751672+252588824+252413373
2478+252251409+252162194+252181845+252232105+252152430+251856098+251432100
2468+251073597+250912620+250934123+251015321+251001211+250790112+250434968
2458+250140472+250079460+250207768+250311958+250238984+250023487+249784635
2448+249586314+249433733+249304975+249135151+248858331+248492211+248115633
2438+247791479+247567361+247487028+247528320+247565162+247442291+247111126
2428+246708977+246471389+246513840+246714309+246851619+246852693+246847897
2418+246955169+247088255+247087684+246983649+246958147+247066995+247187425
2408+247246878+247322969+247477766+247645461+247752161+247849236+248047627
2398+248359488+248700089+249115777+249983615+251905198+255435050+261022271
2388+269163109+280430229+295315047+314078351+336649849+362555820+390975414
2378+420938645+451521410+481887033+511113937+538030579+561481965+580901817
2368+596358591+607987954+615805798+619752913+619441830+614532591+605375958
2358+592643957+576564187+556454961+531704018+505162344+483520838+472441859
2348+473902879+486718640+506161103+524416475+535764880+540259020+540888283
2338+540412761+540366846+540948706+541450925+541110064+539875569+538144396
2328+535809790+532196680+526762611+519436078+510675812+501236767+491391279
2318+480904825+470115322+460011834+450859875+441679454+431440924+420082442
2308+408135522+396071046+384277555+373187912+363096578+353943200+345397131
2298+337149437+329092671+321268594+313759409+306671243+300139072+294242846
2288+288930487+284109319+279815007+276189466+273249819+270759465+268417415
2278+266167627+264216369+262704258+261493032+260368614+259306004+258375129
2268+257520762+256619544+255671720+254794153+254066465+253455883+252869037
2258+252264169+251713300+251316102+251059989+250814022+250451658+249950911
2248+249397947+248911708+248557118+248315357+248101973+247799063+247336577
2238+246793984+246365882+246174382+246143322+246090361+245927895+245723704
2228+245551664+245375520+245159694+244987152+244936165+244934364+244865700
2218+244742864+244681922+244771153+244995151+245240824+245408034+245523893
2208+245675072+245852670+245963872+245967836+245921160+245912763+245987314
2198+246115898+246249504+246394916+246588443+246814396+247004563+247097050
2188+247076725+247004737+247005481+247151084+247359621+247474926+247444975
2178+247362356+247335902+247378787+247413240+247345113+247156296+246943517
2168+246818309+246777935+246746979+246696563+246608301+246391315+245997598
2158+245563835+245284834+245190114+245150744+245047679+244875863+244749806
2148+244809640+245074947+245459246+245957050+246679492+247687739+248950991
2138+250459518+252242268+254313281+256699773+259467345+262662326+266249414
2128+270099056+274074270+278199797+282674044+287630618+292956134+298356443
2118+303488988+308040711+311797693+314673888+316648899+317675464+317663483
2108+316582902+314549372+311754341+308371738+304577083+300545445+296382401
2098+292131753+287832039+283510320+279193449+274986343+271086320+267658997
2088+264712840+262148144+259921434+258074435+256602889+255433474+254531738
2078+253887724+253416496+253006573+252640452+252374436+252222929+252126010
2068+252037592+251975282+251921196+251774329+251507949+251248235+251115478
2058+251121208+251224048+251351057+251449915+251611049+251962972+252408958
2048+252676446+252650927+252511348+252506033+252654129+252742288+252653316
2038+252557401+252661990+252940523+253223939+253426780+253608602+253869286
2028+254196521+254461948+254603172+254714426+254948759+255431674+256163984
2018+256877008+257176525+256986288+256653184+256540216+256725258+257073616
2008+257384646+257466346+257257516+256940582+256828254+257051178+257393926
1998+257559249+257621108+258012108+258894991+259754674+259942175+259477248
1988+258897899+258549178+258425303+258442339+258522447+258563081+258534878
1978+258540141+258700201+258998973+259272746+259463432+259843507+260695763
1968+261747033+262319734+262176624+261779426+261603559+261677331+261871688
1958+262201918+262672610+263127287+263430353+263637418+263898137+264306172
1948+264936976+265963228+267473868+269003118+269602291+268894704+267650704
1938+266822964+266629420+266787610+267036244+267254303+267419885+267569921
1928+267817066+268462447+269717839+271163225+272158193+272859980+273740595
1918+274269337+273517671+271910788+270848853+271008082+271931269+272731326
1908+272860136+272459250+272059802+271961429+272062815+272225315+272564497
1898+273296011+274301799+275086949+275529196+276235450+277457739+278265171
1888+277763160+276506972+275633490+275501408+275811833+276247881+276638188
1878+276916877+277099877+277316049+278085721+280290356+284149105+288038359
1868+289303498+287345384+284320280+282264191+281519761+281514931+281754025
1858+282024369+282299821+282663587+283164767+283833885+284821702+286392470
1848+288895999+292441242+295879247+296808062+294574496+291609901+290107797
1838+290060134+290341143+290540434+291616341+294564143+298533280+301089181
1828+301307846+300642814+299895580+298416901+296317442+294880765+294754933
1818+295343545+295907987+296582541+297991137+300064937+301733714+302112560
1808+301579939+301235546+301952898+304069220+307119861+309751040+310756067
1798+310536329+310896719+313343340+317488447+320467966+319526202+316005717
1788+313412800+313252100+314717240+316600423+318476023+320089294+321012984
1778+321625002+323393261+327574345+333580579+338295150+338792833+336002061
1768+332532685+329948632+329400395+331443897+334669228+336666677+337182851
1758+337616683+338252906+339102426+341556319+346709708+352920790+356629296
1748+356602045+355044002+354337523+355280534+357430686+359622527+360859861
1738+362100450+365814877+372343828+377111862+375608148+370599531+366090882
1728+363064930+361733724+362150416+363699317+366337629+371487902+380070051
1718+389389635+393293087+389659963+383116433+378047117+376081939+377513319
1708+381805484+387123486+391270810+394641536+399805833+407050578+412558783
1698+413862461+412126578+407606087+401706017+398188441+398683389+401978041
1688+407181604+415311257+425683237+431569491+428327366+421850804+418216676
1678+419020005+423319165+428407976+432068178+435266881+439188061+441465567
1668+439642184+436739812+437085728+440868057+444657449+445851154+446147590
1658+449083133+457067114+470668164+485416936+490298336+486381450+485356236
1648+489782024+494180942+493217190+489619766+488505320+491524313+498642153
1638+509455791+521398486+528340425+527966634+526513267+529356012+536943627
1628+546993652+557579760+568815803+580633775+590992354+599128621+607802495
1618+619431096+631774175+639900747+644079442+648278151+654002631+660123789
1608+665175966+668823979+671673927+674320826+676823542+679038929+681255493
1598+684220816+688401588+693242753+697645064+701435876+705472604+710120138
1588+714746620+718738056+722042923+724828605+727461792+730843391+736184836
1578+743741736+750975020+754189859+755169505+759230609+768043681+778494297
1568+786599193+792724298+799424961+807847172+819311090+836796720+860014032
1558+876593563+878397244+875011074+872681628+871406828+870601630+870135214
1548+870096571+871031203+873295205+876803398+880959032+881774134+873230800
1538+859850527+851181847+848158145+846090196+841604782+836957040+835874693
1528+838495345+842151392+844870798+846822126+847771716+846678150+844558470
1518+843031245+841414130+838834475+836526982+836517563+840102349+847515205
1508+856229592+858645603+850416607+839539534+833043305+831787480+834157439
1498+836900460+836560915+833452725+831295164+832144338+834736528+836066522
1488+834116995+829652980+824986401+822000649+821081738+821328484+822113531
1478+823995675+827729076+832847251+836820474+836200041+831221410+826405246
1468+824777051+825792154+826841536+825963069+824757521+826903448+833984792
1458+842189134+842843016+834565128+825550670+820163242+818081027+817932135
1448+817996816+816899165+814877477+813096095+812201491+812580372+814759124
1438+818137607+819901952+818045501+814981563+813702677+813701431+812351908
1428+809121833+806611223+806717664+808735612+811615407+815360651+818546058
1418+817738712+812961260+808269335+805893005+804963567+803941747+802515907
1408+801404474+800930787+800438541+799568037+799347814+800851770+803750264
1398+807045574+810040121+811435766+809584717+805562878+802882461+803047697
1388+803815430+802287651+799324891+798427310+801078018+805876523+811022883
1378+816096944+821293650+825815422+828180326+828488153+828778529+830400076
1368+832745311+834937983+837274493+840035936+842142250+842490383+841757484
1358+841107826+840294179+838523462+836362992+835250035+835458208+836115968
1348+836956416+838507811+840726176+842827158+844334022+845306327+845799613
1338+845839087+845658407+845500027+845490608+845867134+847016725+849167154
1328+852090232+855175015+857898577+860261887+862606014+865018286+867336583
1318+869827941+873225953+877707558+882415550+886550616+890382495+894408558
1308+898116405+900818845+903326408+907145614+912120089+916410142+918761957
1298+919396102+918994576+918197688+917512919+916843455+915764640+914303412
1288+912640037+910648128+908543060+907058079+906353504+905683763+904454116
1278+902933470+901847591+901612825+901981940+902393854+902590739+902769203
1268+903357156+904806057+907211542+909911143+911817387+912457695+912549593
1258+913350706+915449749+918411262+921535934+924354788+926217749+926442196
1248+925380971+924294330+923844812+923656515+923354782+923031511+922706994
1238+922071118+920923604+919616810+918764173+918503299+918300874+917591728
1228+916225169+914382983+912649455+911972374+912756312+913962136+913954449
1218+912412889+910575066+909691127+910086698+911499518+913480693+915392269
1208+916802111+918012091+919499773+921074228+922413918+924008041+926500022
1198+929561813+932472426+935183038+937731252+939416858+939793868+939834173
1188+940872476+942943748+945038636+946606789+948209846+950904945+955049360
1178+959547656+962615195+963355711+962052864+959393361+956444590+954666325
1168+955075538+957798476+962385207+967677275+971956801+974413949+975970606
1158+977856005+979881502+981239613+981685737+981021675+979181706+977342360
1148+977396723+979738080+982826049+985356534+987813820+991047496+994585814
1138+997505498+999662090+1000818814+1000053713+997774891+996859650+1000048311
1128+1006932355+1014001926+1017699593+1017111709+1013749916+1010040891
1120+1008162556+1009035899+1012120474+1016608382+1022083968+1027420911
1111+1030633396+1031033121+1029911092+1028378812+1026410240+1024380727
1103+1023485223+1023944436+1024428927+1024287790+1025199222+1029137611
1094+1035310155+1040472374+1042261165+1041301464+1039980543+1039966346
1085+1041130203+1042209295+1042396554+1042789216+1045138191+1048646037
1077+1049573605+1045375242+1038261211+1033157580+1033295323+1038346599
1068+1045553013+1052444467+1057763058+1060101576+1058651498+1055543377
1060+1054158881+1053891775+1050506020+1043518375+1038502764+1040479368
1051+1048919169+1059363137+1067747743+1072561553+1073741823+1071606907
1043+1067600789+1063464477+1059816463+1057327875+1056845739+1057858696
1034+1059029409+1059799497+1060449916+1060888838+1060471938+1059236058
1025+1058306205+1058618603+1059656906+1060056354+1059307873+1058188891
1017+1057949416+1059195961+1061381639+1063476873+1064462544+1063335667
1008+1060071728+1056250030+1053057628+1049563079+1045320740+1042570447
1000+1043172944+1045493318+1046505512+1046372963+1047814038+1050939818
991+1052212540+1049843066+1046836677+1045941866+1045572612+1043174814
983+1039500761+1036577614+1033997820+1030649670+1027695151+1027114400
974+1028918081+1031062830+1031514634+1029609290+1025936484+1022249274
965+1020491369+1020765332+1020991233+1019037621+1015006433+1010586532
957+1006628267+1002870904+998929884+994544054+990037033+986825033+986075306
947+986845255+987059661+985931399+984229173+982962199+982512681+982496199
937+982169327+981439752+980967450+980577420+978890222+975690618+972911932
927+971994198+972019821+971269055+969530194+967833162+966694859+965610434
917+964037571+962466233+962217755+964032031+967058781+969667314+971061505
907+971293847+970275905+968085449+965503162+963033826+960477370+958054849
897+956473330+955693339+955008778+954345547+954198455+954254203+953739865
887+953186953+953899838+955755597+956706849+955039526+952114509+950945458
877+952243457+953683840+952541520+948635195+944576237+943064040+944417511
867+946565030+947071751+945497365+943648185+943447837+944949993+946492384
857+946653743+945604706+944588149+944407192+944912804+945837117+946941695
847+947541629+947211710+946751181+947195713+948250151+948817744+948457839
837+947435811+946262120+945875622+947245505+950424887+954693264+958904854
827+961159230+959557628+954324217+948211993+944104212+943226714+945200825
817+948413379+950880222+952143941+953468257+955359473+956629287+956464466
807+955663422+955159749+955243960+956255254+958372233+960967401+963257719
797+965160778+966433361+965828095+962673436+958638093+956307540+956646323
787+958964134+962084513+964320814+964623171+964153431+964399346+964894086
777+964230786+962080011+959099107+956011901+953642219+952744430+953206205
767+953939104+954127817+954355589+955869587+958966558+962702868+965563689
757+965765490+962462008+957672645+954874636+955179278+957006020+958949730
747+960667607+961598222+961673638+962092615+963534314+965377192+967016329
737+968246807+968710175+968576241+968912877+970057552+970630062+969217588
727+966260161+962867274+959038373+955705805+955267021+957791759+960213034
717+960235956+958901530+958507206+959822450+962362908+966122210+971304166
707+976035911+976467216+971152157+963364299+957171603+953195887+949897044
697+947061432+946311912+948714004+952585080+954758223+954101086+951996157
687+949892474+948769129+949447042+950373155+947375146+939687150+931997562
677+928362775+929131478+932785724+936592464+936353335+928957100+917581825
667+911185111+911621610+913795792+914905978+914208259+911303602+907815701
657+907531904+912291489+919091737+921989815+917083138+906437646+897002825
647+894273584+896993407+899844255+899267104+894645540+886897086+878064278
637+871488754+870102181+873813145+879902239+885976859+890623424+891318235
627+886171667+877925080+872031001+872035018+877472100+883489241+884309121
617+878381246+869294766+861688904+857749130+858183966+863423055+871789171
607+879302651+881929952+876582967+865218011+854409498+849312653
##END=
