##TITLE=<SNM>
##JCAMP-DX=4.24
##DATA TYPE=INFRARED SPECTRUM
##DATE=2/5/2025
##SAMPLING PROCEDURE=Instrument type and / or accessory
##ORIGIN=Admin
##XUNITS=1/CM
##YUNITS=ABSORBANCE
##RESOLUTION=4
##FIRSTX=4497.3318
##LASTX=599.83466
##DELTAX=-1.4281778
##MAXY=1.7480379
##MINY=0.19094032
##XFACTOR=1
##YFACTOR=1.6279872e-09
##NPOINTS=2730
##FIRSTY=0.20882842
##XYDATA=(X++(Y..Y))
4497+128273994+128734973+129314109+129705835+129792158+129533912+128835675
4487+127715590+126682825+126616492+127900721+129825915+131224969+131650974
4477+131549017+131405368+131232273+130816749+130053397+129111843+128459455
4467+128430815+128769114+129001063+129099844+129313285+129631063+129912302
4457+130272541+130813710+131095205+130469205+129077382+127937342+127724139
4447+127973488+127929050+127643765+127675765+128153603+128708703+129035415
4437+129047533+128673464+127937553+127199537+126955204+127290125+127735068
4427+127775241+127333383+126692893+126182387+125969971+125921377+125669190
4417+125075098+124508254+124383699+124643364+124968263+125181384+125193127
4407+124906159+124400275+123965895+123849559+124041043+124227052+124002664
4397+123314697+122608607+122371083+122632377+123002173+123088779+122834552
4387+122480912+122250216+122079538+121663694+120811987+119780741+119075832
4377+118904568+119067878+119324641+119545204+119639051+119599144+119457252
4367+119163455+118816140+118816955+119322399+119798508+119616251+118868697
4357+118233892+118278211+119065251+120073275+120424087+119661540+118342695
4347+117442064+117286132+117515418+117886723+118549253+119569149+120627863
4337+121218495+121007452+120175744+119412100+119268139+119539676+119579153
4327+119139849+118558608+118198973+118113153+118191147+118301963+118341285
4317+118382941+118663924+119194457+119580700+119492739+119115886+118908101
4307+119069004+119455906+119915878+120474081+121166249+121797631+121978048
4297+121459899+120443134+119508866+119199619+119621999+120382760+120896653
4287+120864562+120480223+120114803+119864264+119484254+118767985+117951582
4277+117611351+118008771+118714906+119171931+119403715+119772998+120310835
4267+120758395+121087825+121519221+121971184+121934544+121251153+120657079
4257+120976624+122052353+123014712+123341433+123239357+123231046+123579497
4247+123999350+124050351+123827281+123848296+124301668+124830975+124951851
4237+124406820+123372590+122463997+122237063+122686289+123448653+124285120
4227+125107418+125740411+125925404+125573705+124974789+124637606+124770326
4217+124983018+124748579+124113014+123678844+123865678+124438425+124832751
4207+124797035+124639611+124855807+125540836+126294641+126729488+126834236
4197+126782136+126689342+126678706+126864377+127118248+127113177+126751574
4187+126348791+126260482+126476614+126673489+126618735+126500248+126814035
4177+127809354+129068888+129856285+129937015+129849118+130264999+131189546
4167+131940212+131980971+131556385+131218434+131024726+130678812+130203518
4157+129945766+130049946+130353089+130643517+130718985+130392950+129721761
4147+129109628+128946391+129145563+129226568+128905688+128425231+128190655
4137+128308382+128653089+129143806+129718530+130221503+130512408+130561716
4127+130418176+130223966+130127318+130060253+129861273+129685845+129887405
4117+130422973+130831394+130870057+130795175+130920912+131176631+131231385
4107+130930156+130489196+130301071+130613211+131291650+131847665+131918254
4097+131731988+131789698+132154578+132437776+132312314+131718569+130923255
4087+130612360+131390503+132943129+134190305+134448460+134033759+133678801
4077+133759623+134163981+134603276+134889851+134992009+134948440+134774320
4067+134419563+133814441+133000903+132222375+131809066+131934418+132506122
4057+133295542+134085035+134628026+134628767+133999527+133119518+132586697
4047+132662055+133084453+133350873+133099217+132387342+131683009+131447966
4037+131749205+132389191+133196707+133961422+134381560+134371720+134181811
4027+134065987+134052734+134046116+134005019+134025064+134231403+134547341
4017+134707868+134553446+134128650+133535994+132919422+132495852+132403873
4007+132614138+133048261+133644422+134343354+135124573+135894707+136279587
3997+135871111+134806841+133767916+133300018+133379046+133646921+133909460
3987+134362805+135252314+136323156+136897175+136630435+135948839+135644672
3977+136206527+137469300+138737172+139335155+139137822+138527181+137954361
3967+137666523+137720096+138039906+138410122+138537442+138308788+137987404
3957+137978955+138370370+138877096+139362440+140121197+141242903+142016881
3947+141801701+141181778+141131061+141481140+141300549+140440311+139643239
3937+139554418+140478992+142423820+144685308+145913007+145402657+144056910
3927+143349191+143688396+144243423+144350670+144507976+145456953+146915347
3917+147663834+146820191+144844152+143013830+142121447+142034831+142616054
3907+144613356+148891789+154738665+159628646+161475031+160191910+156642202
3897+152153183+148831836+148432596+150669563+152906915+152941047+152306379
3887+153615321+156268297+157562860+157379852+157608076+157694298+155957787
3878+153826721+154009600+156828139+160894467+164972548+167362171+166450447
3868+164030490+163327915+164175421+163765929+161217755+158652392+158126033
3858+160586245+166663532+175450856+180988127+177250158+168655781+161606946
3848+158257307+158615139+161642771+165729218+169836259+173803734+176934210
3838+177597702+175627346+172954983+170797227+168847777+166925348+165718289
3828+165666281+166639038+169213060+174160376+179486631+180962828+178718867
3818+176599060+174902071+171509266+167336432+165201705+166370778+170346308
3808+175037867+178124757+180320315+183770950+187313116+187796345+185930537
3798+184487767+183439259+181751772+180186845+180152758+181981881+185193180
3788+189250813+193670177+197963576+202211520+207265763+213384733+219245658
3778+223825403+228453275+235360714+245701359+259165176+273736247+286460071
3768+296173362+303739422+309728161+314820371+320704436+328337369+336668208
3758+344453705+352783557+364374811+381143216+401742274+420378648+433025879
3748+443514768+456754719+471661562+481597310+485195292+488749484+496837181
3738+509846766+524983243+537315790+543423776+545160892+546976065+550924904
3728+556004116+559629960+559633951+556568534+552554159+548323221+543660439
3718+539369640+537213238+538786659+544375151+551078200+553673037+551092882
3708+547121710+544825961+545204534+547482306+549043608+548312311+547387882
3698+548621796+551801883+556171802+562413167+571143925+580282583+585408330
3688+584583817+580790068+577848951+577753869+580592031+584705773+588388622
3678+591293749+592441147+590196070+586424326+583793317+580686565+574126158
3668+565813844+559355879+555765366+554551040+555100520+557038126+560169994
3658+563656014+565780673+566436622+568260546+573189867+579587971+582407937
3648+578517898+571368616+566077271+564626428+565602663+566099092+564887988
3638+563722649+564945872+568961895+574767059+581643908+588148847+590454591
3628+587403636+584464826+585779983+590423763+595739492+600112889+603377148
3618+606342649+609756909+612740862+613711313+613462055+614743052+617819013
3608+619774485+619478437+619858548+623757484+630069035+634793436+636193058
3598+636961627+639649569+643164806+645341930+646563469+648709180+652125124
3588+655173552+656544397+656733464+656451035+655575264+654265929+653615179
3578+654399345+655916127+656803467+656866220+657491488+659708447+662064167
3568+661341437+656908618+652346923+650508171+650858918+651527682+651266415
3558+649676042+647406728+646139204+646813459+648457140+649963157+651676621
3548+653750352+654895371+654451701+653669146+653359038+652460055+650028694
3538+647029985+645393334+645978695+647871120+649535963+650296477+650287178
3528+649283410+646625857+642860190+640153649+639793383+640301564+639489865
3518+637414084+635678872+635008571+635063197+635859738+637465195+638575066
3508+637514695+634359871+631075805+629837864+631179345+633824743+635940578
3498+636739389+636969902+637366341+637381499+635965914+633108164+630040331
3488+628218348+628167090+628793530+628136043+625618130+623087402+622374557
3478+622589619+621561321+619567552+619411875+622354200+625835754+626374177
3468+623970715+621761811+621722489+622868899+623372393+622664894+621094585
3458+619100742+617232261+615919484+615153185+614787134+614814154+614893163
3448+614334237+613329005+613083665+613779046+613751952+611908953+609629863
3438+609050654+610503437+612336551+612966944+612382756+611469604+610763752
3428+610219324+609762693+609486892+609106122+607728651+604835057+601417172
3418+599389719+599772393+601940035+604355543+605619296+605331375+604375094
3408+603888075+603787134+603099772+601618834+600128925+599195673+598748525
3398+598646486+599003568+599964426+601111018+601379315+599969808+597033999
3388+593482736+590793073+590326630+592055728+594473176+596150321+596847422
3378+596962019+596770353+596341072+595843618+595718367+596020822+595948769
3368+594957083+593771828+593424156+593895871+594371723+594148204+592924615
3358+590963797+589327366+589378587+591372063+593656388+594085963+592404059
3348+590362950+589457377+589517897+589478649+588834013+588190585+588456099
3338+589678699+591016812+591695717+591518659+590823828+590346950+590579256
3328+591178822+591535245+591713401+592182370+592880607+593081865+591976791
3318+589426439+586528232+584974106+585354729+586704851+588031577+589152688
3308+589645821+588713741+586791659+585631995+586184953+587643302+588630118
3298+588419523+587260884+586209264+586305518+587514096+588766096+589141850
3288+588703196+588184288+588314958+589372253+590871460+592051188+593046718
3278+594582977+596229660+596632910+595844863+595316618+595226075+594218390
3268+592042986+590048851+589130024+589137347+589758258+590488091+590261277
3258+588420987+585929691+584572760+584949209+585966523+586420372+586408985
3248+586693611+587306467+587642679+587633013+587858290+588328870+588107182
3238+586744685+585145269+584292821+584079297+583950274+583855777+583976013
3228+583919044+582975247+581405707+580394251+580314582+580269292+579787143
3218+579474143+579460889+578867071+577268827+575490449+574597580+574738026
3208+575125752+574956932+574133261+573100972+572114229+570917514+569516867
3198+568609097+568572594+568649663+567885268+566611557+565939828+565913576
3188+565423518+563932036+562197556+561273640+561484602+562205611+562332620
3178+561214109+559197896+557128193+555592629+554671312+553982961+552987505
3168+551661291+550587850+550036722+549599203+549086189+548848720+548811595
3158+548290636+547147778+546001514+545128490+544276371+543386395+542593369
3148+541964696+541758128+542186311+542652241+542076071+540134145+537475127
3138+534850049+532733152+531579823+531701120+532800043+534033408+534608480
3128+534283508+533430803+532657877+532180011+531555878+530173977+528025593
3118+525887644+524618106+524273510+524097477+523437391+522294569+521034331
3108+520130625+519970079+520271107+520053373+518915567+517714458+517219420
3098+517029035+516501047+515830526+515615208+515913270+516166409+515901371
3088+515269952+514803436+514734495+514800873+514651385+514112010+513103812
3078+511623240+509871699+508371210+507841317+508528826+509593554+509769440
3068+508769480+507359680+506180429+505333838+504724424+504031643+502892299
3058+501574250+500717298+500331366+499953342+499556902+499351213+499057728
3048+498314567+497475519+497203855+497504077+497754433+497555774+497050741
3038+496468640+495846081+495189693+494512105+493718823+492763054+491838589
3028+491055119+490049484+488329063+485951156+483524518+481576880+480299361
3018+479843609+480320047+481362441+482110654+481820207+480403304+478511354
3008+477127988+476784893+477109389+477300726+476943462+476197299+475406396
2998+474719473+474031525+473159232+471976356+470543198+469263958+468590471
2988+468349927+467808282+466692004+465620760+465256502+465521394+465823849
2978+465726826+465207515+464418150+463453667+462403365+461400330+460513868
2968+459784841+459352850+459254363+459168470+458663913+457612110+456274693
2958+455146003+454592899+454447657+454152341+453442827+452599788+451931025
2948+451402963+450937399+450640691+450455652+449972807+448987162+447934407
2938+447355600+447202121+447044797+446643012+445903989+444669343+443047593
2928+441628896+440879292+440543007+440022267+439148254+438241180+437652232
2918+437466057+437427724+437144270+436545254+435977650+435685995+435461414
2908+434964913+434196234+433485183+433070437+432814881+432419760+431775929
2898+430933256+429919786+428820863+427836866+427058228+426383460+425714624
2888+424991234+424125715+423149041+422286488+421749456+421554787+421514257
2878+421282427+420600007+419668219+419008719+418807314+418712304+418366939
2868+417803107+417212071+416655379+416084553+415422270+414626937+413788585
2858+413096316+412688526+412562836+412504842+412127806+411277445+410363671
2848+409921429+409924284+409836671+409253471+408268192+407259628+406465906
2838+405797070+405021105+404028028+402867998+401704051+400781343+400243835
2828+399920767+399462379+398729141+397888628+397091281+396275775+395405936
2818+394630667+394030002+393486014+392946822+392501578+392135929+391746629
2808+391316761+390813999+390169949+389513634+389045946+388662833+388106103
2798+387366348+386593459+385845942+385147046+384501239+383810252+383052703
2788+382439554+382099314+381777014+381152149+380327599+379664291+379161895
2778+378403358+377245378+376140450+375478789+375014104+374304481+373347431
2768+372403634+371542435+370715067+369985636+369402436+368833332+368100606
2758+367163803+366150589+365279761+364678548+364234731+363725086+363080450
2748+362395137+361734978+361096932+360477559+359870011+359291095+358818538
2738+358432203+357899931+357066338+356138321+355438730+355022373+354747633
2728+354539345+354348630+354000958+353302209+352271494+351163821+350244042
2718+349576340+349053367+348547237+347923763+347026684+345891441+344911471
2708+344497274+344563579+344597043+344264638+343738334+343345006+343077918
2698+342589837+341632787+340400338+339366292+338800739+338545477+338269894
2688+337804513+337209377+336667549+336319621+336104523+335832089+335444729
2678+335043639+334644490+334136236+333496103+332825326+332146091+331353907
2668+330462540+329754967+329499668+329580472+329633231+329476859+329149580
2658+328649966+327936169+327066000+326157535+325347887+324805619+324566833
2648+324409179+324096545+323632226+323097244+322428408+321573689+320708829
2638+320048157+319570730+319175901+318942607+318943376+318957984+318702209
2628+318207538+317714441+317335173+316977725+316488765+315841713+315229296
2618+314856801+314649061+314356198+313913846+313483210+313182146+312962691
2608+312732947+312479589+312249297+312041521+311779632+311408454+310961160
2598+310526460+310215181+310095348+310064960+309891709+309491242+309060826
2588+308840785+308818964+308730508+308311112+307547632+306707980+306126958
2578+305942340+305998027+305978275+305671719+305127236+304554196+304119130
2568+303857955+303707166+303579810+303436545+303277537+303088818+302885070
2558+302742336+302663015+302519604+302256141+301991451+301819665+301670323
2548+301436772+301111470+300769253+300496124+300313116+300145395+299912118
2538+299629049+299358007+299079258+298698872+298221940+297843879+297750810
2528+297859733+297911027+297816713+297740412+297803917+297891677+297802434
2518+297482679+297086093+296850162+296864788+296945171+296833704+296526471
2508+296261561+296197013+296229031+296122891+295757499+295249812+294818078
2498+294516812+294215949+293858831+293571002+293458949+293452158+293400443
2488+293232245+292984397+292743670+292575216+292452417+292258792+291940520
2478+291629259+291468036+291371654+291156244+290825395+290520981+290296876
2468+290117219+289959931+289805518+289618154+289372429+289063164+288745093
2458+288562140+288616784+288795160+288820954+288511377+287948497+287384042
2448+287007007+286836393+286790920+286775872+286724194+286627372+286507631
2438+286358929+286176306+286006406+285886189+285782704+285654450+285514426
2428+285407060+285362210+285354722+285292664+285104018+284850257+284683506
2418+284675030+284756548+284842990+284930018+285032990+285103012+285076614
2408+284986364+284955701+285069017+285293488+285537986+285728847+285817889
2398+285793944+285707502+285627229+285575294+285550965+285592411+285751309
2388+286006717+286252863+286402150+286454323+286424045+286296505+286149872
2378+286208983+286647765+287444032+288547568+290047820+291947476+293821248
2368+295035025+295455794+295572295+295712392+295710086+295556094+295617420
2358+296016642+296567788+297406891+299144043+302250045+306351118+310368514
2348+313423532+315509125+317355090+319388181+320915067+320929236+319275634
2338+316601275+313625523+310731673+308038825+305530779+303082118+300606419
2328+298171854+295800079+293422648+291224014+289641751+288824780+288420963
2318+287994720+287380381+286616407+285755629+284835997+284005077+283531677
2308+283544309+283803049+283863020+283479999+282791172+282090098+281511346
2298+281010487+280551678+280161609+279851611+279609053+279427437+279312657
2288+279305499+279431739+279589850+279616980+279479646+279253729+278956893
2278+278567300+278158229+277852881+277675676+277563422+277483388+277429384
2268+277355592+277244638+277174653+277196584+277249049+277289195+277354548
2258+277447233+277523167+277584566+277631320+277585939+277391655+277120448
2248+276929148+276956223+277248537+277718568+278160096+278356778+278253348
2238+278048153+278052309+278409043+278977177+279505092+279892287+280252005
2228+280723537+281295186+281878551+282488789+283245020+284213402+285317634
2218+286406690+287388857+288293203+289229439+290328894+291682256+293259942
2208+294924895+296567642+298185327+299830582+301546682+303326763+305095383
2198+306786422+308459283+310246448+312155495+314018485+315682815+317170526
2188+318600024+320023261+321378947+322542822+323435434+324131766+324794050
2178+325477934+326119970+326662787+327034257+327096828+326768085+326117664
2168+325290222+324395010+323463113+322462201+321335196+320003636+318389905
2158+316506852+314473102+312411417+310343581+308135482+305651783+303058704
2148+300662912+298449999+296467854+295622564+297081626+300806506+305540884
2138+310230631+314726863+319268787+324001463+328896954+333769965+338476608
2128+343103181+347813120+352684190+357790862+363196218+368845011+374659622
2118+380627932+386680304+392727367+398893677+405488024+412887076+421732504
2108+432983555+447557555+466166689+489257885+516330616+545367606+573682854
2098+599294454+621225657+639301384+653976617+665731785+674784294+681174489
2088+684324553+683193155+677351048+667030064+652531889+634222428+612341603
2078+587218670+560185957+533075735+506953904+482438116+460305397+440928975
2068+424062962+409418483+396755984+385767701+376341233+368431949+361742300
2058+356051806+351393783+347601646+344363785+341690159+339701589+338348575
2048+337713641+338028765+339395325+342053867+346685931+354118997+365120973
2038+380492173+400817004+426029528+455293039+487032542+519133740+549560577
2028+576861366+600242314+619631843+635533667+648684064+660004276+670136047
2018+678593163+684290284+686977128+687109225+684658020+679086846+670281764
2008+658862333+645497607+630339821+613406074+595057402+575747871+555760241
1998+535474658+515589030+496814664+479350183+462786551+446678562+431132355
1988+416701181+403899591+392870119+383318070+374798932+367113058+360281975
1978+354246262+348832631+343897342+339330265+335117523+331473300+328609582
1968+326305815+323995678+321386197+318729302+316406058+314530327+313014790
1958+311751696+310616856+309481943+308314224+307182825+306190005+305440346
1948+305028090+305039275+305456565+305851980+305431028+303925816+302132006
1938+301007618+300706572+300761400+300762772+300631297+300441443+300212578
1928+300032189+300291881+301288162+302553928+303327678+303672439+304064760
1918+304128137+303123252+301478363+300459823+300674225+301667924+302550615
1908+302756340+302397739+301960074+301720427+301610663+301555085+301715429
1898+302306702+303198912+303949761+304499314+305365089+306606600+307271391
1888+306676658+305491402+304682340+304423178+304479726+304714046+304980512
1878+305137085+305206063+305338069+305962696+307872421+311330067+314843144
1868+315897876+313945223+311023218+309010667+308226794+308165614+308317519
1858+308377783+308292403+308216725+308309355+308672441+309423765+310741155
1848+312968878+316270372+319491135+320211119+317843244+314854421+313376302
1838+313366380+313756925+314123819+315190267+317707704+320937291+322901807
1828+322915280+322220925+321499732+320265123+318647107+317640301+317643267
1818+318106817+318519916+319121459+320439069+322326845+323793723+324060885
1808+323515908+323234980+324053452+326191145+329052813+331304846+331943405
1798+331542828+331832798+334077217+337802316+340440209+339574177+336357295
1788+333905724+333651157+334940612+336669270+338394084+339867297+340745777
1778+341431711+343271562+347352132+353018279+357296008+357506346+354620258
1768+351141926+348585680+348056812+350015507+353004366+354721601+355081063
1758+355514738+356176691+356877930+358903149+363425632+369062050+372554514
1748+372629716+371067096+369960740+370297758+372066836+374275447+375665952
1738+376811154+380009767+385716553+389922448+388750337+384733582+381309180
1728+379133264+378298243+378979015+380836110+383967173+389646244+398539378
1718+407925390+412125244+409507634+404536063+401204034+400849259+403559974
1708+408779705+414864369+419795777+423940493+429784686+437558650+443339102
1698+444882025+444151130+441870758+438613419+437096564+439000706+443630573
1688+450197278+459414176+470505414+477277514+475619225+471080449+469255756
1678+471538178+476994792+483116765+487851527+492140093+497332474+501587174
1668+502529286+502430652+505122877+510857636+516291880+518743305+519836956
1658+523111027+531008924+544076101+557748994+561447623+556902367+555333632
1648+558389639+560175559+556253374+550347049+547264462+548094943+552696985
1638+560680152+569254392+572320723+568232281+563357110+562469404+565471261
1628+569928977+574079623+577982990+581351521+582974515+583815797+586947738
1618+593348734+599420108+600741086+598910865+597998885+599083310+601020695
1608+602791019+604422837+606206743+607942358+609230897+610113111+611112010
1598+612641972+614544832+616293810+617600729+618622584+619538554+620269852
1588+620784770+621400079+622518737+624152605+626047155+628485985+632498566
1578+638377651+643513576+644118854+641922032+642019861+645743569+650126595
1568+652123879+652630742+654084185+658032401+666285732+680978759+699735038
1558+710538575+709788385+708683274+712675206+720733905+730575339+740400737
1548+749392102+758317785+768509454+780010971+791207433+797934024+794638242
1538+784965079+778480570+777590447+778599487+777357006+774617148+773995761
1528+776407571+779975018+783486594+787721193+792384671+794907344+794470337
1518+792944402+791039675+788685712+787408815+789385743+795544034+805130719
1508+814756286+817015861+808950645+799304575+794653106+795098314+798466809
1498+801707818+802007601+799688274+798505764+801331955+807048480+810752345
1488+808862556+804009864+800600730+799713244+800010757+800622039+802257957
1478+805917228+811539587+817926780+822680031+822852842+818756931+814802491
1468+814032018+815830203+817617917+817919897+818483509+821790714+827643731
1458+832000543+829904552+823512819+818918465+817603492+818221291+819357522
1448+819867314+819217663+818006375+817209029+817376494+819129939+823232074
1438+828854579+832174526+830277340+826136030+823832519+823591170+823366442
1428+822444027+821943535+822203337+822337631+822348103+823200514+824181436
1418+822602413+817956216+812990905+809971255+808942371+808427233+807337499
1408+806325091+806565782+807823860+808951524+809841353+811260526+813299841
1398+815301446+816685690+816899434+815510210+813329937+812120700+812570228
1388+813429962+813019097+811794117+812128755+815388364+820620872+825895705
1378+830418005+834895711+839709886+843712142+845874475+847027842+848447527
1368+850120864+851460661+852566724+853761389+854499057+853757215+851593198
1358+849422883+848456973+848384407+848017257+847086348+846555687+847063868
1348+847834195+847527895+846014189+844759333+845258654+847376319+849383415
1338+849834920+849271015+849322931+850528800+852021271+853129018+854326539
1328+856331951+858945789+861322158+863098889+864696218+866474193+868224050
1318+869746470+871355002+873395196+875804224+878546279+881830784+885350781
1308+887928373+888640412+888064498+887716167+888378047+889670761+891006677
1298+892129947+892774327+892539055+891266186+889242102+886974837+884767178
1288+882423540+879602695+876561224+874134768+872838028+872291623+871600013
1278+870163779+868213359+866563601+865708773+865385045+865251849+865610285
1268+866973514+869173558+871380265+872934758+873836669+874499502+875244200
1258+875867490+875679595+874284513+872332629+871075649+871018900+871421271
1248+871297155+870508083+869714617+869614226+870366026+871463156+872146784
1238+872220888+872316300+873093583+874544096+876368715+878591898+881336443
1228+884282575+886726458+888071235+888348977+888407996+889284426+891271897
1218+893852052+896343751+898216992+899216219+899830650+901164369+903671519
1208+906523484+908862948+911024842+913644465+916325303+918372161+920092581
1198+922170925+924505263+926640649+928701859+931091335+933685036+935870728
1188+937177354+937665472+937947608+938961480+941323351+944691040+948134590
1178+951177819+953923243+956304298+958005094+959069346+960011165+961474200
1168+963800996+966436948+968143675+968471943+968432401+969189694+970844431
1158+972892607+975416598+979063713+983502463+987048748+988935901+990599572
1148+993073990+995014671+994996072+993628230+992223702+991672465+992980189
1138+996527792+1000852091+1004143992+1006370178+1008156574+1008952163
1130+1008254915+1007305553+1007261691+1006967986+1005076878+1002987770
1121+1003331415+1006720266+1011572518+1016317422+1020659222+1024590304
1113+1026713461+1025497488+1022675178+1022196653+1025234830+1029079946
1104+1031224119+1032069354+1033113982+1034764838+1036336099+1037068935
1095+1036981065+1036824803+1037292490+1038421619+1039712356+1040408945
1087+1039753801+1037865476+1036502174+1038030891+1043023442+1049175656
1078+1053670057+1055456746+1054697623+1052365555+1050575278+1051179310
1070+1053625097+1055803393+1057144142+1059222852+1063031062+1067285359
1061+1069847061+1069741837+1067420166+1064048523+1061163313+1059983293
1053+1060529771+1061940303+1063564286+1065447413+1067842454+1070545773
1044+1072831490+1073741823+1072985702+1071515711+1070608600+1070196271
1035+1068758645+1065702821+1062333595+1059886563+1058543032+1058435171
1027+1059789906+1061968275+1063417690+1062840092+1060505534+1058782917
1018+1060303652+1064525950+1067695785+1067673305+1066519499+1066025524
1010+1064031755+1058378715+1051335646+1046685641+1045590196+1047340858
1001+1051214898+1055854870+1059166542+1059984684+1058231752+1054103036
993+1048746192+1044451328+1042864690+1043238577+1043347316+1042236566
984+1040789934+1039526071+1037608822+1034843262+1032470188+1030763241
975+1028244449+1024418958+1020919537+1019478763+1020394807+1022375322
967+1022893023+1019869125+1013652326+1006750288+1001694471+999179707+997784112
957+995736083+992822902+989789485+986600611+982490714+977343586+972407931
947+969491674+969265921+970458609+971060811+970057556+967703886+964898272
937+962911313+962978900+965367791+968728230+970738768+969858604+966698068
927+963306874+961158088+960464135+960646099+960927210+961018887+960779735
917+959644089+957839826+956781213+956947506+957158321+957053024+957945489
907+959869402+960652982+959180062+956991588+955673319+954707994+952803706
897+950209126+948896056+950649355+954840678+958098969+957192590+952485471
887+947357454+944551547+944586768+946487322+948271301+948061585+946336771
877+945902474+948371400+951740919+952496454+949665797+945593831+942752410
867+941339168+940317753+939457360+939487162+940519414+941320642+940852222
857+939847356+939779257+940895498+942489678+944518156+947085496+949111850
847+949558669+949117635+948816095+947727313+944335020+939558630+936487136
837+937475673+942105247+947420940+950329655+950512058+950259578+951171888
827+952410928+952424840+951060220+949447514+948732033+949146925+950026064
817+950487162+950065752+948872258+947759971+948137300+950439272+953346376
807+955262893+955673392+955028061+954784661+956999716+962096173+967266221
797+968612315+965244773+959883608+955611517+953758560+954437282+956854657
787+959082380+959534032+958704686+958120277+958391356+959304691+960575217
777+961848819+962727445+963055054+962916439+962245552+960182805+955697044
767+949870681+946367599+947958997+952918816+956205811+954640481+949806096
757+945768033+945213207+947736613+951264664+954381997+956799006+958495043
747+959262733+958878449+957766235+957098423+957779122+959437741+960720496
737+960950275+960748614+960761648+961040049+961493385+961480937+959344086
727+954724616+950439931+949586568+951979999+955032894+957079604+957909243
717+957128592+954883881+952782910+951854345+951016285+949099109+946874974
707+945665884+945774916+946832943+947725848+946538433+942805058+939642985
697+940698083+944981157+947098604+943410116+935706631+927540877+920579673
687+915952735+915679606+920016061+924978443+925621651+921433842+916302018
677+913961236+914835322+916072897+913938463+906966349+896719834+888569677
667+888138968+891900534+893529716+893094613+893657713+895126825+894315127
657+891005944+889278641+891625501+895778601+897704417+895731810+891866997
647+888810733+886629875+884087651+881602249+880154812+878477887+874254491
637+868072621+863498258+863040821+865740992+868394371+868458370+865500301
627+860744706+856340225+853543618+851584045+849123101+846806116+847548105
617+853138611+861658115+868502158+871145872+872046759+874546512+876941408
607+874456153+867320600+860096153+854338987+849292177+847225842
##END=
