##TITLE=<SNM>
##JCAMP-DX=4.24
##DATA TYPE=INFRARED SPECTRUM
##DATE=2/5/2025
##SAMPLING PROCEDURE=Instrument type and / or accessory
##ORIGIN=Admin
##XUNITS=1/CM
##YUNITS=ABSORBANCE
##RESOLUTION=4
##FIRSTX=4497.3318
##LASTX=599.83466
##DELTAX=-1.4281778
##MAXY=1.8482581
##MINY=0.39049578
##XFACTOR=1
##YFACTOR=1.7213245e-09
##NPOINTS=2730
##FIRSTY=0.4097054
##XYDATA=(X++(Y..Y))
4497+238017523+238247863+238568147+238663268+238664792+238597407+238052756
4487+236977980+236207629+236636521+238084578+239389158+239619048+238895859
4477+237972127+237448806+237587038+238449722+239826465+241173792+241961820
4467+242064403+241722720+241285395+241095881+241338739+241756897+241810880
4457+241351274+240766230+240232988+239441082+238402629+237704874+237542317
4447+237461670+237464336+238156447+239429204+240208247+239855794+238882389
4437+238116661+237913364+238158525+238560373+238948821+239350843+239687039
4427+239620156+238888449+237689015+236609217+236080252+235949240+235808741
4417+235654044+235888296+236738048+237905816+238751412+238746425+237937655
4407+236955489+236402043+236295045+236261370+236172378+236214086+236355210
4397+236155064+235314126+234233532+233683912+233916260+234410737+234636662
4387+234753961+235198505+235810957+235916119+235208530+234104753+233184172
4377+232617325+232243005+232004025+232065800+232469519+232916556+233099786
4367+232965311+232416574+231399434+230446684+230323758+230948450+231319082
4357+230747196+229709367+229231616+229767818+230883905+231818198+232149096
4347+231946977+231420297+230616358+229550896+228431693+227528529+226969906
4337+226857731+227309703+228186740+229068851+229678255+230145497+230763298
4327+231563308+232190545+232211373+231490279+230344257+229458009+229393671
4317+229951412+230322338+230120652+229840760+230099737+230944623+231962594
4307+232582559+232323859+231139730+229581316+228498956+228399351+229013049
4297+229623804+229790637+229533981+229127648+229064297+229727772+230775470
4287+231357986+231121863+230507247+230058479+229837419+229489589+228816280
4277+228282519+228624618+229886468+231295414+232150741+232391521+232298599
4267+232089537+231854366+231575998+231158446+230579220+230091756+230113796
4257+230697922+231304002+231427517+231233466+231156698+231185109+231036559
4247+230754035+230665719+231006191+231795379+232755626+233311358+233080983
4237+232324465+231631090+231390449+231657597+232145616+232353985+232053785
4227+231602263+231558183+232062216+232743454+233210506+233481516+233794875
4217+234162321+234456635+234740457+235028313+235050422+234652383+233982312
4207+233160955+232355630+232049318+232536747+233329243+233646116+233334852
4197+232875315+232634846+232536366+232379592+232109552+231770811+231500130
4187+231544574+232015435+232696258+233267918+233555826+233503677+233182822
4177+232862555+232841224+233179515+233677454+234114951+234473879+234839352
4167+235172951+235346312+235282113+234921817+234319044+233902375+234204947
4157+235097948+235726882+235491001+234711474+234063893+233751954+233584705
4147+233486467+233494241+233519744+233471491+233413352+233448204+233678977
4137+234241825+235060932+235669453+235597618+234909161+234189659+233961899
4127+234104753+234060413+233605498+233025666+232613325+232454508+232614070
4117+233046494+233414876+233399640+233125410+232943721+232841900+232437488
4107+231620356+230813369+230485519+230805768+231776438+233204308+234579839
4097+235379987+235415168+234800258+233874881+233149943+232980980+233225136
4087+233463873+233533335+233569625+233534443+233119644+232332759+231681836
4077+231479544+231473242+231397634+231364721+231557767+231982106+232548850
4067+233125063+233559011+233802008+233941019+234083544+234209847+234119314
4057+233712410+233328844+233435756+233926475+234128196+233638844+232830230
4047+232355162+232462420+232992441+233746466+234531551+234983332+234750845
4037+233947373+233204308+233164712+233945780+235061745+235809849+235776468
4027+235121391+234408330+234042424+233974538+234087838+234484804+235133077
4017+235735556+236174352+236570833+236848180+236706987+235979782+234789576
4007+233582419+232964012+233196447+234027552+235156381+236448409+237604611
3997+238157763+237980593+237516000+237359952+237677518+238117024+238345650
3987+238456959+238619811+238684858+238511393+238317619+238402681+238860210
3977+239669517+240681584+241555678+242051505+242222217+242105350+241552388
3967+240631617+239918331+240063783+241081753+242235791+242766903+242611063
3957+242201683+241859913+241784443+242463257+244468310+247416539+249567425
3947+249541004+248236961+247536401+247619316+247125878+245681266+244475738
3937+244565145+246338213+249872750+254139254+256408807+254804823+251305623
3927+249661143+251047962+253225667+253879602+253629628+254399667+256247132
3917+257077164+255171352+251189865+247208481+244773255+244394000+246377481
3907+251475730+259937353+269689151+276646897+278293559+275194546+268781399
3897+261086526+255346185+254147651+257243443+261055534+262031658+261678131
3887+263852252+268444476+271620812+272204263+272104380+270501920+265862032
3878+261478852+261620910+266152987+272117054+277439324+280367555+278906270
3868+274870938+272721835+273513552+274133292+272124256+268992780+267761351
3858+270499739+278390117+290456865+298630563+293467405+280606569+269706274
3848+264323009+264657957+269378597+276223251+283296930+289786967+294316672
3838+294325467+289853866+284592402+281020468+278491055+275957072+274140650
3828+274056506+275610073+279147795+285827139+293802908+297075247+294340530
3818+290696883+287459361+281952563+274970629+270584350+271249348+276573540
3808+283347520+287819051+290776041+295479626+300447348+300668062+296838570
3798+293435513+290907659+287684265+284560338+283504329+284912496+288039626
3788+292363490+297333670+301883511+305711340+310069138+315572681+320439984
3778+323088064+325227124+329941514+338897838+351944951+366923672+380371041
3768+390919593+399991330+408378938+416002116+423739978+431697308+437367720
3758+439301614+440913753+446796186+458241133+471746779+480145467+481213855
3748+481556145+486841086+495838583+502155726+504579318+508766301+518582142
3738+533874689+550993164+564041869+569147650+568227259+566760970+568669898
3728+573949126+579548898+582681482+583536081+583129281+581088215+577960168
3718+576465588+579055737+586121002+595469168+601915644+600913602+593712322
3708+584400930+576507626+573114195+575048747+578973082+580182472+577571131
3698+573378228+570443226+571137398+576374831+584651008+592189834+594983625
3688+592988475+590117534+588561873+588240602+589913511+595446175+605868131
3678+619404526+628905813+626736350+618125951+612306920+609321432+603595963
3668+593849723+584161102+577000440+572621970+571123755+572799642+577183203
3658+581435180+581712267+579570228+582003759+592790546+607302043+613204664
3648+603964674+588006937+574676020+566899236+563567927+561842142+559752148
3638+558143576+558986195+562357568+567099589+573855563+583693289+591544660
3628+588316643+576824673+568206102+568474012+577617670+590976220+600252223
3618+600651336+597176912+596507499+598985075+601202324+601971324+602291487
3608+601534398+598819626+596209843+596410681+599330516+602640045+605131610
3598+607799428+611352179+614562466+615900184+616350130+619060331+625259223
3588+630745902+630063400+624889681+620582058+618666551+617526554+616596468
3578+617044544+619045649+621306044+623389562+626748885+633122436+642291164
3568+650814649+653399777+648079585+638642635+630251772+625335749+623040451
3558+621700655+621539569+623680638+627354653+630383563+632373242+634628512
3548+636360702+634692018+629620588+624791894+622400194+621532990+621029649
3538+620890240+621081936+621043154+620680538+620584413+621157354+622223734
3528+623273422+623809451+623594139+622869392+622186890+621807722+621443860
3518+620539813+618790308+616599653+614878612+614115844+613974427+614061826
3508+614483377+614973906+614292235+611858359+609318454+608813520+610263222
3498+611735017+612021730+611540273+610953896+610402424+609855799+609081050
3488+607622691+605763349+604880632+605774984+607022324+606138292+602573768
3478+598186018+594841307+592808552+591612183+591429351+592692551+594808412
3468+596308046+596399393+595599712+594744074+594012956+593057730+591739957
3458+590616512+590560693+591544452+592100911+590755506+587910189+585285863
3448+583727431+582749282+581919337+581468907+581717184+582663822+583769884
3438+583904792+582448233+580598448+580281887+581560392+582279530+580979417
3428+579094139+578739141+579322886+578379711+575440381+572788388+572280130
3418+573411747+574467357+574294740+572908752+570949164+568844869+566566642
3408+564282424+562894186+563253962+564895915+566017455+565205205+563049869
3398+561532679+561951495+563733895+564965481+564240768+562232564+560879056
3388+561186337+562579632+564035013+564792691+564344234+562747055+560684243
3378+558651038+556464815+554010543+551970482+551157574+551357858+551502565
3368+551095418+550833983+551429328+552537295+553418072+554058675+554883599
3358+555534244+554961718+553044133+551104144+550319665+550595297+551253006
3348+551762511+551634252+550755933+549988941+550378843+551745578+552754649
3338+552524760+551751742+551720577+552383827+552191819+550169383+547356823
3328+545543189+545379022+546298789+547577122+548838106+549887206+550547512
3318+550683631+550337567+549847281+549685468+549969342+550250030+549971800
3308+548989704+547644679+546528922+546084412+546241481+546598626+546858122
3298+546805247+546354020+546001584+546388024+547071634+546981395+546382760
3288+546820240+548833673+551232092+552703886+552896448+552048636+550701741
3278+549553850+548961205+548920311+549413575+550270183+551052203+551564651
3268+552132606+553001784+553904861+554497229+554609594+554025710+552721927
3258+551166542+549858015+548973256+548510048+548413091+548611990+549010030
3248+549368456+549301695+548555721+547280713+546009167+545296644+545178184
3238+545095563+544575013+543754902+543089506+542886452+543088156+543063501
3228+541976726+539884343+537940373+537116141+537191005+537221443+536605736
3218+535404623+533983557+532729706+531968947+531809316+531984252+532081555
3208+532015209+531981274+531947928+531621601+530960187+530325436+529918255
3198+529520562+529055691+528788681+528726975+528440020+527640062+526371183
3188+524646853+522565620+520629717+519298786+518498032+518092167+518259485
3178+518838971+519081847+518541074+517518429+516378051+515099061+513550844
3168+511715707+509910626+508885695+509007964+509473803+509127739+507833271
3158+506411859+505610620+505467541+505298248+504347835+502718799+501303101
3148+500734834+500807793+500856652+500375715+499233710+497532164+495678016
3138+494563263+494840904+495938759+496679192+496720503+496356675+495521467
3128+494146525+492718499+491715280+491234862+491236455+491359624+490845860
3118+489342451+487449036+486121014+485797561+486127800+486348480+486011592
3108+485308417+484594543+483863147+482876030+481698497+480860103+480708817
3098+480700091+479926000+478421691+477148068+476563734+476158492+475566505
3088+475179650+475309190+475565397+475489113+475216286+475079543+474899135
3078+474261960+473353446+472789750+472642134+472412868+472016663+471868459
3068+471832343+471118745+469581402+468092086+467328522+467063693+466812438
3058+466467066+466129936+465842218+465647267+465561461+465356953+464711225
3048+463759185+463105423+462998252+462917328+462338535+461460874+460761404
3038+460271568+459726571+459081951+458462366+457780626+456865672+455957573
3028+455574354+455773841+455991543+455719442+454984618+454168040+453657704
3018+453534604+453415972+452859755+451930534+450970218+449972851+448735898
3008+447440910+446523359+446094362+445847990+445362551+444368543+443068291
2998+442188726+442173594+442409821+441919569+440680019+439474058+438632028
2988+437817354+437000325+436772374+437392963+438101020+437894573+436756273
2978+435529466+434772481+434352937+433942951+433397815+432753161+432131810
2968+431608871+431127102+430588511+429958227+429260800+428563131+427928865
2958+427376423+426981153+426888526+427020351+426969588+426434805+425565628
2948+424684158+423856845+422884410+421625849+420280894+419313376+419046954
2938+419375739+419873990+420104088+419826759+419084144+418146232+417265212
2928+416440946+415492126+414330003+413125530+412251678+411991282+412156661
2918+412139625+411581815+410800626+410270795+409976879+409593522+409043538
2908+408601902+408547953+408799728+408908353+408508409+407691415+406779127
2898+405915836+405108330+404479292+404236279+404373125+404435731+403772066
2888+402252590+400551979+399454159+399124196+399244456+399506723+399726605
2878+399749910+399523171+399181573+398864388+398438508+397626743+396479855
2868+395440208+394810651+394509395+394427571+394560158+394688521+394441006
2858+393799122+393109106+392546656+391989608+391406486+390945113+390592782
2848+390120813+389461026+388845043+388481146+388296479+388040688+387536343
2838+386851348+386250496+385921781+385763742+385484197+384878082+383985462
2828+383003850+382094852+381351891+380914584+380868703+380979164+380827323
2818+380311724+379764961+379516892+379508131+379350854+378741693+377841247
2808+377130316+376808560+376525379+375875149+374997627+374436874+374429360
2798+374559627+374214117+373249507+372116990+371415755+371329602+371405020
2788+371000609+370025438+368990847+368336254+368050303+367910167+367748007
2778+367489723+367103180+366507246+365623698+364623872+363852725+363358144
2768+362840433+362171644+361571312+361193737+360903180+360513970+360018005
2758+359543855+359189238+358895114+358487898+357871188+357155478+356585134
2748+356304134+356164344+355871537+355367157+354877978+354545142+354222970
2738+353687634+352888334+352005687+351319930+350911571+350543034+350023938
2728+349540404+349355910+349377344+349289426+348955827+348468969+347937580
2718+347390574+346801773+346117609+345315539+344429949+343522785+342725459
2708+342248816+342173987+342270735+342237458+342065153+341902094+341677779
2698+341244766+340801711+340717151+340921036+340865494+340181676+339104944
2688+338147744+337557073+337222574+336994624+336874259+336847458+336718506
2678+336276213+335542186+334724395+334034587+333641637+333594060+333641811
2668+333380998+332770244+332241452+332102458+332110700+331853766+331307557
2658+330795559+330545481+330443435+330202707+329727137+329222584+328887843
2648+328638388+328276049+327797017+327366912+327078779+326849270+326518684
2638+326018668+325448635+324986396+324741859+324697121+324751520+324824272
2628+324893076+324900452+324708790+324252161+323634308+322999003+322431602
2618+322009842+321785008+321696051+321634137+321553144+321429560+321202752
2608+320851389+320456986+320098906+319735666+319300749+318885396+318665617
2598+318621017+318506782+318164908+317694359+317247945+316849039+316510143
2588+316346737+316390714+316411525+316159577+315734286+315464990+315449096
2578+315458480+315297706+314999081+314639616+314228384+313868746+313779511
2568+313971692+314074985+313717944+313011272+312445014+312328078+312493873
2558+312564893+312366237+312010581+311680134+311463125+311366065+311342796
2548+311299823+311154320+310895689+310592805+310382583+310371087+310445570
2538+310296396+309772660+309123538+308759780+308838245+309145838+309329259
2528+309206055+308904141+308717535+308788936+308924813+308796935+308347024
2518+307870172+307642845+307604893+307512924+307300036+307136630+307179706
2508+307388750+307585017+307609672+307436467+307177663+306936346+306660991
2498+306261774+305852446+305689698+305852723+306142691+306315342+306272612
2488+306027140+305643644+305259593+305023401+304968933+305049302+305265445
2478+305608047+305923916+306033823+305927898+305678721+305279642+304748738
2468+304280613+304100379+304191621+304319292+304335220+304296092+304234732
2458+304053355+303750990+303500359+303401256+303393326+303417323+303435294
2448+303377709+303265586+303246541+303387543+303572556+303643819+303519646
2438+303207066+302825440+302599567+302707465+303065406+303334390+303256929
2428+302930880+302630489+302471411+302411783+302440836+302586512+302828314
2418+303101626+303312402+303358664+303256618+303188887+303290414+303472276
2408+303601505+303733746+303973955+304212571+304216380+303945180+303609157
2398+303422620+303418673+303520096+303689215+303925130+304163469+304291105
2388+304247890+304017689+303545409+302738976+301487133+299613179+296936046
2378+293523016+289826147+286395319+283400274+280533489+277444033+274186774
2368+271215899+269047336+267877715+267396207+267175926+267426177+269004190
2358+272483618+277549334+283566675+290414169+298040619+305338647+310436359
2348+312108853+310712615+308124301+306231129+305170740+304043244+302632878
2338+301292459+300056891+298679560+297168983+295883102+295133700+294844563
2328+294681469+294423116+294087128+293837120+293883278+294339075+295085430
2318+295857063+296483330+297011360+297609060+298346862+299081201+299623463
2308+299996259+300387477+300864883+301293879+301532633+301561201+301422900
2298+301190690+301008966+301024583+301210774+301360502+301341838+301290728
2288+301434915+301766540+302021189+301986665+301703969+301337440+300970149
2278+300597110+300239965+299963433+299773676+299590255+299361612+299134319
2268+298954188+298786039+298586309+298360782+298127326+297927838+297864609
2258+298004260+298261160+298461443+298507948+298458465+298453237+298545968
2248+298630840+298590603+298468300+298418956+298539147+298772742+298928149
2238+298841789+298602376+298499810+298667371+298925863+299063541+299109699
2228+299209737+299341736+299320440+299089788+298862045+298858479+299008692
2218+299059490+298908827+298673016+298492573+298445584+298585859+298876346
2208+299125939+299170955+299079816+299029641+299045916+299017660+298908377
2198+298806019+298807646+298951314+299204508+299448076+299529900+299403788
2188+299185810+299026282+298951868+298886181+298801621+298766405+298827176
2178+298933516+299028360+299128640+299230444+299220402+299031338+298832128
2168+298869213+299132830+299375255+299448215+299431178+299438831+299488902
2158+299568960+299680979+299795941+299876345+299966895+300163890+300457320
2148+300686414+300713804+300597491+300536824+300657500+300877037+301010248
2138+300995531+300954255+301012845+301151803+301276358+301375807+301554449
2128+301879840+302231895+302412753+302423937+302465075+302639803+302869278
2118+303097921+303363789+303669028+303955048+304177632+304305372+304330961
2108+304350387+304519229+304867233+305255126+305560746+305808573+306065472
2098+306311221+306483561+306581556+306674530+306851198+307157545+307525666
2088+307783674+307807670+307670997+307601569+307746103+307997808+308138533
2078+308140784+308198404+308447477+308800051+309074125+309195944+309281438
2068+309524729+309926855+310205223+310128316+309841464+309667289+309713136
2058+309845342+309925608+309938663+309967680+310109652+310377216+310684498
2048+310942990+311137318+311325170+311576460+311858325+312017680+311980317
2038+311886062+311906699+312026856+312109996+312103520+312096560+312199472
2028+312413088+312653227+312854169+312982774+313080181+313390163+314159510
2018+315115429+315526003+315071037+314249610+313704163+313589616+313714620
2008+313903200+314088178+314247914+314351380+314386422+314423162+314525416
1998+314684666+315079105+316130490+317820228+319219825+319354733+318351236
1988+317103376+316225334+315836817+315862233+316106632+316309375+316353109
1978+316321702+316344729+316441512+316510593+316576662+317012584+318126921
1968+319441197+319938305+319329178+318443172+318081941+318208330+318457473
1958+318773342+319209818+319584761+319681233+319565128+319522501+319793909
1948+320516995+321908523+324102572+326404865+327246271+325876523+323532954
1938+321919535+321475683+321643210+321923759+322197903+322451235+322619974
1928+322838056+323694629+325601271+327807716+329109180+329640638+330315903
1918+330712938+329623601+327510061+326190903+326530631+327815300+328796358
1908+328827383+328193394+327544757+327188340+327048100+327074555+327450987
1898+328405728+329737490+330741402+331234666+332136255+333895940+335144596
1888+334452745+332584434+331217872+330807990+330845110+330955883+331075589
1878+331228399+331467707+331919281+333165133+336334872+341797000+347326306
1868+348959809+345636187+340657212+337364061+336406862+336666981+337006189
1858+337016023+336838420+336758535+336970419+337695617+339247954+341822659
1848+345584800+350572156+355268989+356215973+352316812+347195103+344332404
1838+343958672+344478461+345080247+346811088+350913164+356254998+359552754
1828+359599362+358478584+357246271+354861184+351506120+349169789+348844051
1818+349549511+350062374+350628217+352402757+355426127+357918662+358183352
1808+356690712+355435996+356149731+359349908+363834684+367085243+367501843
1798+366262085+366076414+368815945+373986132+377863097+376413948+371120489
1788+366952067+366241136+367800052+369751537+371599210+373190745+373875532
1778+374070726+375867912+381054028+388862461+395147193+395873464+392010765
1768+386839644+382455806+380635627+382384162+385869493+387746288+387663944
1758+387532257+387578865+387769592+390308077+397026896+405588194+410452692
1748+409388806+405528462+402460561+401618635+402781590+404540167+405233611
1738+405699451+409336726+417234255+423724777+422108206+415230656+408366091
1728+403121040+400221220+400088390+401883499+405207883+411737361+422941960
1718+435707553+441678875+437209716+428183583+420628482+416979157+417965478
1708+423194981+430248610+435750457+439840206+446229062+455823116+463323782
1698+464673031+461415027+454157825+444894010+438913651+438701421+442677593
1688+449335606+459872940+473636662+481440351+476276016+466210444+459852337
1678+459478571+463769850+468963791+472195998+475176984+479695556+482174898
1668+478559472+472835285+471303828+474487695+477630667+477098689+475467679
1658+477636519+486594852+502940171+520770857+525223292+518041923+515120841
1648+519241686+521878997+515503126+505323457+499228447+499365016+505450123
1638+516649840+528744739+532274116+524449824+515141064+511633952+513890468
1628+518521475+522924046+526938273+529955271+530161096+528944469+530599822
1618+536271930+540880118+538983032+533698125+530744460+531456014+533989756
1608+536104646+537059318+537602065+538532948+539757296+540810482+541815710
1598+543329438+545421856+547458766+548858259+549704894+550415686+551151272
1588+551869024+552696233+553844818+555239947+556793289+559320763+564492612
1578+572732223+580203491+580997215+577174927+576165059+580047980+584401692
1568+584649623+582486808+581751742+584353006+592453416+609025923+630652686
1558+639331993+629432354+616844606+609056395+605992789+606172642+607634395
1548+609897975+615250093+625894840+641111138+657897365+670412604+669551841
1538+657965788+649469174+649414117+653897439+656553484+656928288+659847361
1528+667275241+676586426+685261162+694338889+704291162+711538773+714007138
1518+714236301+713470208+711316189+709836500+712634100+721868758+737470804
1508+754833296+760523653+747712352+732117785+725310425+727068240+733649623
1498+740288558+742497357+740265773+738905894+742946195+751766920+759250896
1488+759244178+753199170+746973754+743901421+743892141+745754184+749397796
1478+755796071+765244033+776367466+785739109+788390998+783365415+776786039
1468+774355833+776656257+780312543+781897291+782680974+787008473+797093229
1458+809530626+814653789+808451711+798726524+791723589+788802993+789046145
1448+789902060+789086313+787002794+785451842+785305092+786961380+791060894
1438+796877294+800789336+799981414+797098700+795740275+796025880+796205041
1428+795798518+796009605+797455429+799641167+802740994+807428270+811565805
1418+810346650+803672812+796815519+792944752+791488748+790781452+790320911
1408+790920723+792951123+795136792+796244101+797339220+800112790+804060290
1398+807311784+809211155+809906746+808977560+807058798+806547631+808643269
1388+811145153+810676578+807828353+806906784+810280720+816429956+822749558
1378+828447048+834197102+839726442+843138814+843574494+842912837+843178151
1368+844554097+846918788+850931319+856069233+859405979+858675276+855423505
1358+852704855+851546921+850898561+849791530+848559286+847861271+847665074
1348+847649214+847665143+847680033+848142375+849986620+853160687+855642695
1338+855360068+852799248+850188635+849019759+849458486+851021765+852936718
1328+854344037+854825978+854804717+855217543+856652217+858803466+860921127
1318+862750551+864657263+866813568+868828386+870313062+871384219+872395264
1308+873422792+874309387+875137461+876244770+877620439+878704409+879079837
1298+879100752+879505821+880455160+881173605+880678644+878668120+875570855
1288+872137222+869184007+867276672+866375395+865960908+865454589+864472354
1278+862989132+861387694+860162029+859567203+859512008+859594282+859477519
1268+859487422+860412869+862467924+864727902+865886875+865683682+865250358
1258+865631672+866511272+867204855+868184112+870299973+873157063+875688796
1248+877787827+879946694+881990530+883553532+885076437+887182047+889574994
1238+891469171+892700445+893692030+894637283+895198382+895099487+894989095
1228+896272379+899694031+904412749+908833672+911990426+913891875+915052024
1218+915922898+916677425+917501275+918798202+920669941+922547635+923909385
1208+924912673+926023998+927725232+930618127+934885860+939489477+942673794
1198+943802363+944155768+945364673+947584831+949788575+951248734+951762533
1188+951329208+950894914+952311305+956162611+960311434+961869519+960595723
1178+959166936+960035871+963160629+966894272+969986827+972046453+972997246
1168+973066362+972765660+972488919+972617386+973685289+975949076+979223147
1158+983085049+986574363+988309324+988003358+987105405+987017106+987781813
1148+989099793+991280822+994741395+998902545+1001904516+1002247671+1001120002
1138+1001816147+1005665860+1009810944+1010298425+1006868740+1003224227
1130+1002622822+1004874213+1007584415+1009229415+1010349050+1012091075
1121+1014726274+1017637937+1019889951+1020693510+1020088019+1019129400
1113+1018957302+1020100900+1022789702+1027070386+1032051785+1035682724
1104+1036424300+1035316022+1035527248+1038845987+1042838296+1043223696
1095+1039582023+1035653291+1033621782+1032068129+1029841877+1027976372
1087+1027581691+1029152865+1033137902+1039075427+1044670351+1047715329
1078+1047873090+1045968941+1043432637+1042258913+1043196272+1044818140
1070+1045668446+1046045190+1047561792+1050814117+1053790255+1054419293
1061+1053606939+1053467807+1053532767+1052285634+1051490178+1053747109
1053+1057841845+1060699212+1061916289+1063184821+1065172215+1067256357
1044+1069121239+1071120960+1073042700+1073741823+1072585552+1070077434
1035+1066856205+1063694326+1061531788+1060492211+1059938383+1060107156
1027+1062214429+1065761708+1067695707+1066125571+1063036686+1061823973
1018+1063506023+1065832902+1065566203+1062056598+1058176621+1056659742
1010+1056974780+1057174579+1056586193+1055277562+1053271332+1051433251
1001+1051229643+1052610022+1053619127+1053125759+1052425943+1053251110
993+1055435393+1056723386+1054721103+1049531179+1044128089+1041478209
984+1041719283+1042847576+1043566021+1043513180+1041635416+1037717002
975+1034505261+1034846754+1037771575+1039536315+1038142294+1035107358
967+1032894473+1031812026+1029767706+1025116581+1018878699+1013251364
958+1009394171+1007223322+1006189631+1005996412+1006180836+1005860534
950+1004524686+1002109232+998727055+994638414+990522556+987135670+984296516
940+981247938+978028786+975740067+975249607+976192021+977465332+978010987
930+977261239+975537290+973763338+972019651+969250099+965748042+964368703
920+967080358+971520950+973260690+970861094+966535396+963144770+962516909
910+964757151+967898114+969544915+969211524+968133718+967204670+966193833
900+964830906+963414169+962155124+961073925+960354995+959483982+956943870
890+952619140+949154897+948888614+950897130+952899759+954564081+956702726
880+958607014+958657362+956882095+954888399+953461620+951400125+947141187
870+941236419+936544156+935659847+938420258+942532999+945913307+947760114
860+948353347+948297112+947738714+946371494+944280357+942360556+941583245
850+942100090+943304147+944837717+947234957+950355976+952131659+950772264
840+947422291+945023249+944847274+945672925+946058879+945632826+944375513
830+942508345+941474031+943165500+947397151+951360857+952576618+951925073
820+952041143+953294856+953622775+951869323+949021513+946466857+945371876
810+947229971+952475645+958617194+962100690+961964952+960009000+958374319
800+957941618+958238027+958525017+958900445+959820489+961382869+963484740
790+965353223+965100860+961675745+957034454+954526476+955292637+957286956
780+957697150+955832614+953544241+952716235+952776833+951743626+949561005
770+948517480+950311861+954089411+957312580+958388101+957985248+957183767
760+956035321+954829533+955336129+959001902+963736410+964865049+960853557
750+955337929+952278617+952572878+955342569+959447000+963846801+967864318
740+970431232+970084060+967185971+963513757+959780253+956018423+953378238
730+953386064+955582397+958354166+961305858+964547102+966710471+965862381
720+962363026+958994285+958135114+959785862+961976864+962283938+959824091
710+956625992+954942902+953828945+950800104+946465680+944184994+944695953
700+944945823+943598201+943491688+946163038+948442062+947311484+943932354
690+940246427+936596720+933760545+932276008+930060491+925118913+919564017
680+917040318+917885152+919300158+918603598+915052648+908821830+898906193
670+884626422+872018936+872134037+884850252+901195259+914672857+920602695
660+917478491+909620818+902622938+897761487+893213413+887982974+882739932
650+879901263+883101440+892600650+902927727+908737893+910190781+909143724
640+904918167+897684199+891023104+887544040+885983946+884200923+881949947
630+879926195+877290857+872570963+867462966+865019948+864423114+863331942
620+863134290+867573219+876156955+882702257+882973458+879912413+877805625
610+876365757+873937698+872137638+873799674+878418042+882353700+883105180
600+881843780
##END=
