##TITLE=<SNM>
##JCAMP-DX=4.24
##DATA TYPE=INFRARED SPECTRUM
##DATE=2/5/2025
##SAMPLING PROCEDURE=Instrument type and / or accessory
##ORIGIN=Admin
##XUNITS=1/CM
##YUNITS=ABSORBANCE
##RESOLUTION=4
##FIRSTX=4497.3318
##LASTX=599.83466
##DELTAX=-1.4281778
##MAXY=1.8110769
##MINY=0.34832582
##XFACTOR=1
##YFACTOR=1.6866968e-09
##NPOINTS=2730
##FIRSTY=0.36587271
##XYDATA=(X++(Y..Y))
4497+216916706+217804629+218473985+218566465+218358995+217969834+217204888
4487+216106386+215124270+214661023+214696591+214870437+214862821+214836371
4477+215422117+216925099+218691491+219698592+219537768+218508140+217168632
4467+216217277+216301523+217374776+218500931+218723702+218079718+217428702
4457+217445011+218086980+218727324+218472130+216851985+214567518+213027202
4447+212949688+213948466+215302127+216427344+216897747+216725934+216413068
4437+216351686+216528782+216869018+217309613+217494820+216983195+215963090
4427+215342624+215842481+217165575+218206123+218083146+216900999+215486927
4417+214591707+214440231+214898742+215832746+217144072+218466706+219080846
4407+218497326+217099440+215800676+215077041+214748308+214572466+214479049
4397+214223237+213431293+212232660+211402303+211574347+212536250+213498170
4387+214058632+214657507+215712296+216614848+216230935+214373954+212110161
4377+210550532+209957399+209947310+210067813+210152784+210263321+210385697
4367+210402783+210354723+210449889+210791149+211250190+211608554+211772028
4357+211766445+211490048+210807581+209984486+209505726+209437011+209494382
4347+209578787+209717383+209742862+209434979+208844020+208330981+208238396
4337+208413867+208304354+207692740+206953609+206513738+206517448+206906945
4327+207409629+207666873+207516951+207016758+206513596+206665674+207738715
4317+209023661+209586049+209368702+209136549+209566949+210563253+211332263
4307+211181228+210249681+209363543+209338771+210371456+211771339+212403131
4297+211662657+209942540+208186625+207215552+207345049+208326352+209533537
4287+210281803+210195507+209460775+208654608+208237547+208233908+208374818
4277+208474542+208558983+208640419+208619252+208511700+208463358+208469772
4267+208475284+208685917+209315854+210202893+211050177+211694655+211868236
4257+211242434+210069686+209253977+209391142+210088256+210608998+210858061
4247+211113273+211159902+210645520+209974256+209813626+210042988+210103558
4237+209918139+209702400+209391707+208866778+208359853+208296668+208929008
4227+210090606+211147339+211442324+211029875+210713034+211042773+211490401
4217+211074896+209814969+208902504+209174731+210036875+210341277+209792141
4207+208941571+208303577+208104782+208519969+209496202+210599245+211409212
4197+211786393+211625622+210876296+209944642+209493711+209637872+209820535
4187+209593841+209079637+208695017+208769810+209296983+209832656+209925807
4177+209760884+209959820+210670381+211384316+211773283+212093110+212479850
4167+212518952+212017681+211484800+211290688+211201318+211182324+211612724
4157+212306216+212424493+211680237+210728565+210301398+210520583+210942413
4147+211011270+210578537+209989769+209641441+209686780+210083821+210620360
4137+211021518+211226938+211412816+211705575+212055934+212359948+212579486
4127+212781425+213014975+213129382+212875955+212230469+211437200+210692414
4117+209993886+209397927+209145471+209311843+209577815+209601474+209411638
4107+209247916+209270674+209587551+210272951+211194197+211987484+212315599
4097+212123448+211665643+211241038+210912358+210559454+210105060+209637519
4087+209426939+209779684+210685876+211648663+212115055+212080971+211983473
4077+212019412+211989834+211842863+211835937+212004288+211926579+211235101
4067+210121492+209197206+208904890+209103172+209328735+209411921+209503217
4057+209592039+209566065+209663439+210244981+211137038+211650041+211363308
4047+210689499+210499274+211203067+212328426+213080651+213097242+212531267
4037+211735400+211065160+210766359+210856259+211101134+211173401+210962397
4027+210729784+210777278+211015280+211121719+211041219+211035211+211304788
4017+211768282+212154846+212193117+211775120+211084773+210569808+210669020
4007+211444179+212468135+213178060+213384823+213367720+213434756+213569800
3997+213655584+213802219+214148338+214531014+214721681+214819956+215047710
3987+215289988+215219754+214816652+214403567+214209826+214223414+214418286
3977+214740834+214933798+214780006+214433357+214211293+214237425+214442704
3967+214695160+214925387+215290076+216036965+217132004+218259713+219090600
3957+219332577+218914210+218411419+218864683+220782287+223308766+224632301
3947+223854687+222274862+221793964+222420508+222383014+220704526+218448789
3937+217327741+218346132+221452138+225370408+227844287+227409257+225287010
3927+224157499+225141665+226850845+227541086+227430690+227785908+228691146
3917+228836810+227169347+224148841+221276119+219835014+220236367+222464115
3907+226855739+233654611+241407558+246801724+247577660+244365321+238917230
3897+233005185+228750885+227968005+230631667+233923834+234649873+233906554
3887+235180474+238650216+241176642+241792496+242160666+241472156+238069328
3878+234618192+234950529+238931206+243880465+248223640+250920361+250522489
3868+248482916+248161445+249551487+249236447+245747924+241784245+240572007
3858+243861082+252482516+264800703+272095987+265958026+252887632+241996803
3848+236518021+236627180+240887894+246963749+253245695+259398322+264393768
3838+265752234+262888807+258449936+254475814+250894475+247673090+245790913
3828+245535966+246210800+248475919+254162330+261780798+265451578+263549187
3818+260676306+258305686+254038664+248274916+244477043+244919758+249392253
3808+255003076+258310191+260315522+264538141+269959005+271496406+268612076
3798+265123623+262093187+258867844+256519098+256545867+258745027+262075235
3788+266201205+270939866+275232667+278556303+282399939+288142396+294461465
3778+299272817+303467731+309915060+320463833+334952592+350912122+364707901
3768+375325549+384562431+393169482+401065567+409250540+417588386+422908147
3758+423266087+422312665+425611864+435726015+450059109+461314998+466271130
3748+470934981+480135677+491191976+497571668+499649512+503952631+514434934
3738+531028041+549353350+561418057+563012547+559183771+557210563+559395234
3728+563963142+568468536+571612990+572919793+571546166+567291495+562209666
3718+559051607+559144334+562852466+569716148+576085344+575718499+567545399
3708+557202576+550049157+548080825+550151143+552982042+554114840+554167776
3698+554928429+557234381+561041954+566287858+573021955+580295206+585045352
3688+584461249+579801639+574562838+571308305+571375731+575116197+581955319
3678+590239557+596341597+596855908+594506844+594295946+595191978+591207821
3668+580780645+569460865+562251294+559742290+559253246+558606241+558299718
3658+558718545+558169108+556781841+558696918+566929951+578434373+583490052
3648+576133828+563103967+552384722+545807844+542009247+539684248+538728600
3638+539521516+541808102+544803465+548504847+554194280+561835329+566325352
3628+562030537+553012291+546932620+546746848+551825462+559639632+566250152
3618+569147982+569893898+570880043+572142708+573210732+574993821+577490704
3608+578552402+577344157+575834620+575783698+577291892+579972499+583745017
3598+588003257+591071698+591622973+590486323+590513144+594342804+601767408
3588+608744136+610887816+608628864+605235135+602664925+601515447+601719843
3578+602386955+602556931+602372467+602691145+604158878+607288490+612134332
3568+616776202+617899741+615135313+611780809+610196532+609787458+608811561
3558+606671699+604552049+604177536+605754251+607335913+607154629+605822242
3548+604973986+604906844+604462220+602553327+599383429+596538572+595889623
3538+597704799+599834131+599772219+597587477+595654625+595792161+597807845
3528+600376642+602041207+601616443+599215432+596512210+594810751+593769974
3518+592622404+591316273+590104459+588956007+587812926+586960359+586593832
3508+586234974+585189673+583369867+581180531+578994552+577382499+577204961
3498+578694497+580729794+581293436+579173681+575448516+572696138+572504712
3488+574095385+575440671+575280943+573682460+571154090+568198341+565725664
3478+564851188+565771533+567319306+568231665+568389874+567986702+566415888
3468+563235672+559687798+557737277+557713459+557974254+557120451+555742548
3458+555031192+554859413+554433271+553535189+552395748+551486075+551340199
3448+551555196+550759311+548507109+545964745+544304032+543726749+543955068
3438+544533835+544807705+544548819+544327178+544642995+545113345+544880679
3428+543301455+540239374+536626513+534474282+535229705+538086542+540600564
3418+541144382+540099258+538736409+537833980+537378119+537001980+536437773
3408+535628495+534602241+533353994+531908207+530510868+529593138+529396799
3398+529715089+530252052+531004541+531867780+532151474+531086773+528978255
3388+527113216+526216548+525777366+524972046+523531241+521724370+520235434
3378+519823498+520477748+521310985+521667899+521748576+521919577+522155106
3368+522455338+523244720+524831754+526669476+527699440+527531231+526618837
3358+525351224+524068663+523618527+524566930+526153752+526971829+526337863
3348+524560145+522549337+521417988+521652457+522662242+523716872+524731429
3338+525473812+525080357+523275853+521025594+519424036+518956973+519637019
3328+520700342+520770842+519439479+517933193+517596386+518564897+519869332
3318+520118218+518784276+517149147+516938921+518189394+519449657+519650836
3308+518861348+517684201+516632539+515926449+515673004+515983449+516649290
3298+517108755+517043062+516576104+515941574+515487762+515698801+516650244
3288+517842091+518899796+519841026+520557788+520798830+520754092+520989337
3278+521743169+522643761+523009722+522316919+520694017+518967645+517803679
3268+516931888+515685372+514181595+513355850+513803195+515104874+516365101
3258+516978747+516695936+515517481+513977412+513048797+513294079+514366201
3248+515446487+515890086+515578086+514849521+513919493+512595728+510896390
3238+509430283+508682317+508319748+507675252+506727802+506179956+506457113
3228+507020932+507071289+506527329+505753319+504840254+503819584+503098156
3218+503043382+503365948+503275766+502297360+500806481+499465012+498245636
3208+496616090+494633270+493116347+492683102+493215859+494170164+494862544
3198+494758862+493987431+493162145+492451850+491461888+490205761+489330648
3188+489082257+488864079+488104699+486951617+485967911+485580464+485804295
3178+486175628+485990810+484755461+482508983+479884670+477725831+476403692
3168+475556708+474563284+473193085+471760266+470679522+470070010+469891482
3158+470109094+470497530+470590576+470060610+468947142+467601362+466525882
3148+465871209+465147202+463951997+462671804+461898571+461609435+461290721
3138+460409954+458811259+457087467+456191788+456256880+456313209+455486651
3128+453956441+452531574+451788697+451821243+452458071+453309118+453722751
3118+453238972+452080660+450885844+450138691+449958254+450018541+449711701
3108+448808530+447667533+446550814+445384587+444364305+443940354+444041456
3098+444052023+443613972+442923819+442259074+441575458+440639741+439439907
3088+438352165+437774352+437679893+437729932+437732618+437679823+437417932
3078+436762976+435994408+435692903+435879524+435857367+435160994+434132338
3068+433350482+433020672+433043995+433129619+432764082+431684115+430423570
3058+429716490+429397493+428663450+427387109+426346190+426149852+426582496
3048+426964889+426738655+425799262+424521013+423383798+422600953+422162266
3038+421991936+421940201+421793160+421398539+420761853+419996642+419159906
3028+418226451+417316106+416708220+416407140+415980998+415126205+414106877
3018+413321877+412738587+412109286+411473660+411035750+410765166+410502816
3008+410238028+409955217+409422283+408377583+406849670+405313700+404472018
2998+404522233+404721328+404191539+403031531+402082208+401806501+401876470
2988+401673877+400905026+399814068+398917188+398514581+398462351+398393618
2978+398115225+397783860+397693147+397891500+398021968+397526634+396102367
2968+394081983+392283203+391361303+391327414+391661323+391813277+391616479
2958+391210445+390624822+389757731+388810034+388260103+388240596+388347600
2948+388227521+388006446+387914708+387735297+387004823+385764173+384679506
2938+384226189+384149258+383956453+383547556+383103215+382707464+382293584
2928+381731072+380902359+379854337+378797587+377808085+376718081+375490153
2918+374470650+374016732+374027793+374072177+373890292+373592039+373377536
2908+373202118+372834319+372232688+371648373+371244211+370854397+370283404
2898+369637105+369193966+369093358+369242520+369408150+369358783+369003423
2888+368402746+367677750+366990212+366507564+366212703+365856142+365287799
2878+364653056+364076975+363446367+362679212+361918383+361340570+361018251
2868+360971322+361130803+361295372+361266466+360973760+360467683+359883580
2858+359372521+358970232+358569180+358043455+357344962+356513492+355672199
2848+354975649+354480563+354094035+353714362+353367448+353120470+352932436
2838+352704400+352436502+352232919+352126374+351935655+351397950+350543263
2828+349780314+349396613+349178966+348814241+348392481+348136563+347907218
2818+347382836+346557197+345763504+345281457+345032288+344638162+343838744
2808+342852140+342174709+342017242+342086116+341924374+341372004+340676055
2798+340188036+340002123+339914202+339657541+339093934+338286918+337509303
2788+337057576+336942833+336871910+336567084+335966230+335108504+334028713
2778+332881356+332023488+331716436+331698908+331346693+330442144+329505013
2768+329126366+329276376+329519219+329600603+329486814+329065761+328223336
2758+327130435+326146693+325466470+325045735+324794835+324657687+324539199
2748+324285436+323777027+323053691+322323253+321799543+321532952+321386723
2738+321139144+320655931+320016948+319396199+318812343+318140531+317354611
2728+316606893+316096752+315944233+316089260+316263477+316160219+315662659
2718+314892960+314103754+313505587+313109694+312752638+312295752+311741297
2708+311182743+310696385+310243315+309714693+309157517+308805373+308755723
2698+308814349+308743107+308439730+307893827+307227139+306689576+306386940
2688+306177421+305984651+305935072+306035220+305989987+305523843+304725661
2678+303950591+303462466+303251285+303138309+302957202+302639760+302223760
2668+301795745+301389039+300980036+300587005+300267231+300010182+299724720
2658+299321407+298763136+298098002+297495170+297172604+297192782+297351238
2648+297363288+297131364+296732044+296268019+295910822+295859617+295983494
2638+295774911+294975811+293980655+293343280+293153019+293104482+292943023
2628+292633673+292246880+291899153+291756811+291881078+292052839+291952832
2618+291537927+291062365+290738615+290548902+290359278+290077492+289684285
2608+289205030+288723460+288384126+288262510+288239240+288113560+287818947
2598+287452049+287143371+286930565+286716009+286390793+286011156+285748223
2588+285670620+285676628+285613249+285414808+285158377+284961332+284818654
2578+284641098+284420270+284203966+283969091+283667834+283336610+283042191
2568+282781343+282526696+282322336+282225068+282159958+281964132+281609478
2558+281257281+281057515+281003148+280997529+280966590+280867873+280648282
2548+280278010+279842291+279508064+279345173+279293438+279306848+279363619
2538+279366322+279226878+279017270+278884682+278863320+278861942+278776918
2528+278580191+278355300+278237306+278248137+278221934+277992996+277638838
2518+277410536+277417745+277514889+277524236+277435520+277344277+277313798
2508+277344171+277389775+277365868+277201794+276925467+276647551+276436088
2498+276271624+276145326+276110412+276203546+276377179+276527667+276580320
2488+276560937+276542085+276488106+276261694+275833079+275347657+274958108
2478+274720159+274618297+274558929+274404289+274126461+273852114+273698799
2468+273675052+273760994+273941943+274115471+274102413+273843686+273501418
2458+273277163+273185107+273087327+272931079+272858848+273025026+273341902
2448+273527056+273425548+273149416+272861287+272600633+272386484+272290488
2438+272308864+272319766+272255733+272184156+272146468+272074237+271961791
2428+271953769+272116536+272269780+272213840+272008879+271888800+271987853
2418+272261705+272601976+272928818+273192776+273349217+273356974+273203041
2408+272927493+272633586+272464758+272522412+272775238+273072149+273279442
2398+273406306+273564603+273809001+274058382+274191359+274186836+274135879
2388+274103085+273980903+273496082+272379010+270530740+268023025+264955997
2378+261375665+257380817+253238098+249243586+245491034+241922788+238567966
2368+235601952+233240926+231627106+230745526+230581310+231437481+233829393
2358+237967413+243568288+250286059+258111998+266815098+274996909+280559937
2348+282215173+280428815+277326237+275125769+274186960+273416589+272074873
2338+270289380+268415790+266493946+264402584+262371157+260933073+260283912
2328+260084499+259948783+259763541+259588317+259587699+260024548+261011577
2318+262234504+263171388+263666828+264073304+264739657+265612879+266468485
2308+267254068+268036453+268811400+269505228+270045247+270358961+270392144
2298+270206389+270022860+270070143+270352689+270655147+270797206+270781357
2288+270704250+270657586+270679690+270699426+270599401+270377955+270141119
2278+269960347+269858291+269846841+269860040+269752542+269440665+268967329
2268+268448602+268035217+267848932+267868067+267926004+267876107+267728429
2258+267595505+267533009+267501611+267493060+267588808+267833312+268139146
2248+268367253+268436357+268344107+268151903+267968322+267896073+267944203
2238+267993217+267910879+267722156+267598031+267664184+267880065+268092623
2228+268164466+268087994+267999066+268032054+268157310+268209893+268076368
2218+267822835+267625878+267581846+267613138+267592165+267520305+267514669
2208+267622309+267738942+267759615+267735656+267789511+267920597+268004066
2198+267976025+267927859+267985125+268130718+268194945+268047408+267771365
2188+267582412+267576758+267630260+267571934+267403601+267294124+267377522
2178+267614234+267857943+268006434+268043680+267972527+267796843+267593791
2168+267506682+267599038+267790059+267980566+268152168+268294527+268343347
2158+268273166+268189344+268227385+268369002+268467154+268484593+268565747
2148+268789437+269001201+269012173+268850590+268704873+268695597+268794632
2138+268926867+269059102+269168792+269214873+269211675+269257084+269408932
2128+269602496+269748372+269839297+269937148+270110446+270378856+270686050
2118+270953312+271161949+271334769+271465821+271536250+271579804+271672884
2108+271863092+272129664+272405090+272638409+272833211+273000413+273106321
2098+273134962+273157915+273261738+273464296+273751241+274086741+274364551
2088+274496663+274547055+274630559+274740549+274803274+274804864+274776364
2078+274768695+274870169+275131158+275490070+275854370+276193439+276521164
2068+276856682+277175573+277352458+277251797+276920467+276581858+276440594
2058+276560019+276851964+277120693+277219887+277205292+277242273+277383573
2048+277548584+277695520+277908768+278275930+278703433+278938361+278844467
2038+278594203+278493949+278668572+278985784+279262976+279475818+279712141
2028+279972706+280155705+280229703+280284989+280460001+280918283+281705739
2018+282495563+282777544+282470632+282007898+281749576+281707171+281805092
2008+282016644+282274524+282514328+282737099+282937254+283103326+283267153
1998+283483298+283942376+285010770+286698976+288206411+288631705+288040340
1988+287188833+286559267+286218166+286144274+286264866+286464261+286716204
1978+287026295+287307392+287442843+287399077+287354675+287761222+288895062
1968+290199921+290631541+289948597+289004911+288536645+288432698+288363825
1958+288413174+288747207+289156900+289293640+289147023+289067070+289374211
1948+290130517+291371520+293193941+295132942+295907518+294776045+292705462
1938+291198098+290727342+290850478+291073231+291199883+291239956+291261159
1928+291420446+292143534+293743766+295663402+296978209+297799042+298755114
1918+299254194+298154260+296017719+294672027+294995441+296343448+297489516
1908+297682638+297077756+296317139+295791467+295466940+295289543+295478831
1898+296309842+297563761+298506652+298944703+299737866+301316701+302490209
1888+302014876+300513149+299363742+298952619+298956046+299172952+299507497
1878+299825823+300104923+300539794+301755848+304774640+309835726+314801293
1868+316078624+312890633+308365025+305460305+304646963+304912600+305266299
1858+305292237+305095121+305019073+305266193+305904399+307129888+309252223
1848+312627647+317341218+321929269+323171685+320010516+315675769+313326422
1838+313174610+313698462+314074212+315325569+318810152+323652919+326750268
1828+326754932+325575983+324475732+322684232+320114728+318154383+317607950
1818+317941507+318441647+319234245+320938212+323474179+325563261+325941485
1808+324902792+323966156+324547892+327184467+331077382+334196746+334896369
1798+333831491+333503448+336015173+341053784+344896448+343552929+338498911
1788+334498215+333761416+335261765+337307487+339309567+340974203+341717822
1778+342002647+343780966+348736391+356140287+361912375+362094473+357844537
1768+352682278+348725825+347418457+349382831+352740409+354434871+354365573
1758+354474661+354905503+355330585+357525858+363183663+370473805+374839827
1748+374374777+371506526+369134704+368560672+369765347+371558861+372355771
1738+372867431+376283140+383616041+389484956+387715649+381243795+375112460
1728+370688908+368426387+368560672+370238842+373197277+379315184+390196100
1718+402724584+408486248+403871341+394879846+387585781+384296052+385455318
1708+390448732+396994407+402182251+406348647+412865804+422211633+428982447
1698+429445129+425664200+418808681+410760325+405927452+406222561+410073494
1688+416194334+425917256+438784067+446225739+441500436+431972014+425762793
1678+425148829+429136309+434458614+438243818+441542983+445822214+447989251
1668+444626549+439501148+438274033+441230064+443910811+443081603+441235259
1658+443020645+451401957+467014255+484114746+488447231+481653059+478825270
1648+482630122+485159764+479512242+470459153+465210599+465713601+471715034
1638+482478557+494095601+497770338+490821704+482320101+479094228+481206315
1628+485661812+490280607+495003401+498925541+499713792+498404162+499365712
1618+504168194+508526688+507470079+503455990+501454122+502541617+504905770
1608+506719993+507846147+509141147+510865964+512340375+512996780+513313444
1598+514330651+516447120+519037508+521240379+522804620+523928018+524685490
1588+525104281+525524062+526361222+527590775+529025961+531363293+536262884
1578+544291027+551863980+553150463+549879746+549222352+553293653+557842655
1568+558425239+556591439+555889554+558115253+565527135+581161837+601699488
1558+609832903+600320101+588464807+581427757+578966034+579561905+581563278
1548+584716637+590938050+601818719+616471517+632459176+645064132+645878109
1538+636311735+628967773+629375150+634082184+637018779+637914459+641760091
1528+650636878+661792336+672305065+682916952+694060678+702166529+705234017
1518+705951663+705673906+704076270+703146172+706132382+714665047+728478212
1508+744083089+750812098+741715578+728582813+722066963+723083852+728859439
1498+735151104+737666186+736026640+734670576+737563211+744439438+750634842
1488+751238982+747027741+742697412+741334351+742591397+744422900+746387557
1478+750345988+757649241+767201056+775494694+777677245+772693726+766337676
1468+764202266+766634657+769705396+769921806+769390604+773022936+782630798
1458+793545744+795187694+785467669+774352214+767615996+765170953+765233007
1448+765522355+764358177+761978086+759776877+758859641+760040923+763824643
1438+769046553+771999545+770207621+766647591+765041616+765320363+765239439
1428+764139717+763716155+765064656+767570551+770918270+775521551+779434467
1418+778117841+771195109+763605123+758958022+757444845+757444916+757644152
1408+758250554+759654889+760673475+760196340+759708533+761250687+764393869
1398+767319792+769265154+769847808+768304311+765745904+765099783+767527085
1388+770821020+771885827+771080754+771846814+775973667+782015067+787780971
1378+792799687+797812819+802749833+806421743+808417073+809872437+811629377
1368+813413385+815341502+818285235+821853040+823783277+822745963+820238018
1358+818298664+817229757+816128693+814632549+813574880+813735739+814561095
1348+814827262+814253371+813791502+814636153+817314993+821094896+823986612
1338+824323243+822676488+821129528+820962096+821898485+823102877+824175671
1328+825240973+826674781+828960873+832369444+836486967+840279169+842877649
1318+844338384+845563344+847493157+850364377+853613997+856545999+859131051
1308+861872297+864846775+867301783+868437549+868384825+868136610+868587877
1298+869911642+871729858+873443048+874362334+874006196+872543058+870685546
1288+868939774+867057738+864343419+860553904+856470799+853306273+851547708
1278+850734862+850256384+849940673+849924701+850287905+850825610+851191147
1268+851415827+851926462+852713017+853105199+852833662+852583327+853024699
1258+853896914+854460627+854532293+854724320+855734283+857592360+859676883
1248+861382653+862679278+864039794+865867622+868037734+870044372+871476908
1238+872230033+872567017+873202325+874809572+877104075+879041097+880419636
1228+882430514+885849475+889565346+891916530+892897233+893882318+895569217
1218+897431888+899011147+900552594+902411378+904640363+907020172+909142436
1208+910757811+912208086+914192249+917040005+920426596+923728869+926514501
1198+928725534+930526929+932201389+934200959+936932735+940263916+943408511
1188+945558269+946590282+946893695+946746759+946469921+946973064+949161976
1178+952756496+956205070+957951973+957793941+956937699+957177221+959846802
1168+964645714+969431835+971879775+971723934+971000139+971769450+974231878
1158+977288058+979963858+981707652+982425651+982963921+984529045+987281741
1148+989992738+991194304+990497295+988838454+987704526+988066600+989788837
1138+992049556+994173941+995835821+997102267+998633325+1001075823+1003944358
1128+1005983153+1006821090+1007339571+1008641567+1011276870+1014828066
1120+1018022700+1019771653+1019814270+1018313815+1016148438+1015085044
1111+1016025037+1017949267+1019403359+1020073157+1020415866+1020849040
1103+1022120858+1024880410+1027886480+1028808380+1027820256+1027865842
1094+1030197379+1033052767+1035470741+1038252980+1041154802+1042948634
1085+1043448739+1042945101+1041536666+1040398496+1041717597+1045613056
1077+1049090465+1049653260+1048182206+1047480038+1049193370+1052644983
1068+1055835235+1057074118+1055718760+1052192019+1048268784+1046204757
1060+1046486896+1047519475+1048346881+1050171387+1054473375+1060484243
1051+1064895921+1065250645+1063004980+1061605380+1062687997+1065582965
1043+1068974361+1071135568+1070156350+1066651871+1064391223+1066313615
1034+1070997538+1073741823+1072012801+1068258129+1066093317+1066467124
1025+1067973798+1068810392+1067782478+1064845034+1061672451+1060578667
1017+1062120185+1064208807+1064360267+1062191780+1058971208+1056028181
1008+1053796086+1051812488+1049941407+1048767829+1048340520+1047793345
1000+1046370351+1044086168+1041901779+1041344002+1042873930+1044942834
991+1045476792+1044077192+1042163775+1041312269+1041773431+1042510513
983+1042702752+1042595183+1042159747+1040361533+1036936636+1032874169
974+1028790711+1024920271+1022050535+1020341091+1018589381+1016066807
965+1013348813+1010834649+1008184292+1005530260+1003970861+1004438596
957+1006276884+1006761934+1003126917+995783944+987925742+981867309+977402341
947+973787325+971234360+969939926+969451978+969247865+968796385+967588459
937+966029413+965160166+964988635+964458776+963345697+962662117+962761699
927+962557304+961174736+959166331+957643896+957212912+957798465+958553640
917+958166687+956194822+953790348+952494358+952935802+955053967+958266694
907+960919949+961167669+959136859+956736060+954978132+953159633+950893402
897+949162825+948554797+947774603+945249696+941525203+938532985+937345201
887+938026803+940440889+943865786+946888253+948810080+949996945+950260991
877+948771491+945942111+943376778+941946080+941290911+940805861+940243561
867+939835265+939975204+940368304+940169139+939264484+938580550+938961212
857+940327878+941888903+942862538+942980850+942218960+940375655+937650240
847+935176149+933925958+933594275+933406700+933224851+933478861+934624875
837+936519492+938055850+937736818+935054233+931182804+928102382+927165357
827+928272783+929972191+930743339+930765178+931542970+933693080+936279263
817+938335163+939987784+941629874+943095557+944223337+945196548+945854684
807+945700752+944893135+944287157+944631916+946224604+948336549+948888672
797+946336908+942249492+940222570+941935125+945913134+949603420+951169109
787+950278236+948497691+947950233+949235338+951402977+953327136+954264443
777+954187760+954124222+954906042+955758538+955364589+953997075+953373782
767+954363531+955569408+954834447+952029026+949094057+947466031+947343761
757+948732265+951513938+954748787+956876635+957336737+957398155+958598448
747+960776900+962457792+963126671+963771874+964930186+966002556+966838514
737+968448022+971105093+972816659+971434515+967586974+964035496+962877326
727+963976906+965334595+964694269+961597451+957746306+955469684+955798046
717+957315393+957723406+957102728+957576895+959377795+959879595+957826028
707+955863633+956807231+959950696+962084834+960609680+955437809+948854464
697+943605627+940772996+939264413+937291912+934375812+931669621+930356528
687+930316738+930868507+931271149+930544456+928386854+925053695+920625832
677+916367026+915149629+917718567+919566042+914685923+902733096+892539612
667+894744708+905869210+914730590+915723944+909324074+900194195+894373305
657+895813332+903450813+910729258+911253746+905485156+898941248+895800045
647+894920763+892838501+889526474+887812576+888456436+889217266+888366042
637+886670379+885765794+885927219+886386190+887040580+888021283+887990398
627+884294528+876415335+868204954+864230620+864703868+865708247+863955690
617+859665857+855294182+853424939+854585017+856389522+856273542+854464161
607+852690401+850761153+847899687+846554931+849778118+855427902
##END=
