##TITLE=<SNM>
##JCAMP-DX=4.24
##DATA TYPE=INFRARED SPECTRUM
##DATE=2/5/2025
##SAMPLING PROCEDURE=Instrument type and / or accessory
##ORIGIN=Admin
##XUNITS=1/CM
##YUNITS=ABSORBANCE
##RESOLUTION=4
##FIRSTX=4497.3318
##LASTX=599.83466
##DELTAX=-1.4281778
##MAXY=1.8315997
##MINY=0.37543449
##XFACTOR=1
##YFACTOR=1.7058102e-09
##NPOINTS=2730
##FIRSTY=0.39296183
##XYDATA=(X++(Y..Y))
4497+230366684+229988715+230386950+231046570+231236743+230825177+230185282
4487+229624303+229188103+228877101+228822451+229146784+229595633+229501586
4477+228502731+227307517+227268627+228902381+231038796+231833397+230722884
4467+228949378+228000560+228168352+228841337+229432646+229600053+229205417
4457+228590086+228428758+228911029+229379516+229118359+228305080+227889217
4447+228576074+230027168+231093061+230987588+230231423+230024233+230733436
4437+231574057+231764247+231278551+230498835+229948094+230130580+230918874
4427+231392078+230892493+229832663+228965050+228448116+228067998+227792165
4417+227729217+228063386+229044596+230388557+230998123+230119800+228375559
4407+226893995+226025054+225599284+225780109+226770946+228015061+228551632
4397+228216886+227868706+228260372+229152357+229767251+229763757+229411121
4387+229039599+228617795+227769470+226232767+224410920+223173252+222883966
4377+223027718+223078174+223112173+223136353+222748740+222079720+222108373
4367+223368910+225085285+226114576+226180634+225744958+225184329+224560000
4357+223946434+223584625+223628984+223912260+224071893+223897078+223494370
4347+223156427+223157056+223570649+224121197+224309954+223912225+223267264
4337+222881677+222875859+222950565+222761214+222271587+221794033+221631116
4327+221751194+221898877+221788722+221247032+220541305+220278051+220551858
4317+220813400+220950635+221493199+222385114+222729591+222156104+221394750
4307+221216213+221584800+221957143+221940039+221592103+221225892+221020799
4297+220881275+220619890+220250622+220091600+220458021+221286953+222293304
4287+223276174+223938869+223820974+222889749+221783096+221092360+220802568
4277+220593963+220341856+220235911+220511325+221075326+221514846+221618973
4267+221738021+222403005+223580991+224454719+224253680+223286150+222614807
4257+222710111+223118864+223444280+223720393+223807696+223433710+222880070
4247+222762577+223107560+223340380+223155868+222818152+222584791+222368360
4237+222059681+221750688+221492535+221243153+221149683+221446027+222085870
4227+222869308+223709351+224368447+224341786+223556532+222782511+222760533
4217+223220092+223326543+222882655+222508687+222688028+223170386+223403992
4207+223244586+223096362+223371496+223946154+224380101+224564368+224742713
4197+224999345+225150400+225046604+224714043+224329889+224086202+223908487
4187+223533820+223038899+222873343+223199336+223701210+224111867+224441407
4177+224705062+224743394+224363014+223675230+223198218+223348888+224006622
4167+224845477+225673711+226205792+226078603+225363180+224603154+224242271
4157+224288971+224442035+224429282+224285809+224152068+223946032+223657060
4147+223656833+224099480+224401520+224012142+223284053+222995728+223462800
4137+224465953+225547657+226151020+225928876+225182162+224736440+225156095
4127+226144451+226883005+226909876+226399511+225659419+224774947+223903053
4117+223496152+223857873+224655217+225239223+225391466+225338249+225124578
4107+224579568+223830566+223292492+223226014+223652273+224389762+224873728
4097+224438192+223168220+221991334+221616982+221897357+222410727+223125014
4087+224142599+225145648+225524403+225047338+224189823+223653392+223661708
4077+223955099+224298371+224579358+224597458+224235475+223661917+223078698
4067+222596060+222480576+223021498+224012632+224809889+225030374+224892614
4057+224790443+224746067+224441826+223829989+223486141+223973689+225029221
4047+225912540+226374563+226705063+226993929+226965067+226506312+225847408
4037+225219603+224712208+224411356+224423411+224817856+225569880+226416039
4027+226910225+226852536+226522577+226293340+226207312+226146530+226211068
4017+226657140+227402263+227807120+227282446+226103831+225217227+225102739
4007+225316288+225413898+225730998+226725836+228054510+228913440+229032663
3997+228804421+228656773+228713362+228846142+228761599+228211593+227374851
3987+226896266+227272540+228255847+229111789+229440053+229476935+229662914
3977+230262853+231264889+232255865+232606579+232161644+231463709+231005426
3967+230729750+230575079+230940678+232118647+233622399+234567217+234561172
3957+233886282+233108820+232842334+233645042+235751860+238512691+240263117
3947+239864270+238466497+238227231+239378452+239995215+238830961+236905650
3937+235978233+236916517+239432490+242306830+243884432+243364476+241839479
3927+241226384+242097666+243100925+242944925+242236823+242373726+243568974
3917+244498942+243515041+240424969+236910000+234957538+235421273+238262959
3907+243412731+250375545+257260542+261696027+262919700+261311157+257067208
3897+251377178+247023459+246277514+248734994+251156728+250970627+250188115
3887+251992020+255490374+257237323+257204513+257633969+257186902+253513121
3878+249363219+249078510+252796458+257773738+262381801+265635123+265885029
3868+264066466+263199412+263509960+262296892+258632860+255087351+254468561
3858+258101966+266416657+277839502+284876253+280149002+268954993+259085588
3848+253560188+253086355+257152624+263891354+270901270+276623743+279990085
3838+279740371+276297069+272253949+269188965+266590633+264040871+262500133
3828+262698552+264241631+267418133+273452639+280734999+283864766+281724263
3818+278850448+276321598+271603519+265446506+261600670+262203893+266804287
3808+272506808+276067097+278403625+282623324+287634498+288898058+286432908
3798+283855366+281585683+278412465+275380729+274574264+276463358+280055567
3788+284265762+288343858+291772642+294983335+299446983+305558327+311272344
3778+314892733+318099093+323810909+333407241+346587554+361381703+374748082
3768+385457182+394485495+402293245+409378566+417461764+426496682+432668650
3758+433289956+431867986+434137548+442447276+453964797+462558675+466740794
3748+471953845+481509959+491774490+495801711+494540614+495322689+502591946
3738+517537185+537905338+556073221+563880935+561517519+555984153+553539881
3728+556560279+563564674+570572249+574648598+575417779+573313669+570072751
3718+568977525+571942644+577862506+583715487+585772950+581770259+573648030
3708+565357066+559626242+557840699+559939987+563565792+565338896+564270296
3698+562192881+561803206+565504312+573803662+583724468+589977712+589544779
3688+585083367+580911207+578414626+577637059+579119514+583668386+592164530
3678+604624266+616336449+618326543+610608665+601418535+593851816+586540244
3668+579534487+574358404+571130834+569037730+568086850+568890973+570834699
3658+571385702+568828567+566056293+568161416+576856277+588024097+592232248
3648+584281305+570609497+559225281+552924830+550698422+549913412+548864204
3638+548278504+549450953+552027096+555238733+560092265+567144880+571959661
3628+569264470+562887076+559987718+562730256+568960333+574498067+575590638
3618+572829860+570814608+572001801+574692870+576936434+579565725+583023389
3608+584301956+581471923+577626576+576477784+578197601+581049088+584645996
3598+589335615+593825679+596069453+596006837+595969379+598541749+604243396
3588+609794932+610358968+606065419+601449354+599598958+600349026+601753769
3578+602215425+601667043+601222719+602187821+605377129+610976256+618071046
3568+623619508+623973751+619444901+614100851+611362367+611669578+612836016
3558+612541035+610945507+610139112+611079894+612518043+613163773+613295855
3548+613634025+614072828+613955912+612830985+610660729+607778212+605066284
3538+603816334+604622518+606367459+607190486+606394853+604616578+602653250
3528+601001605+600185567+600326453+600540788+599906728+598781801+597786789
3518+596342281+593710090+590487587+588083988+587450906+588341092+589342184
3508+589420664+589125054+589055589+588437742+586853186+585749679+586485036
3498+588321734+589188998+587789216+585033505+583362817+584176444+586286844
3488+587253204+585838397+582857169+579873635+577372966+574744479+572086676
3478+570709781+571326056+572966169+574072332+573918797+572873503+571776564
3468+571199181+571258932+571883942+572659937+572708890+571659858+570330170
3458+569657953+569533699+569346898+569017918+568907990+568895201+567991423
3448+565351440+561541455+558104057+555980554+554989211+554613268+554698982
3438+555206621+555831666+556187901+556248246+556274522+556166935+555329268
3428+553560008+551742807+551139392+552003441+553066275+552592845+549991997
3418+546375451+543717997+543430668+545321352+547661636+548522505+547466414
3408+545729231+544425785+543105986+540746763+537820184+536195690+536840687
3398+538558721+539376297+538795349+537919630+537560005+537285395+536390457
3388+534897380+533275890+531881385+531016672+531036484+532084818+533807919
3378+535370846+535952877+535393209+534139939+532567998+530778366+529144228
3368+528485673+529351714+531449325+534020856+536393602+538002932+538403124
3358+537549767+535950501+534367517+533235812+532442765+531822053+531582909
3348+531901022+532341433+532005045+530201961+527234920+524776321+524608809
3338+526479820+528208687+528384865+527740812+527383773+527271784+526975894
3328+526603131+526463502+526474544+526325061+526034622+525871023+525686214
3318+524967490+523767507+522854504+522725987+523109407+523489612+523545729
3308+523178243+522648765+522468708+522806389+523338732+523853639+524532041
3298+525505319+526489464+526920755+526447638+525468560+524913784+525207298
3288+525863581+526385581+526985258+528062908+529457624+530485901+530588700
3278+529881332+528985066+528277523+527548176+526400781+524813884+523443663
3268+523290547+524726179+526797584+527917095+527368468+525847472+524525996
3258+523834631+523413334+523104480+523275696+523832464+523864017+522886336
3248+521563252+520755740+520683444+521144087+521767489+522119636+522098321
3238+521819763+520978601+519294110+517535053+516934992+517607628+518502042
3228+518764283+518271843+517204606+515934879+514871205+513937516+512764160
3218+511515957+510888745+511170484+511803111+511999696+511524552+510675319
3208+509580512+507939175+505770317+503915554+503117091+502917851+502301402
3198+501222808+500539165+500662581+501209984+501705149+501830941+501230006
3188+499794513+498015749+496488464+495218841+493910433+492786100+492446567
3178+492782536+492734525+491527974+489547314+487669663+486440923+486058202
3168+486395499+486828432+486528768+485243806+483576822+482268099+481308937
3158+480132191+478646556+477425084+476728758+476070832+474955689+473520685
3148+472305468+471690906+471606031+471686084+471688320+471609910+471341624
3138+470578733+469313513+468042563+467224847+466741842+466053831+464797417
3128+463178548+461813009+461120491+460909196+460720893+460421404+460181701
3118+460050913+459927846+459823195+459729131+459385579+458521670+457230943
3108+455949405+455096817+454769374+454742085+454602036+453902425+452678158
3098+451774344+451920507+452506172+452154655+450549588+448743464+447686010
3088+447382468+447458642+447762184+448152488+448186381+447497567+446316244
3078+445229997+444592164+444407809+444533112+444669421+444395405+443556479
3068+442500423+441671456+441092465+440499916+439865402+439386205+439005790
3058+438425471+437573827+436634932+435769660+435204156+435211319+435661654
3048+436055521+436146685+436006358+435579400+434751970+433648637+432525807
3038+431639814+431226763+431247728+431272502+430868257+429930829+428594153
3028+427102124+425786238+424914048+424465880+424099651+423442844+422562128
3018+421993619+422077690+422440145+422369177+421609850+420622140+420007928
3008+419764556+419345320+418503913+417647796+417162869+416881550+416425171
2998+415670141+414746726+413849202+413081663+412414164+411865118+411606616
2988+411654801+411607105+411026926+410018356+409092390+408523706+408151258
2978+407736914+407179762+406484099+405862723+405662435+405841863+405809472
2968+405092110+403889017+402748366+401994489+401637031+401520954+401334747
2958+400679897+399393327+397819394+396617245+396248570+396677275+397434891
2948+397872506+397541499+396530938+395335672+394331261+393532553+392860406
2938+392388198+392177602+392006036+391506888+390655663+389894518+389616588
2928+389686473+389653662+389302668+388753762+388098667+387265996+386283074
2918+385325555+384427297+383525441+382839667+382733967+383140029+383554932
2908+383659060+383540815+383263026+382665236+381778020+381035220+380780107
2898+380805161+380621400+379996949+379072451+378148650+377458718+377007825
2888+376659731+376404164+376325300+376302483+376012184+375247615+374101408
2878+372915193+372101984+371831847+371875874+371893065+371782963+371634144
2868+371466562+371183880+370748675+370282967+369887597+369428142+368702953
2858+367812243+367124233+366832746+366732217+366482765+365990466+365477725
2848+365210138+365203743+365230160+365050173+364559445+363775938+362831767
2838+361974566+361436912+361252941+361265940+361299030+361202240+360786604
2828+359948202+358882956+357965935+357409377+357187983+357181414+357195915
2818+356982698+356452277+355788551+355216618+354755242+354286074+353758762
2808+353227607+352758788+352375788+352047436+351654442+351036456+350205811
2798+349468952+349173271+349318037+349517836+349353678+348724265+347905536
2788+347269904+346891166+346485068+345812292+345001775+344339027+343891803
2778+343512611+343069580+342532834+341943395+341394908+340941744+340472855
2768+339810562+338997563+338345473+338109893+338215628+338335585+338133165
2758+337433029+336327949+335187858+334412631+334080297+333924525+333683738
2748+333383061+333228303+333273483+333252448+332810884+331938763+331049486
2738+330526402+330270172+329858903+329153177+328487110+328132447+327848752
2728+327231324+326319649+325542990+325167327+325091922+325106913+325075185
2718+324904702+324564156+324102256+323530149+322793604+321967781+321305558
2708+320950196+320762522+320551577+320323614+320175040+320047466+319738298
2698+319132786+318350572+317670982+317302028+317178053+317024238+316672615
2688+316245727+315977092+315925762+315913113+315680154+315119927+314420176
2678+313920084+313756660+313716651+313498822+313060752+312621704+312351182
2668+312157183+311851405+311442547+311128452+311019398+310980507+310761001
2658+310250566+309594807+309039961+308708500+308589207+308629146+308698087
2648+308577048+308143870+307517951+306930225+306485377+306110972+305737510
2638+305437881+305279314+305127700+304808504+304396711+304126922+304091910
2628+304189154+304238283+304029539+303434195+302597400+301863301+301420375
2618+301163445+300943030+300759549+300644310+300528547+300338671+300114937
2608+299954867+299873906+299745493+299404843+298850695+298289035+297927384
2598+297803025+297833041+297890346+297800964+297452905+296992857+296749939
2588+296840370+296971612+296785545+296287410+295756185+295348795+295022820
2578+294764038+294632027+294587056+294476360+294229424+293951284+293784645
2568+293735761+293668428+293444344+293057290+292655473+292402858+292268139
2558+292018949+291545134+291107536+291068366+291401365+291665597+291468017
2548+290817010+290059290+289593004+289588095+289889855+290220652+290444859
2538+290552935+290505955+290282028+289997547+289811602+289741334+289668340
2528+289519381+289380434+289385588+289514000+289594262+289522526+289370423
2518+289265771+289247549+289228540+289074760+288759268+288410929+288180294
2508+288119862+288179263+288216826+288099420+287888632+287768518+287719110
2498+287530161+287210737+287048693+287151825+287244334+287056607+286683880
2488+286434096+286457559+286607898+286623500+286416118+286161512+286102530
2478+286320604+286702085+287022399+287042858+286655297+285998472+285366247
2468+284973148+284838533+284867780+284972117+285086727+285126963+285015236
2458+284788461+284602185+284546644+284512226+284331855+284029169+283823517
2448+283883163+284153790+284447077+284617437+284617559+284462067+284213663
2438+283975550+283838594+283836008+283939926+284055742+284034899+283783386
2428+283387649+283064888+282966316+283092021+283397677+283864259+284397581
2418+284779254+284859394+284744871+284661971+284683722+284715257+284676000
2408+284574650+284469964+284431562+284473685+284534799+284606535+284792934
2398+285124744+285449776+285642412+285773323+285942443+286091174+286097918
2388+285921355+285532624+284827334+283707596+282142398+280074383+277393221
2378+274080637+270279894+266194302+262061976+258221084+254948684+252180341
2368+249665066+247470368+245970128+245233006+244926721+245067992+246385922
2358+249598799+254678424+261229270+269200863+278281258+286786732+292381858
2348+293831258+291835538+288686693+286511510+285398254+284210361+282598917
2338+281090064+279943997+278780668+277255654+275668984+274638191+274335767
2328+274399693+274513133+274701087+275075317+275571460+276052963+276565407
2318+277276898+278151867+278925486+279461201+279914051+280499262+281284062
2308+282170492+282917135+283273615+283227334+283026050+282915545+282952252
2298+283060346+283180686+283358681+283674034+284060162+284291409+284235449
2288+284025552+283893890+283899166+283880839+283653121+283184146+282595283
2278+282068094+281752601+281648788+281580546+281406884+281198140+281071562
2268+280983071+280837869+280674095+280593361+280601922+280621804+280603477
2258+280560533+280515825+280474715+280435318+280360944+280192645+279980563
2248+279907272+280069456+280352365+280592942+280729985+280770238+280747491
2238+280720673+280735506+280804097+280913641+281024634+281116392+281223665
2228+281331758+281300485+281043311+280707727+280514532+280487486+280495086
2218+280483468+280484918+280459603+280348260+280250841+280330212+280553038
2208+280722874+280737777+280652291+280542678+280436576+280323783+280184329
2198+280066993+280098388+280296755+280454169+280380773+280189622+280148268
2188+280330893+280598672+280826478+280975506+281027570+280988539+280917834
2178+280903455+281012859+281212239+281328386+281215034+280964953+280813200
2168+280844700+280960882+281097926+281265945+281394147+281369636+281231964
2158+281116532+281045687+280980118+280983874+281123031+281312033+281434086
2148+281490570+281532466+281586172+281692064+281879965+282087749+282202307
2138+282182896+282099804+282064739+282137891+282283337+282411715+282480289
2128+282542835+282692877+282968430+283311807+283599450+283729575+283719808
2118+283697603+283775349+283981752+284302468+284687601+285042263+285308837
2108+285517179+285699018+285842980+285966902+286121276+286313056+286515860
2098+286723853+286922604+287072821+287183308+287317712+287478970+287581648
2088+287593790+287612379+287739499+287972580+288250231+288526536+288776651
2078+288983736+289142146+289263360+289371611+289466916+289527802+289616485
2068+289887322+290357591+290784898+290930642+290831773+290696529+290682518
2058+290847706+291149362+291428060+291528467+291484195+291495097+291693463
2048+292013446+292332171+292649864+293018172+293356744+293514787+293494940
2038+293439032+293419535+293418207+293454023+293560491+293686248+293759696
2028+293813892+293944296+294155486+294339911+294491979+294869983+295694372
2018+296647419+297031398+296608459+295901894+295500898+295494468+295674770
2008+295892424+296090756+296249743+296392272+296555347+296742916+296892608
1998+296937753+297064419+297742575+299099064+300404432+300736208+300065808
1988+299108533+298388830+297988044+297854914+297926336+298096365+298263248
1978+298374329+298445926+298551241+298735980+299048957+299689446+300805463
1968+302011875+302541493+302153810+301441969+301013753+300899492+300917522
1958+301086677+301413107+301673810+301687647+301578907+301623039+301963795
1948+302626787+303785118+305649316+307717925+308614820+307584307+305644319
1938+304282275+303876562+303959270+304165219+304415230+304643961+304779012
1928+304996492+305836431+307595383+309557768+310713165+311289256+312126574
1918+312747601+311908745+309943110+308572470+308759900+309970819+310987880
1908+311049658+310400468+309791601+309604311+309692890+309877699+310273837
1898+311114790+312278677+313217922+313826579+314882775+316691554+317985636
1888+317498508+315888130+314581014+313957891+313685517+313669479+314008313
1878+314640556+315360434+316052218+317151218+319716774+324191079+328739671
1868+330038121+327234784+323087152+320315892+319439368+319630781+320040792
1858+320259565+320272249+320292900+320520408+321114529+322297670+324299050
1848+327406664+331748049+336026119+337210623+334212133+330016142+327630468
1838+327309140+327697592+328148730+329693382+333480795+338404386+341353047
1828+341195773+339988347+338958253+337239799+334692273+332728176+332207853
1818+332603957+333162018+333989797+335727679+338301726+340410798+340792261
1808+339779848+338912689+339576065+342246588+346064120+349020539+349667388
1798+348847890+348930249+351670516+356590892+360175675+358734382+353715818
1788+349712778+348947545+350508201+352689987+354740462+356278160+356847088
1778+357104367+359025870+364152300+371655668+377548380+377988965+373973660
1768+368764067+364469889+362778096+364579467+368104325+370116153+370183312
1758+370180936+370481473+370934812+373264509+379041387+386333356+390507788
1748+389773164+386818213+384625978+384328202+385709744+387555527+388373138
1738+388878331+392135916+399122735+404707816+402954769+396588802+390472915
1728+386062030+383843135+383958549+385567948+388508294+394597834+405253088
1718+417337859+422765526+418241218+409648878+402781596+399726116+400836542
1708+405626025+412093185+417419694+421636755+427846776+436740597+443418248
1698+444115099+440454002+433625506+425738647+421095327+421383879+424995218
1688+430788554+440249031+453037223+460682981+456304627+447088849+441218885
1678+440978693+445093793+449947255+452855664+455471502+459485549+461593748
1668+458138041+452884561+451608404+454697149+457729916+457295376+455568012
1658+457050152+464844798+479928723+497002952+501822031+495261191+492159203
1648+495464135+497778527+492530673+484016673+478930217+479189208+484688890
1638+494825323+505980354+509842892+503612885+495699820+492706397+494798452
1628+499055522+503238655+507246098+510445854+511075546+510357870+512200298
1618+517592359+521910787+520431232+516154734+514143116+515308820+517812389
1608+519862409+521184060+522477199+524111407+525714168+526911495+528027652
1598+529652740+531806678+533962398+535764469+537316389+538724452+539823137
1588+540585400+541443928+542822850+544539836+546203396+548362016+552594557
1578+559538886+566102906+567189291+564363626+563993729+567947641+572321871
1568+573040491+571606326+571463762+574446388+582751749+599154145+619694248
1558+626433118+615256877+602616561+595505487+593191829+593889623+596049117
1548+599487842+605864711+616525905+630692494+646241953+658607764+659309891
1538+649645526+642082022+642101939+646437769+649234118+649947566+653072161
1528+660679762+670505630+680014922+689944358+700849657+709326199+712916224
1518+713975180+714170996+713161797+712398172+714932595+722654736+735533568
1508+750269993+756754134+748421554+736436752+730991789+733000123+739627737
1498+746276526+748300444+745824026+744369944+748261729+756535117+763277621
1488+763180761+758017292+753141677+751358021+752119899+753746944+756031671
1478+760327526+767297713+775790398+782946128+784683451+780097156+774530874
1468+773334036+776902047+781029482+781488482+780188984+782565888+790963950
1458+801666725+805544882+799568659+791048789+785047268+782247774+781835527
1448+781909325+780566359+777963589+775720794+774923414+776165188+780150338
1438+786267727+790773445+790255044+787179507+785603896+785807679+785671195
1428+784447032+783582145+784116480+785696004+788232942+792289375+796357477
1418+796243706+791056756+784998559+781238506+779567853+778423638+777334072
1408+777279283+778709674+780217986+780488019+780708923+782747307+786294283
1398+789692196+792208519+793523670+792816582+790713275+789636218+790772047
1388+792461569+792215158+790398935+790101648+793264889+799000361+805231381
1378+810993968+816716581+822388807+826466764+827719369+827238775+826952948
1368+827657242+829461165+832434670+835774439+837691574+837466757+836484743
1358+836295077+836975540+837500301+837106783+836205276+835661227+835556750
1348+835440532+835428442+836149927+837889766+840347456+842753082+844016799
1338+843602246+842237126+841055174+840622660+841143228+842668242+844620529
1328+845861604+845898503+845714428+847004980+850563697+855275014+858866157
1318+860224498+860576644+861595138+863329945+864969569+866530295+868578882
1308+871016865+873287544+875447737+878157848+881662265+885247956+887695863
1298+888230687+887236653+885846096+884759535+883925676+883239692+882681317
1288+881716844+879572376+876355673+873194249+871098909+870072728+869227967
1278+867536558+864794439+862069372+860776164+861202458+862466035+863896846
1268+865510054+867015781+867684154+867489316+867114457+866857563+866794807
1258+867511819+869380175+871589846+872905347+873176218+873499573+875050305
1248+877997953+881284820+883482680+884193333+884332962+884762540+885354740
1238+885930446+887120575+889395727+892195221+894879616+897544303+900220800
1228+902366317+903581744+904008318+904173314+904974328+907063797+909966231
1218+912709538+915145214+917618837+919913347+921610766+923034379+924967377
1208+927579791+930017704+931147523+930811659+930266911+931132428+934010821
1198+938209887+942556548+946255942+948894981+950112644+949984127+949570832
1188+950301052+952504433+955074218+957009453+958817079+961781011+966059116
1178+970128057+972322982+972511250+971907380+971753076+972687918+974857475
1168+977835593+980801970+983467985+986525212+990373808+993638312+994322619
1158+992446855+990014883+988710702+988796241+989803692+991325143+992991603
1148+994187742+994174254+993367091+993760749+996471071+1000054945+1002414448
1138+1003365293+1003823594+1003719117+1002831447+1002373356+1003837361
1130+1007284473+1011484098+1014692135+1015400062+1013780145+1012499796
1121+1014134109+1017551030+1019152428+1018489017+1019027894+1022210564
1113+1025198605+1026310534+1028287979+1032825634+1036495117+1035435462
1104+1030851753+1026581195+1024213517+1023591127+1025440544+1030407848
1095+1036454444+1040095065+1040927806+1042363089+1046777189+1052351787
1087+1055574011+1055332491+1052994443+1049226632+1043905155+1038899415
1078+1037115899+1038139913+1038633016+1038201970+1041003770+1049324680
1070+1058994286+1063465482+1061430382+1057248647+1054537627+1053393412
1061+1052893041+1052955168+1054052980+1056781261+1061349037+1066829640
1053+1071485120+1073741823+1072389772+1067731287+1062581446+1060156601
1044+1061231072+1064153073+1067124133+1069553519+1071495393+1072223028
1035+1070116018+1065594296+1061950321+1061390548+1062904241+1064435335
1027+1064985045+1064177393+1061911256+1059301288+1058171120+1059036986
1018+1060264363+1059749526+1057779418+1056850097+1058148198+1059780345
1010+1058866748+1054647066+1049804995+1048606270+1052214255+1056373067
1001+1056313736+1053218841+1052415591+1056749115+1063917493+1068868863
993+1068509309+1064257270+1059364952+1055422152+1052761938+1051843099
984+1052109917+1051351533+1048517587+1045533389+1044116346+1042797140
975+1039636834+1035871120+1033885708+1033588071+1033296934+1032676221
967+1032233435+1030913950+1026717120+1019808362+1013246090+1010335340
958+1011624914+1014187570+1014620853+1012471982+1009543551+1006704992
950+1002908180+997409966+991584274+987384649+984878739+982706596+980396362
940+978640450+977716091+977249124+977125638+977209709+976647001+974560257
930+971261161+968212739+966662706+966511966+966228934+964173498+960634839
920+957978957+958409025+961915258+966234735+968538400+967733123+965397312
910+963938617+963973629+964171542+963826803+964362955+967007725+970224707
900+971079811+968755041+965177665+962496625+961231161+960576485+959815865
890+958977184+958321739+957837861+957184233+956040717+954661970+953717135
880+953392872+953445355+953780101+953832025+952305124+948766883+944869438
870+943115762+944606393+947846507+949982660+949895724+949065569+949008403
860+949544555+949938982+950256676+950864529+951621236+952210920+952496047
850+952095401+950356401+947182397+943467420+940391394+938532892+937958443
840+938808445+941198208+944315395+946198008+945224240+941738413+937676390
830+934603020+932662404+931690663+932349043+935032878+938411782+940622012
820+941737854+943190957+945048132+946149508+946849748+948865700+951725224
810+952775095+951656807+950927215+952225595+954851147+957422958+958384775
800+956281958+951903429+948230521+947246341+948482524+950648866+953448430
790+957354961+961818538+964388672+962925925+958654039+955250186+954757572
780+955790182+956098511+955986557+957632541+961106138+963271712+961531664
770+956818739+952125381+949945691+951169155+954698450+958238857+960286815
760+961086850+961831257+963390166+965407235+966188541+964513555+961700015
750+960102950+960051655+960161652+959737315+959152943+958983893+959991904
740+962594883+965310655+965448048+962793843+960655664+961124098+961603505
730+958908348+954416607+951537235+951387264+953048762+955391492+957365653
720+958107754+958161285+958943430+960125173+959808178+957780416+955903185
710+955467526+955971881+955910103+954324779+951196899+947271989+943837736
700+941828634+941068922+940501392+939499880+939258919+941420999+944815976
690+945524323+941029647+933301216+926893248+924404879+924141974+922576637
680+919064673+916217099+915690870+916066568+914896216+910610703+902816162
670+893713387+889106686+892451277+898457550+902743552+906231266+909427213
660+910058478+906886850+902993388+902055402+903319608+902681076+897554017
650+888717501+879240006+873491886+874110012+879013861+884006742+886944746
640+887293189+883876408+877094280+871169212+869492269+871754772+876460150
630+881697556+883476880+877853293+866697108+857436116+856047375+861678370
620+867330260+866364459+859353251+852275232+848999477+849930336+853595905
610+856784934+856849297+853490031+847281932+839975252+836208421+840625456
600+852739334
##END=
