##TITLE=<SNM>
##JCAMP-DX=4.24
##DATA TYPE=INFRARED SPECTRUM
##DATE=3/5/2025
##SAMPLING PROCEDURE=Instrument type and / or accessory
##ORIGIN=Admin
##XUNITS=1/CM
##YUNITS=ABSORBANCE
##RESOLUTION=4
##FIRSTX=4497.3318
##LASTX=599.83466
##DELTAX=-1.4281778
##MAXY=1.712326
##MINY=0.1807593
##XFACTOR=1
##YFACTOR=1.5947279e-09
##NPOINTS=2730
##FIRSTY=0.19649479
##XYDATA=(X++(Y..Y))
4497+123215244+122974804+124182957+125753910+126301936+125685016+124850260
4487+124488170+124537478+124896783+125794127+127131788+128101846+127997314
4477+127099093+126357561+126411336+127119211+127784747+127755706+126986049
4467+125978615+125257425+125096577+125490343+126062076+126280791+125987202
4457+125503939+125135486+124848232+124581133+124558838+124998530+125676513
4447+126146620+126273904+126109506+125460807+124192179+122797127+122019453
4437+121935899+121916239+121420436+120487212+119567126+119119314+119284170
4427+119845147+120557516+121395366+122251680+122606136+121902606+120232335
4417+118405309+117317900+117273319+117856592+118396358+118471689+118064729
4407+117469301+117104436+117193512+117568544+117906264+118020813+117805601
4397+117186925+116363838+115821624+115806674+115961438+115767531+115245659
4387+114913498+115078644+115470840+115620373+115375410+114938867+114516172
4377+114164996+114006932+114209426+114608135+114783915+114659397+114598941
4367+114883887+115417196+115796311+115546574+114648193+113766371+113521838
4357+113809185+114228516+114747922+115506805+116316558+116700419+116341310
4347+115393388+114337495+113611372+113451262+113857736+114528506+115096061
4337+115478231+115633650+115255750+114330702+113547674+113453626+113709138
4327+113730901+113505355+113348048+113422800+113760381+114292205+114776842
4317+115031765+115205171+115499368+115733538+115615187+115401816+115738630
4307+116680189+117470777+117601061+117438540+117456584+117551865+117468721
4297+117186598+116724536+116267922+116415473+117537325+119043281+119946147
4287+119925973+119398391+118839638+118397834+117985539+117550089+117220273
4277+117139747+117267003+117502285+117887903+118539256+119452381+120397435
4267+120966485+120871391+120213881+119313071+118442648+117940258+118165822
4257+119012670+119913518+120563599+121115074+121626219+121977106+122268387
4247+122615536+122713891+122250867+121492628+120997947+121019513+121443030
4237+121969509+122240187+122108240+121827032+121748766+121896532+122008044
4227+121993944+122162286+122741633+123331306+123320429+122792997+122436383
4217+122607313+123089212+123611496+124047973+124254980+124103860+123596900
4207+122951481+122694128+123383903+124982739+126737265+127837980+128047576
4197+127725506+127356287+127063576+126673211+126200544+125908787+125817468
4187+125614665+125201071+124887944+124873592+124927161+124822527+124755380
4177+125064555+125789352+126728472+127693699+128510245+128977950+129000189
4167+128693574+128364179+128342053+128694144+129155879+129466436+129619940
4157+129680480+129593814+129348907+129107187+129001198+128981837+129009748
4147+129214802+129615866+129865772+129681134+129374220+129486311+130057754
4137+130717226+131271448+131703721+131812765+131464477+131082942+131264216
4127+131906224+132276602+131975417+131322606+130787699+130560817+130673580
4117+131064627+131544508+131989442+132434890+132798933+132811510+132446346
4107+132178341+132567995+133660385+134887694+135530272+135277003+134450637
4097+133727401+133544875+133712787+133672262+133203211+132725900+132773872
4087+133352192+134038547+134542853+134829041+134836311+134525398+134186014
4077+134293741+134955541+135729150+136071590+135819825+135234572+134749963
4067+134678061+134975686+135297036+135394990+135360538+135353278+135349494
4057+135333777+135426638+135622591+135698988+135564425+135453119+135629749
4047+136107116+136706273+137216671+137498645+137565184+137522257+137365016
4037+136991172+136518280+136383063+136939079+138060660+139246527+139995142
4027+140068698+139610467+139079437+138902695+139112300+139413252+139584715
4017+139656627+139646703+139373391+138769590+138214359+138195970+138710508
4007+139324596+139755636+140088329+140501139+141079580+141800228+142462793
3997+142761194+142581967+142142947+141768617+141603032+141538418+141403471
3987+141252622+141345043+141748462+142149628+142219699+142073363+142203665
3977+142872780+143639756+143766891+143170060+142558149+142506869+142903700
3967+143458043+144192492+145186816+146251128+147041529+147275568+146843650
3957+145944644+145040984+144521569+144582670+145386760+146761610+147816830
3947+147829397+147420475+147662878+148359726+148356484+147324157+146093653
3937+145520117+145974853+147429791+149301528+150490367+150327379+149493192
3927+149276869+149938276+150391685+149841322+149117124+149508367+150918360
3917+151868983+151248354+149543276+147971137+147107292+146975083+148013147
3907+151042421+156008213+161172893+164254904+164589831+162954012+159915525
3897+156182021+153446019+153246141+155195359+156831963+156450540+155744497
3887+156914097+159163463+160298649+160619559+161622434+162161303+160350788
3878+157698994+156992176+158695085+161695224+165106200+167642091+167700697
3868+166155290+165412703+165633334+164999884+162931493+160886555+160438977
3858+162636409+168354871+176880294+182403299+178777279+170186672+163187781
3848+160035390+160422064+163034520+166547926+170462788+174752419+178357714
3838+179153301+176888760+173893387+171675715+169867892+168179372+167267340
3828+167388233+168171411+170237653+174684189+179856120+181640528+179964866
3818+178388250+177115390+174010972+169943709+167747996+168784883+172620638
3808+177099056+179843898+181625634+184622820+187553439+187090892+184195686
3798+181999488+180416481+178161546+176043145+175639615+176990927+179078250
3788+181384857+184022392+186849891+189672923+192903131+196663779+199796173
3778+201343019+202296557+204468778+208964128+215737978+223336550+229799749
3768+234739854+239024048+243157391+248038368+255336063+265360284+275732664
3758+283997258+291253185+300946068+315376534+333031938+347798173+356013730
3748+362404849+372154917+384266181+392912385+396925041+401502599+410565060
3738+424711413+441444786+455987587+464871241+468997931+471770973+475276549
3728+479030750+481599980+483124064+485445005+489084125+492339692+494477378
3718+497431507+503557219+513614668+526167268+537225872+543240241+545874505
3708+549223923+555207457+563429666+571714780+577474992+580838463+583895600
3698+586800430+588720439+590902490+595657398+602956494+609161891+610032753
3688+606556294+603535486+602815137+603562808+605279341+608154158+612469673
3678+617799200+621759567+622469637+622713329+624870115+626433144+624046645
3668+619173779+615573717+614233935+614190354+615039127+618016317+624632104
3658+633829866+641539426+645804632+650221884+658518846+668561420+672416461
3648+667436550+661235039+659437699+661221883+663487395+664761396+665805010
3638+667384448+669180965+671261093+675019106+681442032+688910068+692699477
3628+689665662+683694538+679762800+679741496+683759946+689890442+694348733
3618+695804007+697085184+700312307+704814702+709649744+714453764+716940393
3608+714098093+707394099+701477917+698935598+699685212+703251112+709904051
3598+719451765+728799144+732511708+728767524+722195691+717742259+715792948
3588+714628160+714489794+716101001+718070944+719114409+720195698+722343102
3578+724296525+724181107+722091860+719904165+719503568+720985828+722145532
3568+720872205+718261039+717052222+718046126+720032514+721112533+720550845
3558+720165573+721953046+724948438+726406403+725762189+725002259+725180020
3548+725418180+724873910+723696340+722370237+721267120+720674635+720760376
3538+721519184+722819348+724024053+724443712+724789814+726628193+729937917
3528+732882553+734672268+736149445+736993620+735633506+732339479+729101890
3518+727142338+726886013+728381803+730177872+729761801+726598890+722816433
3508+720119750+718500096+717870982+718579931+720581045+723050033+724634554
3498+724297646+722676048+722067715+723800320+726338902+727658950+728230056
3488+729491722+730917170+730919936+729588676+728299725+727653268+727416454
3478+727263062+726952617+726714606+727308661+728786884+729460924+727200121
3468+722370686+718763971+720386092+727578367+736284896+741263013+740583068
3458+736114835+730632664+726265421+724513306+725661199+727725479+727576947
3448+724382265+721036136+720675831+722802753+724528331+724776134+725064005
3438+726531314+728193652+728094979+725455033+721583023+718985162+719065969
3428+720780858+722098513+722360146+722729197+724055898+725203118+724505083
3418+722242561+720454789+720442604+721776780+723412805+724593291+725320703
3408+726436453+728401462+730406987+731563776+731768148+730595512+727443215
3398+723347322+720830045+721241854+723258517+724554793+724375313+723972325
3388+724693757+726313561+727685860+728264143+727824227+725445764+720950097
3378+716928657+716793056+720711263+725275329+727540916+727787000+727755679
3368+728149623+728469711+728308770+728406919+729827957+732065512+733131851
3358+731838116+729208935+727412043+727699092+729426912+730957163+731450900
3348+731220290+730440326+728878829+727109148+726710196+728490492+730996034
3338+731658188+729610428+726514719+724504111+724539843+726774408+731332867
3328+738026171+744909945+747858990+744386605+737480556+732228547+730735373
3318+732213447+735042889+737091770+736506012+733854854+731927595+732405485
3308+734391200+735904333+735707734+734062590+731892312+729874079+728637679
3298+728962402+730868656+732942130+733758947+733720674+734466924+736472000
3288+737958222+737035930+734360701+732372370+732427088+733636054+734118355
3278+732534432+728773429+724306168+721788143+723052350+727258353+731601900
3268+734070439+734910279+735332255+736032383+737112476+738077152+737971827
3258+736363759+733708115+730851239+728615702+727360091+726519727+725090317
3248+723106321+721679453+721420661+722032956+723242669+724922125+726522792
3238+727488440+728060967+729268662+731849254+735134461+737413653+737501262
3228+735918311+734307852+733522207+732673471+730775141+728670645+727875208
3218+728350182+728783446+728361395+727527461+727442991+728674831+730433375
3208+731214534+730183403+727747082+724910838+722545157+721337611+721808101
3198+723583090+725064976+725023414+723989219+723107069+722566686+721862670
3188+720888052+719973909+719522481+719924198+721057590+721999317+722120939
3178+721984591+722169677+721985189+720365834+717568311+715129971+714202298
3168+714498839+714966937+714839335+713648908+711173940+708198357+706371938
3158+706481674+707520729+708041303+707808898+707325850+706394887+704273646
3148+701136823+698435730+697370064+697798169+698923488+700041181+700343404
3138+699276766+697542517+696581280+696905255+697840928+698691308+699294184
3128+699576074+699202014+697892282+696114228+694998478+695081378+695541029
3118+695067624+693157633+690521499+688440849+687408223+686502227+684759456
3108+682792579+682075482+682922573+683950937+683621131+682117716+681252386
3098+682256232+684151348+684796608+683455630+681593181+680938203+681292827
3088+680969972+679478219+678127673+678007172+678893732+679835385+679743664
3078+677896165+674856520+672239074+670956029+670495182+670117161+669871152
3068+670184288+670821550+670814673+669768816+668475604+667783250+667578953
3058+667189569+666309961+665281970+664579374+664229833+663845084+663193844
3048+662448117+661909528+661810033+662066208+662119656+661545036+660529305
3038+659234747+657425821+655189312+653234470+652089641+651578635+651244120
3028+650857726+650576434+650835525+651620945+651932362+650944139+649442295
3018+648704715+648224284+646311078+643051288+640664527+640514275+641627260
3008+642383751+642266166+641578372+640543952+639313383+638242259+637692532
2998+637671677+637706436+637109541+635617040+633653077+631752206+630046063
2988+628563579+627486551+626768258+626140564+625677550+625583138+625562693
2978+625327747+625210536+625318777+624857183+623292808+621494421+620807972
2968+621402663+622000381+621271473+619294391+617139662+615439911+614122106
2958+613058532+612278830+611737737+611098195+609806105+607871371+606303819
2948+605808661+605545870+604396182+602840927+602374810+603646979+605843383
2938+607352815+606976364+604912383+602316466+599943161+597876713+596297239
2928+595500867+595226527+594736452+593595286+591971333+590294045+588920475
2918+587895250+586723249+584789225+582408968+580921326+581175932+582202390
2908+582028928+580063396+577935764+577444082+578464597+579484852+579453344
2898+578353179+576514763+574333907+572429747+571360642+571124949+571117399
2888+570673595+569657901+568329518+566884410+565666848+565195087+565190639
2878+564477430+562743479+561271760+560974620+560983030+560108392+558550259
2868+557190444+556226104+555407120+554812317+554581408+554415533+553919851
2858+553050783+551978016+550902632+550030274+549333547+548372721+546772353
2848+544952513+543942425+544192956+544878844+544724593+543305686+541127596
2838+538770587+536585022+534924777+533984321+533493536+533002190+532358051
2828+531680835+531072614+530559179+530115862+529533954+528460364+526801988
2818+524989174+523619641+522845321+522264534+521471713+520604252+520142770
2808+520125914+519895602+518846643+517124168+515330042+513785813+512329940
2798+510774274+509366542+508572600+508391625+508226311+507606653+506676438
2788+505738299+504762036+503666544+502754119+502405176+502397215+501988396
2778+500806565+499236023+497737766+496249302+494549738+492789774+491315999
2768+490296230+489759099+489660052+489670555+489236058+488147219+486835132
2758+485861262+485231812+484402437+482986333+481242702+479667002+478332752
2748+476995960+475653000+474515460+473592944+472757926+472021430+471395718
2738+470727546+469897611+468920189+467740152+466255725+464597984+463079059
2728+461822737+460664603+459456347+458322133+457506550+457020175+456575176
2718+455914031+455077928+454208113+453194997+451801094+450141186+448740668
2708+447992848+447758500+447567695+447032694+446077960+444945166+443875837
2698+442677524+440931239+438804504+437153043+436525648+436548822+436524639
2688+436157195+435516084+434737914+433930816+433142779+432399631+431749773
2678+431078648+430054881+428612165+427214973+426277320+425636919+424895228
2668+423941877+422901327+421872103+420958258+420347832+420112438+419993470
2658+419562673+418598483+417262850+416004622+415285096+415155176+415103710
2648+414598610+413701734+412843916+412160906+411409684+410391523+409158001
2638+407910388+406876678+406193668+405818973+405600734+405417255+405199615
2628+404879526+404375996+403581082+402413865+401055357+400016004+399677190
2618+399831478+399923946+399617575+398919465+397990072+397042065+396251935
2608+395659899+395191427+394722096+394136750+393424100+392662974+391923601
2598+391292618+390844629+390439846+389817759+389017425+388395450+388155272
2588+388137929+388096479+387963009+387777848+387454770+386796054+385855934
2578+385099929+384942837+385212842+385308188+384873654+384131552+383484573
2568+383016662+382594910+382244584+382101509+382143594+382208479+382099042
2558+381608220+380733396+379860627+379435176+379494118+379713889+379787707
2548+379630353+379337736+379030804+378726413+378408829+378173248+378148916
2538+378311352+378499765+378584571+378555044+378510268+378568686+378696774
2528+378699091+378494719+378249869+378093001+377922081+377658206+377423372
2518+377307207+377208646+377010067+376706873+376352697+376032908+375832609
2508+375677424+375307700+374597293+373832841+373454782+373530618+373715555
2498+373742690+373655977+373518359+373249326+372870781+372605523+372598571
2488+372738956+372833704+372780779+372506028+371926662+371133243+370486487
2478+370341393+370684767+371128272+371223954+370786916+370039432+369446237
2468+369282305+369400675+369505889+369475913+369287576+368903574+368443512
2458+368175264+368119536+367964575+367580125+367307130+367509335+368038542
2448+368332505+367994326+367197618+366479325+366162601+366118646+366084148
2438+365960471+365754491+365491925+365238590+365025135+364799570+364553337
2428+364340293+364130950+363854031+363569898+363408770+363395576+363461171
2418+363544109+363627270+363746014+363931287+364104226+364104675+363845733
2408+363380065+362853810+362425406+362170090+362067381+362111036+362326359
2398+362638599+362880534+362992999+363085205+363245698+363381859+363278963
2388+362783394+361909766+360745800+359240293+357164987+354374565+351047722
2378+347544277+344024350+340321728+336245719+331937904+327842310+324316850
2368+321383091+318964076+317164082+316068141+315628599+316122299+318265629
2358+322451187+328234833+334893079+342171992+349987326+357470947+362997334
2348+365253391+364233136+361537612+359123119+357269304+354855147+351315335
2338+347153062+343049246+339268022+335915128+333294019+331623833+330643122
2328+329933949+329394014+329072057+328941914+329086746+329752638+331060987
2318+332850253+334784053+336538897+337992190+339246530+340410795+341455568
2308+342364479+343270998+344273461+345215113+345847292+346186517+346520024
2298+347017275+347509069+347765170+347866496+348114673+348610130+349139637
2288+349504838+349740719+349936644+350040437+349933916+349595999+349174023
2278+348915680+348935937+349038722+348908242+348483538+348014132+347739754
2268+347647398+347607219+347633008+347836446+348155637+348339453+348243957
2258+347964085+347641007+347315872+347032636+346932842+347126114+347514862
2248+347868515+348082007+348246387+348436631+348563859+348530108+348434725
2238+348499161+348797870+349177275+349463687+349646568+349820629+350040026
2228+350279868+350507825+350759403+351090331+351437330+351647870+351702140
2218+351748748+351880274+352064127+352316228+352722992+353257395+353755580
2208+354111027+354373930+354647859+354989588+355415302+355909712+356409131
2198+356846767+357227816+357615705+358051771+358522448+358988901+359441451
2188+359939823+360577160+361365309+362158989+362758314+363141008+363518057
2178+364038370+364555094+364883143+365130050+365517826+366050622+366626886
2168+367309298+368260295+369552422+371152379+372961642+374861542+376864749
2158+379191147+382053892+385401254+388965323+392503976+395894359+399058952
2148+401933620+404526023+406963951+409463027+412178398+415051495+417879517
2138+420566034+423244589+426171247+429533298+433287424+437150352+440826960
2128+444270155+447684234+451270579+454950252+458319629+460884037+462291769
2118+462412158+461406293+459695666+457674219+455518368+453309106+451078615
2108+448725381+446210720+443792115+441756615+440068114+438518241+436961341
2098+435149051+432642538+429174413+424889509+420122642+415216249+410534038
2088+406258217+402180227+398022552+393896048+390175298+387089456+384647379
2078+382772783+381319602+380054385+378761510+377421914+376286616+375654139
2068+375497608+375413773+374998899+374199126+373283749+372553533+372102329
2058+371813188+371516833+371133168+370732459+370475835+370418014+370421453
2048+370381610+370440328+370846905+371697397+372882704+374230933+375705232
2038+377519914+380005011+383276762+387077384+391001347+394801670+398335464
2028+401316578+403387474+404362877+404170427+402787177+400503873+397901640
2018+395301500+392574991+389623590+386660155+383932898+381511902+379376570
2008+377477418+375717715+374013703+372372147+370871947+369571783+368424488
1998+367337330+366398144+365893568+365875926+365844568+365184245+363863375
1988+362388665+361230493+360543671+360232627+360067799+359810427+359331752
1978+358662197+357972011+357444074+357105484+356890572+356870352+357171191
1968+357600605+357666574+357171229+356503468+356118906+356011936+355906274
1958+355712666+355522160+355315694+354968994+354493085+354078734+353900450
1948+354019792+354517902+355462807+356479996+356689825+355659180+354095740
1938+353014226+352704715+352819833+352994529+353108563+353162385+353145454
1928+353146463+353494322+354394262+355436494+356056002+356371979+356700664
1918+356600235+355532961+354077687+353304115+353483445+354073389+354447411
1908+354363614+353987910+353627530+353433922+353372737+353383277+353489164
1898+353798675+354316034+354790112+355084374+355512629+356223148+356602702
1888+356071737+355024572+354165969+353624166+353218374+352913049+352716115
1878+352574796+352497241+352631906+353355656+355183981+358096174+360772861
1868+361280278+359341582+356740694+355083402+354545411+354489908+354413063
1858+354235078+354100561+354130275+354319510+354657913+355243671+356295321
1848+358224038+361269476+364367167+365137674+362842597+359727079+357924842
1838+357627217+357966218+358460254+359628069+362072837+364983162+366439968
1828+366004500+365103550+364336780+363045026+361306553+360158772+360063650
1818+360562620+361172411+362000253+363430747+365347130+366873830+367252524
1808+366822475+366647630+367538002+369641639+372382986+374625026+375518165
1798+375503812+376057165+378340767+381940269+384482626+383889692+381502296
1788+380233080+381124723+383244394+385498694+387628718+389446876+390554105
1778+391426724+393598871+398204050+404463829+409362149+410378628+408559685
1768+406250555+404714660+404854484+407141787+410449605+412890187+414354955
1758+415890999+417425884+418793026+421307687+426106885+431870797+435574204
1748+436113129+435241519+434957723+436110101+438540181+441255439+443171336
1738+444976787+448959393+455674413+461272786+461581101+458674925+456122215
1728+454980975+455452735+457458559+460375835+464196715+470200132+479156707
1718+488789452+494053720+493156844+489757454+487481925+487757125+490825924
1708+496235211+502511025+507893477+512822108+519636287+528527940+535643145
1698+538513253+538751451+537131909+534671330+534377704+537739382+543575990
1688+550856547+560777237+573458224+582880766+583690032+580811179+580361582
1678+584060728+590848295+598017135+603667611+609194595+616286964+622962777
1668+625930174+626648729+629240460+634886562+641065946+645120501+648037030
1658+652843441+661708744+675150071+689492387+695644337+694350751+695415520
1648+701126059+706529516+706534599+703575462+702633286+705352768+711398047
1638+719801904+727570518+729184865+723858402+717973990+715826287+717070088
1628+719350326+720958319+721519857+720252510+716611932+712987351+712465582
1618+714537187+714766377+710182353+703612987+698266491+694314048+690753455
1608+687229341+684269830+682342048+681178082+680185000+679242152+678760674
1598+678927894+679182799+678669700+677148046+675171077+673413281+672082245
1588+670890771+669548895+668274745+667486260+667218573+667617525+669554128
1578+673404236+676983068+677171743+675690529+676955260+681790078+686896619
1568+689136268+689757084+691457097+695521594+703340516+717071134+735233358
1558+746897454+747230250+745919173+748784496+755654889+764552260+773534923
1548+782051432+791558481+803570623+817359100+830267744+838039199+835875648
1538+827313241+821338977+820641166+822555344+823901630+824877593+827647907
1528+832573399+838176967+843490048+848975807+854490645+858381343+860175544
1518+861303105+862202073+862216501+861803271+863003640+868170507+878394578
1508+890858223+896047067+888310970+877765764+873080450+874522045+879409862
1498+884512740+886821086+885577883+883535880+883957033+887349284+890787209
1488+890809410+887816111+884944733+884202145+885511279+887780604+890155628
1478+892434372+895010479+898843394+904044796+907724768+906866988+903550311
1468+901708493+902265696+903256460+902997594+902882176+905402070+910756938
1458+915697605+915504894+910554659+905537596+902694324+902034712+902734466
1448+903450293+903497386+903413290+903681426+904166567+905084523+907061119
1438+909535115+910137468+907864330+905431523+905307584+906894272+908005911
1428+907883990+907931233+909256290+911221598+912680759+913309648+912852315
1418+910599510+906964539+903627306+901709540+901149871+901136341+900984145
1408+900827540+901015915+901060916+900337166+899512276+899695867+900791958
1398+901842524+902144074+900992667+897743043+893340442+889918739+888379593
1388+887526895+885592385+882802561+881522357+883484824+888060401+893277576
1378+897913777+902048018+905793398+908556983+910035506+910977906+912243384
1368+914029810+916317300+919135754+921854040+923003428+921969009+920306447
1358+920117025+921810235+923992997+925223118+925381219+925134985+924959168
1348+925114054+925817472+927139239+929164349+932154359+936033844+939749996
1338+941929170+942477103+942605004+943128194+943646002+943551366+943123111
1328+943188220+944206568+946012430+948079400+949834580+950902489+951331491
1318+951633490+952169687+952431693+951576977+949748017+948141968+947693605
1308+948284670+949256896+950247287+951371633+952620517+953416328+953170094
1298+951911119+949952913+947614442+945522728+944240356+943445591+942261742
1288+940419102+938523239+937117600+935826556+933690290+930343040+926424908
1278+922682817+919329586+916427186+914237023+913034934+912662370+912375396
1268+911422307+909628331+907186628+904315175+901309840+898371783+895342379
1258+892043194+888641748+885483621+882980845+881543212+881118172+881065322
1248+880728115+879801413+878386057+877132912+876821943+877447021+878323190
1238+879172449+880310998+881813441+883294281+884529859+885698533+886931420
1228+888099571+889182879+890376222+891596102+892453508+893039640+894104035
1218+896180948+898994094+901714698+903607870+904671667+905669010+907246803
1208+909339713+911731631+914447675+917235854+919487687+920974656+922009823
1198+922948112+924240426+926593399+930167597+933919331+936630665+938423744
1188+940222130+942062602+943351927+944421181+946267558+948830958+950830503
1178+951469035+951370587+951617941+952630833+954268652+956404693+958979754
1168+961772942+964459533+966866551+968716143+969610104+969853571+970582031
1158+972647506+975853251+979209546+981680403+983006356+983939337+985340341
1148+986987504+987838183+987690772+987619459+988445171+989867404+991348767
1138+992840147+994376676+995927708+997823721+1000218629+1002460296+1003956310
1128+1005166248+1006856842+1008912899+1010756884+1012276520+1013719460
1120+1015116278+1016314405+1017429258+1018986494+1021605509+1025352534
1111+1029139252+1031021959+1029950836+1027171477+1025247881+1025818913
1103+1028127706+1029677168+1029487298+1030117384+1034163566+1039816471
1094+1042599717+1041273465+1039149308+1039368631+1041642964+1043680931
1085+1043995937+1043001734+1042646287+1044669977+1048352042+1050822450
1077+1050385673+1048660768+1048594313+1051070851+1054012347+1054883508
1068+1053897752+1053757891+1056360012+1060793859+1064557703+1065960127
1060+1065591899+1065678461+1067491873+1069714702+1070082707+1068284246
1051+1065985020+1064343837+1063128891+1061948256+1061057211+1060895671
1043+1061357415+1062111888+1063063483+1063622330+1062746758+1060701690
1034+1059763326+1062068009+1067150331+1072095707+1073741823+1071046635
1025+1066398399+1063687663+1064334867+1066337177+1067412561+1066972794
1017+1064982071+1061676457+1058538588+1057281107+1057835619+1058655425
1008+1058741988+1058519077+1058700202+1058765161+1057088322+1053409471
1000+1050016622+1049039911+1049924751+1050492942+1049607204+1047796260
991+1045862273+1044113447+1042505828+1041010487+1039824769+1038902327
983+1037658751+1035786360+1034039553+1033117336+1031917265+1028249403
974+1021605136+1014268963+1009111739+1007172968+1007415090+1007753718
965+1006394649+1003044185+998616542+993819848+988860792+984052960+979685643
955+975488087+971292624+967766642+965649064+964713092+963856433+962210317
945+960147308+958806554+958725223+959438882+960332917+961168272+961895685
935+962494524+962798765+962516202+961539267+959891805+957494953+954719781
925+952811733+952782729+954175361+955551697+955886885+955023573+953243052
915+951227885+950066162+950244595+950872438+950969242+950827064+950578139
905+948821016+944882028+940955673+939741175+941238909+943316793+944358240
895+944204998+943356262+942321693+941525284+941135527+940888546+940545060
885+940255769+939720319+937824008+934552930+932057106+932006050+933105280
875+932993900+931535785+930491049+931063875+933056019+935453469+936928029
865+936377629+933725723+930142704+927340995+926442624+927189996+928329891
855+929042129+929659208+930829527+932733762+935044948+936604801+935564999
845+931429188+926644006+924500863+925764921+928122678+928558931+926188766
835+922925985+921284429+921570131+922101619+922422231+924258591+928256783
825+932024514+933056467+931921281+930903232+931204334+932685323+934947845
815+937731091+940824333+943905541+946402486+947748772+947678878+946207757
805+943791694+941560343+940716317+941406353+942671608+943422867+943042976
795+941461147+939402698+938418212+939690718+942864992+946401739+948805841
785+949587450+949209428+948058021+946103104+943883639+942539297+942298371
776+942391661+942698668+943734807+945195837+946193180+946280864+945243978
766+943126325+941082826+940451694+940638649+939815853+937893228+936832197
756+937827970+940196042+943177455+946611493+949390852+949748466+947719544
746+944752856+941392225+938110832+936323807+936478021+937175608+937992574
736+940947301+947116070+953836360+957379685+956847600+954049852+951111944
726+949240525+948822511+949501186+950103463+949481077+947606369+945249958
716+942995359+941152495+939619703+938000572+936506427+935879481+936344439
706+937349033+938395637+939290869+940229082+941511156+942169722+939723609
696+933292011+926021097+921579475+920335301+920846456+922299263+923471676
686+921976334+917299319+911945348+907919348+905200464+903695704+903402675
676+902804359+899368752+891610902+879553386+865931756+858249555+862207306
666+871167917+876825382+878456922+878266154+877038425+874214739+870173789
656+866670830+864945401+864400683+863523766+861498880+859353719+859362390
646+862214482+865474123+865517554+860922093+853765699+848381678+848468913
636+853723240+859406718+860956404+858789789+856045040+853731014+850297275
626+844564760+837770913+832569810+830368585+830381965+831420123+833943605
616+838831646+845016636+850278363+852262434+849297690+842795377+837128494
606+834937883+834753544+834952684+836946323+841533785
##END=
