##TITLE=<SNM>
##JCAMP-DX=4.24
##DATA TYPE=INFRARED SPECTRUM
##DATE=2/5/2025
##SAMPLING PROCEDURE=Instrument type and / or accessory
##ORIGIN=Admin
##XUNITS=1/CM
##YUNITS=ABSORBANCE
##RESOLUTION=4
##FIRSTX=4497.3318
##LASTX=599.83466
##DELTAX=-1.4281778
##MAXY=1.8285933
##MINY=0.33170235
##XFACTOR=1
##YFACTOR=1.7030102e-09
##NPOINTS=2730
##FIRSTY=0.34472623
##XYDATA=(X++(Y..Y))
4497+202421711+204078154+206118787+207817824+208711714+208768798+208017024
4487+206458913+204598108+203483126+203727091+204822595+205678282+205582314
4477+204672079+203817495+203915038+204864682+205488585+204978151+204000577
4467+203735771+204392100+205368274+206219341+206597511+205958979+204386010
4457+203106566+203264274+204617078+205977826+206431281+205757101+204358536
4447+203121248+202750690+203127040+203661694+204035909+204290111+204578420
4437+205025523+205511964+205604311+204977573+203760078+202345850+201253338
4427+201043638+201802849+202856231+203346978+202865978+201578274+200178798
4417+199457177+199535961+199965248+200624150+201790249+203296736+204365133
4407+204328418+203198054+201722945+200889937+201030495+201613868+202118405
4397+202597637+203118168+203289683+202854096+202332830+202497048+203272131
4387+203743628+203383552+202623974+201963357+201211601+199999320+198468578
4377+197139049+196426790+196372873+196663405+196962021+197197831+197416298
4367+197576719+197709577+197960104+198229409+198104198+197444298+196754229
4357+196619848+196948249+197112030+196759531+196172623+195953088+196538019
4347+197733902+198658574+198584550+197851413+197505635+198043036+198880419
4337+199167748+198842654+198508688+198427576+198243374+197694510+196975391
4327+196374886+195994983+195749986+195482887+195278559+195466909+196040045
4317+196558704+196805993+196815916+196390321+195529839+195026370+195562178
4307+196541711+196816826+196300319+195914379+196144606+196550951+196673152
4297+196542061+196218543+195719816+195456077+195905524+196873332+197724662
4287+198169979+198278058+198081238+197672373+197291402+197048313+196942719
4277+197099815+197487523+197591349+196935754+195792458+194921563+194774145
4267+195217100+195838570+196288752+196436468+196374151+196310382+196438690
4257+196828866+197379514+197895163+198242989+198449941+198688516+199083416
4247+199420760+199259289+198514585+197667158+197230713+197308430+197760537
4237+198406034+198925148+198934580+198326813+197345687+196364509+195726046
4227+195590878+195807420+196097357+196430238+197007451+197775744+198309138
4217+198441681+198652904+199354348+200058784+199867827+198770240+197753029
4207+197529207+197851028+198216354+198599967+199131121+199542366+199452504
4197+198992260+198621264+198400067+198035844+197596424+197460905+197544747
4187+197300992+196538159+195707899+195422757+195979198+197132662+198177119
4177+198519783+198224421+197828541+197857118+198563340+199702926+200505799
4167+200381411+199684884+199285084+199405360+199437962+198948230+198321283
4157+198149032+198359800+198381132+197999147+197561617+197357727+197324670
4147+197397451+197648643+198044611+198460021+198839032+199067474+198947355
4137+198508215+198096988+198050683+198416867+198995567+199542103+199872604
4127+199861317+199511583+198985067+198409552+197814524+197335729+197144877
4117+197183341+197398921+197993739+198908856+199545813+199615235+199622497
4107+199899449+199902161+199195415+198480268+198721450+199665424+200163031
4097+199801118+199240599+198931728+198549672+197804776+196923942+196253035
4087+195969311+196109642+196525577+196934249+197149514+197187646+197193334
4077+197350674+197767869+198298883+198517963+198103288+197368349+197115845
4067+197719185+198659834+199231307+199353035+199345948+199258746+198881573
4057+198266491+197768044+197530625+197310565+196899197+196377948+195903477
4047+195620960+195766593+196382271+197021713+197271173+197362767+197736615
4037+198268888+198499553+198406682+198393207+198638816+198952675+199168308
4027+199270489+199203937+198933758+198689478+198778377+199164808+199584908
4017+200026987+200645605+201160466+200905477+199775375+198644696+198431776
4007+199080476+199820770+200180600+200348826+200697072+201296422+201835888
3997+201861788+201229118+200383791+200002243+200345151+201158786+202110337
3987+203036129+203757978+203942898+203358213+202249023+201275265+200948159
3977+201198878+201557187+201613098+201261580+200689879+200266279+200353428
3967+201081455+202231751+203391777+204323256+205095749+205711969+205852948
3957+205370076+204766403+204714096+205334271+206281325+207102433+207276328
3947+206597931+205736924+205592831+206050083+206129007+205435280+204687392
3937+204759946+205923752+207892653+209975129+211123885+210578381+208856472
3927+207494061+207565057+208730666+209895522+210636183+211363300+212233932
3917+212556120+211558090+209566596+207855519+207382587+208176168+209954881
3907+212773030+216584905+220519593+223187208+223733447+222102081+218787936
3897+215072713+212703801+212736981+214632925+216281721+216159642+215680253
3887+216865251+219125612+220486168+221029747+221782343+221568215+219289182
3878+217098839+217337676+219613331+222573316+225765698+228159302+227936704
3868+225919258+224793689+224955825+224497628+222614318+220763085+220660886
3858+223367019+229418219+237323330+240937701+235787390+227407773+221464511
3848+219167489+219968367+222794566+226448207+230221442+233936525+236885450
3838+237558352+235601000+232693235+230309133+228572787+227299554+226631762
3828+226485097+226789925+228615749+233096745+238384184+240263802+238576542
3818+236911210+235869324+233549552+230272804+228349542+229183162+232475187
3808+236135024+238001289+239010659+241316274+244108541+244842430+243993778
3798+243522421+243165985+242139062+241326494+241961824+244064022+246944522
3788+250219398+253914059+258125034+263173146+269593802+277195641+284620645
3778+291051731+297656047+306198185+317517680+331055553+344339050+354360690
3768+360884472+365499552+368654519+370822814+373370363+376132040+377131908
3758+376377037+377019525+381859092+391232820+402627494+411322055+415512660
3748+418957249+425401757+434746961+443155435+448804193+454886175+464615429
3738+478515968+493982458+506637887+514402615+519351136+525025933+533734074
3728+545638342+558301121+567848412+572703659+574647431+575568865+575741693
3718+575256038+575600049+578777591+584357050+587999071+585466151+578181443
3708+570460221+564973476+562653284+562820582+563501009+563377565+562996805
3698+563655112+566350395+571457184+578553104+586248952+591503579+590703909
3688+584534708+578222533+575507755+576701451+580164170+583972299+587816023
3678+592546847+596481780+596109034+593296048+592231641+591612918+587499627
3668+580817262+575681003+573686587+573923114+574742944+575166824+575432961
3658+575669383+574897888+573109304+572666629+575397997+579180086+578337192
3648+571413259+563979733+559688819+557914130+557439851+557929705+559287934
3638+561394629+564202120+567586615+571664801+576944978+582669265+585514136
3628+583633048+580314563+578745287+579341050+581700231+584976402+587254840
3618+587326939+586609623+586923044+588163429+589203897+589772150+590673529
3608+592514437+595058767+597766055+599979568+601069315+601402581+602557637
3598+605421583+608617465+609919170+609456125+610356944+615000829+621237404
3588+623553117+619874031+614548004+611701348+611306203+611782687+612200372
3578+612390910+612643117+613118131+613505787+614023921+615939728+619880191
3568+624026031+625498324+624172329+622060805+619995759+617709937+615096938
3558+612720676+611656129+612459999+614221948+615248346+614917810+613900512
3548+612793405+611811807+610929747+609486505+607093793+605019298+604888540
3538+606338222+607367700+606761297+605025248+603296619+602030054+600392143
3528+597359219+593775962+591886055+592568617+594524183+596133044+596850046
3518+596735737+595944606+594964058+594359335+594195887+593896991+592661926
3508+590086726+586477744+582899877+580820657+580948195+582234850+582851788
3498+582164466+581103979+580825977+581471054+582184101+582115501+581467659
3488+581454219+582886437+584888833+585535836+583728492+580059871+576179537
3478+573515999+572446972+572332348+572091131+571002014+569007598+566648136
3468+565076270+565471380+567733368+570096750+570702663+569383668+567279389
3458+565176404+563073279+560882305+558769975+556828058+554996040+553399149
3448+552419581+552533855+553998937+556239155+557640959+556824978+554224719
3438+551296864+548752150+546681609+545443009+545132038+544922285+544026296
3428+542862245+542407320+542773486+543014073+542181888+540384345+538686690
3418+537966188+538106502+538477182+538869633+539440686+539911290+539582714
3408+538376909+537142193+536590250+536539535+536366428+535653626+534351222
3398+532781805+531378392+530014493+528035897+525434588+523268254+522362535
3388+522388609+522687191+523207565+524061729+524739951+524431640+523098156
3378+521827426+521715007+522506698+522993087+522649706+522090028+522028744
3368+522619187+523644044+524636318+524935739+524146848+522591817+521117600
3358+520603421+521515755+523307593+524354571+523325093+520686230+518197934
3348+517069828+517228971+517940862+518413987+518077256+517026533+516165929
3338+516286047+516869175+516393741+514375000+512371834+512112767+513407857
3328+514777635+515499082+515851107+515770818+514743056+512998186+511609823
3318+511244322+511583783+511956459+511932869+511390166+510558401+509997847
3308+510126821+510676804+510879977+510352708+509528013+509006799+508824906
3298+508679938+508497870+508342892+508142029+507863678+507636915+507579621
3288+507774989+508289518+509020659+509715121+510130111+509979577+509020729
3278+507603316+506657452+506695427+507347959+508110180+508771462+508947895
3268+508130690+506484799+504894943+504121312+504318395+504980832+505044811
3258+503699777+501370695+499261270+497980216+497426557+497697629+499140662
3248+501547933+503936235+505281479+505248124+504244231+502957086+501823975
3238+500884166+500085231+499503083+499027123+498202253+496867369+495521390
3228+494519107+493505134+492173295+490876561+489979486+489245650+488299611
3218+487325958+486930183+487252599+487553595+487065001+485953904+484907452
3208+484179740+483599272+483016039+482278948+481283070+480307352+479793488
3198+479681734+479485351+479095456+478865789+478765550+478146862+476676495
3188+474904746+473520583+472563589+471676280+470655692+469425317+467892370
3178+466219880+464945195+464512565+464789552+465105073+464668803+463140337
3168+461081731+459607549+459180029+459018366+458112122+456502771+455082593
3158+454409586+454149504+453579886+452473199+451365672+450792169+450492923
3148+449822926+448699509+447521213+446418236+445273960+444202098+443389547
3138+442714230+441983089+441321597+440942692+440721564+440370308+439854345
3128+439278566+438551205+437520432+436344551+435371668+434642732+433826122
3118+432704420+431508799+430658029+430258824+430043787+429784335+429491353
3108+429127953+428479655+427547966+426755821+426514884+426808810+427237730
3098+427215435+426298866+424706105+423264753+422481567+422027867+421493739
3088+421152808+421417405+421980828+422133986+421613122+420668064+419649821
3078+418856415+418416225+418119814+417633600+416868334+416001009+415370807
3068+415321597+415710828+415765042+414952632+413691527+412732923+412269249
3058+411948268+411371545+410448676+409489092+408893679+408669402+408414570
3048+407787587+406837804+405939994+405449860+405303667+405027485+404240905
3038+403012034+401684395+400556989+399745068+399162430+398640832+398147407
3028+397757197+397353092+396607741+395448975+394313763+393679956+393490573
3018+393250091+392630458+391839993+391335264+391187495+390919119+390129703
3008+389062076+388281025+387986854+387867820+387485800+386736879+385988168
2998+385573038+385170927+384175539+382715077+381653994+381452992+381632050
2988+381513261+380991977+380298950+379434146+378293579+377113918+376296223
2978+375877453+375528507+374992349+374283187+373574586+373030237+372644332
2968+372253037+371745998+371148450+370522517+369921049+369317797+368542066
2958+367540343+366667978+366339122+366425501+366399636+366018701+365487232
2948+365024993+364638667+364284262+363934581+363496036+362884663+362171267
2938+361513345+361009351+360691520+360539621+360419643+360076087+359300356
2928+358201579+357245111+356786161+356560064+355951666+354824645+353726428
2918+353192509+353165174+353162479+352759669+351856505+350735503+349923653
2908+349713936+349754640+349408424+348585164+347852343+347659635+347833163
2898+347891192+347564051+346946064+346304661+345819462+345465406+345093361
2888+344623841+344176057+343935260+343863440+343698522+343289342+342743454
2878+342237675+341893209+341737881+341579333+341112018+340325193+339559647
2868+339067693+338776986+338498634+338113674+337583465+336990362+336524973
2858+336293451+336167767+335900790+335379052+334730754+334182521+333855975
2848+333727666+333696517+333602753+333266862+332658219+331975622+331439569
2838+331069168+330733277+330342717+329925347+329519562+329017353+328226152
2828+327211934+326419124+326208671+326420454+326633321+326664506+326550932
2818+326266875+325740447+324994816+324120421+323251766+322584814+322233909
2808+322082955+321904108+321556002+321007033+320309667+319605895+319037292
2798+318636652+318364495+318172487+317971869+317631324+317072065+316336549
2788+315554203+314848927+314272064+313807549+313403304+312973999+312451070
2778+311896817+311469997+311197455+310899924+310431104+309831422+309170280
2768+308440118+307696482+307086929+306622485+306112471+305451959+304816401
2758+304411351+304170799+303887758+303507732+303065477+302498939+301804127
2748+301179805+300723690+300213326+299468290+298683180+298145691+297813300
2738+297369610+296616769+295700200+294933604+294460620+294191998+294011715
2728+293859852+293671660+293419470+293161926+292943161+292705076+292349445
2718+291863476+291391489+291100940+290910455+290528995+289870652+289187391
2708+288682347+288242787+287676511+287039729+286610861+286547687+286620276
2698+286401704+285772254+285081922+284733659+284756881+284861040+284767958
2688+284424385+283985735+283642004+283431114+283215447+282833671+282237051
2678+281492855+280706344+279968028+279371898+279017247+278896761+278833184
2668+278664714+278446596+278329418+278328613+278330940+278211032+277879953
2658+277364409+276852768+276527447+276378033+276281295+276171448+276011290
2648+275702682+275186263+274596782+274160635+273927135+273738627+273476201
2638+273171529+272864670+272540049+272230985+272033570+271975803+271961069
2628+271856017+271602708+271250087+270893424+270605640+270418130+270303401
2618+270159150+269894326+269551837+269254148+269033476+268836901+268672350
2608+268601704+268608564+268604329+268537847+268412024+268236606+268032803
2598+267842440+267686780+267542161+267383456+267221040+267086292+267015505
2588+267047810+267181036+267327771+267384593+267327649+267170781+266914391
2578+266622162+266411325+266285011+266144751+265997962+265949365+266001252
2568+266066632+266124223+266190950+266225810+266199122+266186015+266294934
2558+266525441+266750838+266853492+266821380+266664652+266327466+265801860
2548+265253539+264888546+264730382+264632244+264465103+264208644+263910885
2538+263640845+263442240+263292022+263152304+263038503+262946629+262779873
2528+262480504+262158316+261955791+261860172+261742888+261525681+261254294
2518+261035494+260930075+260919330+260949395+260951723+260864889+260715913
2508+260607099+260550785+260424611+260161555+259865616+259664998+259554697
2498+259472308+259454388+259577079+259753407+259765604+259546034+259258268
2488+259060275+258953841+258880062+258798688+258662767+258425225+258082019
2478+257697479+257412425+257356443+257477227+257542396+257384390+257055657
2468+256717718+256507196+256513846+256717981+256909516+256806320+256327053
2458+255705110+255295685+255274073+255532790+255835396+255993577+255901773
2448+255551130+255070515+254643660+254356961+254206831+254191658+254262480
2438+254261150+254066500+253757243+253507101+253369448+253268999+253147113
2428+253020590+252931061+252894871+252885491+252867502+252864964+252931796
2418+253041572+253105026+253088209+253011682+252900331+252829755+252916501
2408+253185035+253529274+253807468+253916089+253848802+253735719+253729506
2398+253850710+254058607+254483975+255527277+257706141+261421557+266928321
2388+274584847+285040850+299032791+316966051+338712272+363746388+391354163
2378+420622389+450360624+479388893+507067822+533239180+557411011+578298552
2368+594371305+604772831+609895300+611150315+609796531+606073555+599356506
2358+588520775+572671739+551736879+526614949+500763453+480298182+470246722
2348+472267703+484866642+503159524+520063517+531107110+536442342+538147101
2338+538294835+538017603+537484909+536965550+536850367+536645339+535212631
2328+532101483+527647717+521973584+514931878+506860100+498414981+489664840
2318+480176908+469967565+459663128+449722372+439964173+429883874+419173126
2308+407915581+396454898+385196827+374504770+364601183+355432692+346712406
2298+338223993+330038220+322374852+315357471+308970047+303126097+297705361
2288+292641814+288025824+284014172+280641018+277819631+275457649+273440204
2278+271581411+269748623+267999238+266490634+265277303+264253776+263272685
2268+262292872+261414925+260755550+260294623+259890920+259423046+258853848
2258+258202715+257538528+256967370+256552310+256246746+255925205+255490983
2248+254975089+254505937+254150954+253833823+253441145+252954686+252467859
2238+252123375+251993685+251972072+251873461+251688331+251596019+251673053
2228+251751452+251652439+251433464+251297875+251335867+251456651+251537640
2218+251541980+251490706+251413881+251365757+251415491+251562612+251698428
2208+251707458+251595337+251483811+251499753+251694613+252035229+252431529
2198+252782873+253031860+253190285+253310176+253424082+253524881+253613255
2188+253724921+253883399+254057837+254184186+254216123+254175086+254145721
2178+254179671+254247798+254327422+254425823+254476397+254366446+254120382
2168+253911259+253844480+253845687+253798473+253706617+253641465+253587425
2158+253471349+253320711+253225792+253160396+253019102+252829072+252774578
2148+252994778+253451942+254034825+254758232+255797684+257313394+259310872
2138+261701589+264440376+267564036+271109791+275023322+279184860+283540068
2128+288179823+293286017+298980571+305193977+311722309+318420739+325204533
2118+331854804+338006610+343328332+347572626+350511261+351937389+351716402
2108+349858204+346589838+342309144+337425512+332205885+326718195+320939449
2098+314920396+308799879+302740016+296925116+291522563+286618334+282263161
2088+278507811+275330461+272633901+270330946+268346714+266604068+265076283
2078+263785236+262740394+261922296+261283711+260758875+260319123+259995726
2068+259823389+259783297+259789754+259751639+259665943+259569449+259441176
2058+259290257+259222061+259264480+259318922+259362164+259458045+259571707
2048+259614074+259616664+259697495+259898060+260103648+260150845+260070503
2038+260105783+260381509+260738523+260987335+261129748+261272616+261468841
2028+261678839+261861257+262064482+262350428+262706129+263153336+263746369
2018+264306905+264475796+264221261+263950662+263967024+264151069+264266691
2008+264296475+264351442+264432641+264433761+264316512+264169777+264098815
1998+264166207+264474763+265147980+266065704+266745518+266764716+266252829
1988+265690754+265370700+265287838+265351153+265489611+265660846+265849407
1978+266025857+266168638+266330038+266563171+266854017+267237490+267779319
1968+268320500+268536255+268403134+268279760+268406739+268650808+268825229
1958+268996814+269331778+269790622+270150470+270327271+270539946+271067214
1948+271970466+273171319+274549078+275696137+275939979+275123141+273991149
1938+273358094+273359127+273660596+273944477+274093768+274183472+274358523
1928+274727698+275441585+276597516+277913430+278972465+279864482+280823348
1918+281356217+280801298+279631000+279039349+279535871+280624270+281488655
1908+281746812+281643528+281618643+281834923+282203154+282661771+283263571
1898+284058639+284913837+285537827+285947374+286639176+287784240+288646944
1888+288495414+287666466+286978462+286742057+286781239+286851606+286838009
1878+286812529+286922778+287251284+288019734+289712209+292426234+295020858
1868+295685430+294088540+291826779+290382766+289969789+290072600+290245725
1858+290359334+290487205+290720985+291054233+291502158+292221487+293432910
1848+295411559+298266405+301072496+301830552+299949325+297407480+296061851
1838+296025486+296493501+297085239+298338609+300831174+303856258+305665561
1828+305750015+305307971+304907540+303990761+302607018+301679459+301641379
1818+302076249+302537054+303151471+304325602+305989902+307365001+307772501
1808+307501674+307454180+308304075+310181207+312597684+314549890+315293666
1798+315263497+315811135+317999659+321472843+323992428+323412974+320808131
1788+318973627+319053987+320275717+321671325+323111698+324562151+325619593
1778+326449468+328194022+331853474+336889809+340798947+341347145+339292880
1768+336672461+334801664+334685885+336696331+339542112+341297061+341931218
1758+342601145+343376561+344169792+346188778+350418582+355558761+358779457
1748+359083639+358082616+357564377+358312038+360280344+362647891+364362451
1738+365880278+369140349+374482580+378287349+377104329+373299874+370105182
1728+368236309+367731300+368501361+369991993+372239422+376509196+383541067
1718+391089497+394378477+392005261+387565074+384196434+382966934+384192794
1708+387741402+392379266+396382098+399961471+405002496+411366330+415625289
1698+416143983+414555982+411293355+407171770+404861692+405659753+408777831
1688+413635458+420935460+429767955+434520968+431878220+426986748+424742785
1678+426204228+430245104+434477044+437464713+440529557+444708717+447739645
1668+447212237+445470098+446192384+449663782+453188870+454763257+455744120
1658+458841863+465920248+477574584+490523555+495862601+493727136+493511154
1648+497644710+501748481+501420395+498878970+498394716+501408215+507932172
1638+517662651+528551301+535549782+536464951+536257229+539585864+547026565
1628+556622121+566501068+576596487+587147181+597107502+606057456+615776770
1618+627634348+639312449+646808519+651002029+655533915+661434775+667288595
1608+671515494+673940685+675661825+677789379+680523967+683477791+686498045
1598+689758187+693334934+697061689+700776825+704586600+708611201+712548654
1588+715993173+719026097+721922103+724683290+727486266+731135673+736478569
1578+743281858+749354215+752277660+753850471+758037261+765845108+774597944
1568+781221125+786695829+793928353+803902254+816614102+833228194+853242775
1558+867887160+871365979+870536489+869804997+869135035+868274396+867312817
1548+866496487+866580276+868220356+871438568+875526309+877078961+870777776
1538+859560970+851629714+848754289+847429554+844109844+839761216+837607062
1528+838173915+839386230+839917664+840498377+841244428+840967372+840039463
1518+839710397+839119464+836994919+834492029+833935746+836543284+842151267
1508+848389033+849008666+841192419+832521902+828612869+829055054+831475905
1498+833224624+832423484+829970643+828976865+831078170+834720856+836207988
1488+833312473+827964117+823585319+821773951+821876849+822521192+823411651
1478+825229879+828261263+831899960+834558038+833976275+830163981+826494694
1468+825408027+826178228+826428825+825299319+825026392+828050006+834060694
1458+838898476+836851491+829459159+823618359+821739651+822525602+824004754
1448+824508958+823271093+820754833+817930507+815672194+815051791+817012888
1438+820871731+823478780+822305384+819256431+817259705+816535773+815790142
1428+814769764+814442448+815123820+816170308+817433792+819448928+821540573
1418+821395745+818369331+814554307+811733411+810167949+809348609+808821025
1408+808504069+808309401+807756058+806665471+805964569+806670861+808447440
1398+810039571+810807882+810756502+809803464+808493289+808190963+809349379
1388+810420366+809477897+807306593+807011967+810310468+815904171+821254137
1378+825277409+828635899+831745262+834032834+835436738+836939970+839041275
1368+841258708+843277554+845284500+846975120+847427874+846542805+845562327
1358+845618326+846721933+848169236+849293772+849721887+849280122+848171406
1348+847137798+846914501+847628842+849126824+851429377+854256923+856530426
1338+857179878+856341848+855160332+854794727+855879434+858342004+861521576
1328+864743498+867750942+870425960+872580534+874514191+877177659+880943964
1318+884666380+887103611+888775121+891098463+894566572+898815591+903507565
1308+908151800+911915585+914454734+916263163+917800694+919043810+920158056
1298+921754667+924022850+926094825+926761987+925822179+924221368+922918473
1288+922188872+921781827+921080575+919314076+916299912+912926723+910357263
1278+908946430+908301248+908098600+908354307+909018809+909883439+910761438
1268+911402071+911553689+911398921+911619348+912878213+915318384+918373148
1258+921129645+923227730+925038818+926623249+927415150+927371330+927233502
1248+927335421+927307421+926973175+926504251+925738180+924261267+922206722
1238+920357134+919326186+918861112+918244489+917338630+916821826+917194782
1228+917927533+918063611+917385879+916434731+915757139+915768689+916904915
1218+919079929+921318362+922742215+923494146+924041400+924372216+924429895
1208+924423105+924379426+924355136+925085437+927310221+930475163+933042872
1198+934345627+935319875+937032475+939439956+942067305+944904931+947976424
1188+950884190+953290761+955045640+955909710+955912230+955671152+956055308
1178+957533900+959751404+961715230+962797837+963637687+965467675+968653337
1168+972434272+975823002+978152084+979095113+978636828+976970778+974881303
1158+973921685+975319428+978758487+982684880+985906241+988569570+991456125
1148+994541198+996595044+996528545+994785705+992997087+992745020+995013203
1138+1000092762+1007010220+1012975128+1014747367+1011750843+1007195507
1130+1005068023+1006124100+1007326196+1005836404+1002872849+1001921560
1121+1004551989+1009943185+1016715044+1022935939+1026357639+1026741794
1113+1025899074+1024813107+1023557392+1023314285+1025189563+1028232776
1104+1030477439+1030792856+1029404352+1027820411+1027870181+1030604348
1095+1036209811+1043179558+1048127939+1048650413+1046130373+1044149046
1087+1043902439+1042639794+1037732223+1031423548+1029115256+1032910400
1078+1039614570+1044910917+1047329178+1047812243+1048412625+1052021922
1070+1059893608+1068847971+1073456016+1072200651+1068879331+1067116542
1061+1066481580+1065011947+1062995411+1062430518+1064563883+1068727993
1053+1071887825+1070693919+1065947486+1061837275+1060593740+1061380251
1044+1063467556+1067169391+1071518860+1073741823+1071978894+1067323110
1035+1062702675+1060302543+1060389272+1061559448+1061632738+1059902568
1027+1058671003+1060631399+1064927598+1067762704+1066740227+1063116790
1018+1059962977+1059625092+1062403638+1066199903+1068150220+1067133482
1010+1063628694+1058440356+1053352746+1051291271+1053455995+1057185201
1001+1059058658+1059037939+1059018619+1059484253+1060013937+1060654359
993+1060971385+1059794559+1057100222+1054399164+1052843782+1052005332
984+1050567550+1048842560+1049187236+1052053702+1053567574+1050297843
975+1044880258+1042268659+1042658624+1041961432+1037868441+1032786642
967+1030391480+1031106942+1032404516+1032360487+1030789286+1027494915
958+1021748054+1014035126+1006636914+1001693573+999898024+1000658845+1002298856
948+1003011377+1002231377+1000302480+997469613+994027895+991083380+990007703
938+990670595+991049850+989319121+986048270+983589199+983184324+983321032
928+981457445+977271705+973386751+972693199+975549585+979429499+981281257
918+980531986+979008104+978211093+978287252+978866146+979238611+978321972
908+976094109+974452558+975101170+977095377+977726419+975583115+971735821
898+968165583+966043069+965400476+965566444+965559234+964520867+962577270
888+961235596+962216704+965618664+969330719+970724193+969182811+966516263
878+964857003+964823613+965623774+966166127+966022279+965440586+964483347
868+962740858+960368306+958509968+957936255+958008914+957455921+955797991
858+953920683+953600927+956183476+960789981+964108362+963332981+959555196
848+956797859+957762867+961086988+962750518+960698212+956885498+954522046
838+954591975+955342996+954477597+951328544+947805066+946790008+948928763
828+952240773+954777193+956147287+956355814+955515474+955120189+956818859
818+960173569+963377430+965482305+966587452+966838469+966921768+968069054
808+970046951+970921170+970092030+969415838+970211869+971253526+970799302
798+968892595+966580732+964728554+964454928+966802000+970933560+974025493
788+973783086+970407866+965826001+961906678+959779193+959967211+962026727
778+964573576+966731440+968846255+971161407+972816958+972978096+972115566
768+971272496+970767242+970198779+969171401+967766728+966403004+965163529
758+964034793+963917404+966110338+970305878+974087303+974899783+972739189
748+969988151+968410580+967941656+968592858+970770392+972829138+971523093
738+966869409+963731976+966339865+973283572+979006914+979601137+975907561
728+971765990+970389667+971868609+974353719+976619172+977938307+977563391
718+976446204+976834490+978557239+978735597+976416595+974501278+975215339
708+975848482+972203765+965618314+961692411+962737358+965921970+967966296
698+968210523+967141355+965171509+963368960+963122003+964424478+964247940
688+958393490+947962214+940145548+939368277+941829168+941725079+939659404
678+939991830+943280320+946043257+946290844+945079509+942188123+935580132
668+927993693+927905704+935277316+941308724+940251176+931984065+921084495
658+913320748+910658890+910773618+911646438+913676134+916213673+916316642
648+912814864+908553805+907354159+909904789+912417129+910216495+903437566
638+896788765+893753461+893107859+891145153+888093539+888539014+893841730
628+900399392+903026741+898780101+890387202+883775151+880766726+877016801
618+870714706+866184291+866373848+869089186+870909724+871386488+872062750
608+872760292+872239288+871288910+870365691+867259968+862784921+862102079
##END=
