##TITLE=<SNM>
##JCAMP-DX=4.24
##DATA TYPE=INFRARED SPECTRUM
##DATE=2/5/2025
##SAMPLING PROCEDURE=Instrument type and / or accessory
##ORIGIN=Admin
##XUNITS=1/CM
##YUNITS=ABSORBANCE
##RESOLUTION=4
##FIRSTX=4497.3318
##LASTX=599.83466
##DELTAX=-1.4281778
##MAXY=1.7365427
##MINY=0.18861862
##XFACTOR=1
##YFACTOR=1.6172814e-09
##NPOINTS=2730
##FIRSTY=0.20764038
##XYDATA=(X++(Y..Y))
4497+128388527+127474269+126889318+126878409+127418158+128026926+128081416
4487+127376438+126381938+125960576+126660533+128226771+129889652+130948308
4477+131021925+130219991+129318900+129252174+130080496+130838757+130659660
4467+129691917+128721363+128267026+128273144+128462808+128715651+129082891
4457+129560465+129970328+130127467+129998070+129660581+129241634+128871132
4447+128647009+128651864+128811934+128777806+128377710+128098258+128499147
4437+129274554+129514470+128757555+127399868+126282356+125998574+126362976
4427+126636319+126381579+125799945+125270866+125034350+125258123+125913246
4417+126537097+126514431+125796757+125043600+124841120+125111459+125440932
4407+125609571+125620885+125542219+125460825+125420294+125383273+125285589
4397+125073305+124741796+124360201+123979224+123610555+123362780+123339921
4387+123351328+123074299+122511397+121927542+121369975+120652503+119853610
4377+119491907+119975894+120944338+121425893+120827895+119497878+118135327
4367+117126030+116716950+117195483+118367780+119308518+119175002+118089452
4357+116962928+116626960+117224957+118293747+119368904+120384403+121351566
4347+121975684+121933891+121280196+120334216+119420013+118806334+118646172
4337+118879242+119262505+119486342+119336527+118888133+118479358+118366711
4327+118485254+118627348+118683294+118586218+118254211+117795710+117568011
4317+117812165+118350790+118730837+118626528+118190646+117968706+118271294
4307+118764937+118938357+118752950+118630610+119049272+120093120+121089850
4297+121074758+120015550+119023658+119005838+119696249+120295232+120538318
4287+120778556+121291861+121778676+121621058+120641917+119424657+118679286
4277+118480076+118434192+118399696+118600288+119163144+119909067+120494709
4267+120626014+120387231+120261215+120431245+120478419+120280629+120524046
4257+121670250+123108371+123876334+123631130+122645880+121496120+120899974
4247+121256241+122174903+122889048+123137081+123242855+123389767+123329989
4237+122872464+122252915+121881925+121923479+122214310+122575939+123095306
4227+123888625+124667386+124912646+124523505+123939531+123581597+123464887
4217+123395498+123356266+123536615+123986438+124424688+124538680+124335352
4207+124058885+123914239+123956116+124095574+124195340+124291771+124621530
4197+125221996+125599556+125142703+123964749+123013958+123129738+124186348
4187+125342991+126002766+126323855+126755029+127319221+127675432+127763174
4177+127960725+128560547+129395751+130048229+130303007+130400350+130750259
4167+131315004+131549336+131140165+130461824+130105437+130263563+130665861
4157+130899908+130802666+130615112+130661614+130915811+131068288+130940070
4147+130605769+130164580+129608266+128957216+128396479+128169784+128332480
4137+128662589+128836267+128716093+128463250+128357468+128582844+129178188
4127+129961602+130476087+130376090+129938310+129761996+129942336+129987834
4117+129536823+128831430+128489906+128894047+129745292+130374708+130584974
4107+130814396+131350458+131930719+132286663+132498275+132663596+132716013
4097+132618449+132467528+132395818+132393588+132228387+131740705+131259888
4087+131352412+132084515+132975572+133698158+134287301+134654071+134541332
4077+134099940+133891332+134136785+134467797+134474035+134069240+133393939
4067+132748759+132483441+132654336+132982077+133233538+133362539+133306603
4057+133006715+132577568+132206965+131958766+131767194+131584192+131556753
4047+131965676+132787908+133453736+133397809+132767573+132196461+132030154
4037+132165614+132463751+132858199+133132030+133106260+133034374+133304870
4027+133805175+134044482+133857997+133574546+133503647+133624909+133790995
4017+133966415+134128843+134064098+133552867+132803599+132360622+132495317
4007+133031011+133776723+134723210+135762839+136572098+136873570+136657610
3997+136157757+135691682+135435209+135308677+135197486+135216982+135557051
3987+136140242+136664392+136879909+136649189+136041858+135591842+135994131
3977+137214597+138324656+138527275+137937404+137131610+136416653+135800100
3967+135386229+135538753+136562221+138234334+139869040+140930330+141328436
3957+141163271+140623661+140112254+140147717+141047906+142521381+143608617
3947+143671169+143347095+143558181+143962847+143498882+142118898+140849028
3937+140613093+141886031+144658381+147879153+149550612+148597666+146383961
3927+145185838+145652015+146461467+146432002+146218842+147131663+149089189
3917+150408344+149537068+146736100+143648697+141755583+141773440+144097331
3907+149107626+156452104+163997303+168576775+168804814+165655992+160433348
3897+154689190+150931959+151109249+154400368+156988619+156143445+154456267
3887+155731758+159393802+161976995+162863593+163770388+163587293+160525669
3878+157218666+157401688+161168436+166293968+171131828+173926660+172918533
3868+170063001+168969905+169508631+168624004+165389476+162175697+161267226
3858+163789202+170594761+180801340+187337712+182624475+171887095+163099445
3848+159091906+159956815+164471054+170634307+176842191+182377585+186028683
3838+185883807+182350552+178376439+175497560+173059687+170713692+169350431
3828+169381647+170410727+173196326+179168781+186402059+189395483+187391593
3818+184885040+182448457+177406844+170921995+167022348+167839715+172771316
3808+178688729+182306934+184690005+188616869+192256266+191582412+188358793
3798+186526924+185367728+182759346+179768778+178705498+180053537+183122624
3788+187503669+192781484+197988944+202752284+208069793+214415440+220227669
3778+224250117+228106644+234529760+245042935+259348859+274683088+287036258
3768+295416238+301944261+307963946+314133907+321823743+331371468+340938246
3758+349208435+357870059+369862218+386836009+407162963+425014304+436949448
3748+447814107+462868756+480009941+490725890+493651538+496377432+503538880
3738+515616690+531166335+546342089+555957995+558490733+557113652+555492887
3728+555624533+557626561+559579904+558997782+555057263+548975404+543126394
3718+539621056+539290321+542243204+547986515+553677492+555144609+552479562
3708+549374800+547877130+548033063+549184113+550218296+550671316+551608056
3698+554298938+559172474+566183886+575161688+585360085+594118453+596667997
3688+591577201+584183162+579606160+578705244+580168049+582956117+587768770
3678+595686221+603423194+603793143+597748323+593206406+591421711+587091562
3668+578370749+568920100+561582523+556944636+554797252+555161783+558380243
3658+563518765+567663718+569943190+574033119+583170355+594827392+600263997
3648+594796766+584841685+576839725+571916619+569327530+568871857+570489563
3638+573222312+575799977+578283219+582683944+591241711+602730102+609856169
3628+607033199+600450040+597652647+599574701+604373348+610157641+614786462
3618+617303205+619397002+622456101+625421588+627118090+628466535+630537703
3608+632386932+632645653+631789367+631525855+633016412+636139270+639926252
3598+643137783+644974554+646162091+648297902+652104860+657147560+662168221
3588+665139310+664720050+662117582+659802140+659185190+659747447+659826907
3578+658708583+657504609+657693454+659937840+664573515+671577777+678823585
3568+682029588+678943142+672033008+665197394+660536215+658186424+657298959
3558+657209107+658118611+660262015+662299940+662141390+659794474+657302424
3548+655966657+655738157+656629012+658537208+660114079+660296732+659854105
3538+659462338+658291608+656132578+654630890+654788039+655525800+655577396
3528+655123492+654883567+654651750+653387261+650739093+647853728+645968382
3518+645105979+644611018+644249988+644424606+645731774+648325691+651292653
3508+652883381+651937244+648999029+645744747+643417216+642090589+641574695
3498+642107616+643533014+644873203+645444159+645267771+644158367+642102236
3488+640341975+640261115+641440986+642084619+641226122+639789373+639241121
3478+639603035+639548711+638549355+637608525+637534226+637628501+636400497
3468+633302701+629831122+628271499+628889481+629473188+628316683+626224066
3458+624674688+623674153+622446740+621325026+621788733+624442134+627704082
3448+629350241+629084517+628238699+627582093+627060302+626657847+626255171
3438+625272990+623635750+622581702+622933887+623200569+621544312+618880371
3428+617457590+617342381+616782593+615367736+614636868+615463374+616503271
3418+616065398+614488159+613251347+612589729+611514452+609602092+607494658
3408+606061152+605970490+607249352+608743742+609293506+609446859+610233378
3398+610789518+609605372+607498233+606598533+607265126+608144151+608286300
3388+607877469+607508110+607522594+607933857+608772858+610070074+611111629
3378+610619027+608324850+605417483+603111660+601861065+601922944+603366400
3368+605201845+605708230+604215646+601850635+600094096+599292209+598977653
3358+598933464+599354014+600359193+601632970+602502523+602577854+602295546
3348+602365497+602769905+602976550+602805986+602498248+602232488+602022894
3338+601972329+602154724+602166849+601301313+599604443+598339695+598809779
3328+600854964+602838197+603168637+601796753+599981357+598765590+598443847
3318+599136423+600557730+601473868+600906156+599518608+598522200+598225372
3308+598588650+599851739+601744235+603325086+604159590+604546345+604491579
3298+603826275+603235971+603780243+605280272+605974286+604216641+600533148
3288+597657217+598076331+601308279+604192502+604561971+603596596+603506928
3278+604404011+604647733+603366511+601510575+600595912+601199999+602660851
3268+603751386+603629912+602344416+600655727+599631531+600162130+602141346
3258+604038301+604170426+602792386+601854799+602321492+602975260+602347364
3248+600889940+600333063+601278905+602473076+602578297+601558228+599802095
3238+597414713+595135241+594311240+595098644+595914463+595273962+593319919
3228+591218861+589865183+589508318+589968487+590816407+591588479+591965172
3218+591690272+590527317+588664748+586853885+585643498+584903085+584614990
3208+585437517+587656952+590275120+591978735+592406251+591798441+590269997
3198+588147416+586123201+584364378+582302276+579909733+578266929+578223440
3188+579228508+579989413+579793272+578986114+578614654+579336161+580248650
3178+579674857+577572621+575654105+574606986+573008517+569745169+565956529
3168+563637401+563527131+564938561+566700149+567788951+567557060+565901578
3158+563389478+561051150+559725739+559427031+559418628+558880805+557439044
3148+555344694+553384938+552361848+552366934+552703934+552648615+552023483
3138+551058218+550186822+549874736+550063801+549984158+549089175+547805521
3128+546757959+545864819+544914554+544338697+544542983+544980745+544636042
3118+543211012+541396280+540139383+539946116+540623213+541314720+541054525
3108+539779790+538433409+537655846+537030272+536038140+534948895+534190054
3098+533564222+532578576+531120488+529652670+528846029+528916642+529337893
3088+529486750+529373090+529282500+529000008+527990112+526329654+524831136
3078+524069715+523822862+523607224+523209081+522600792+521946913+521657566
3068+521889973+522184517+522025783+521378980+520351062+518998784+517709197
3058+517018758+516952088+517054065+516888808+516119279+514591314+512801385
3048+511734659+511828454+512506362+512924886+512834850+512533156+512223207
3038+511729868+510870487+509857568+509089735+508574725+507853955+506664944
3028+505391646+504630078+504531565+504728775+504713591+504206837+503241904
3018+501857378+499849526+497262059+494878399+493472976+492898225+492700867
3008+493033777+493967384+494663793+494350895+493369819+492337515+491175519
2998+489792099+488794181+488648752+488814303+488449735+487486166+486328039
2988+485042432+483558582+482168897+481219922+480657554+480261291+480000985
2978+479911465+479842435+479484980+478617049+477341687+476110809+475411526
2968+475279180+475136589+474318669+472843628+471452468+470815764+470923159
2958+471288170+471504581+471427518+470899867+469678682+467941971+466547421
2948+466226932+466628797+466635799+465633126+464075715+462765267+462024890
2938+461739708+461675433+461468014+460771052+459688367+458699663+458070366
2928+457618010+456961072+455804015+454194564+452601440+451568473+451271349
2918+451394112+451352945+450790614+449898801+449060501+448355062+447660533
2908+446954505+446277703+445655593+445164281+444863877+444632724+444206755
2898+443443676+442465438+441470652+440547770+439748905+439107741+438567449
2888+438148520+437993767+437937490+437457640+436440888+435433314+434904189
2878+434778182+434627999+433985730+432722567+431298090+430333268+429972090
2868+429877889+429685581+429313531+428970228+428893497+429029786+429039036
2858+428630021+427823085+426876837+425960589+425020569+424019113+423034167
2848+422065917+421119742+420421159+420083311+419726740+418902813+417715572
2838+416653931+415992313+415649932+415468532+415300732+414875501+413932349
2828+412609297+411444721+410888508+410947144+411219501+411145349+410430808
2818+409376464+408580179+408243547+407960723+407215776+405950033+404616367
2808+403725917+403350661+403087076+402521096+401632710+400672605+399813518
2798+399090205+398514348+398017103+397390165+396535981+395702214+395198334
2788+394919896+394447528+393663146+392955460+392652881+392555879+392258203
2778+391622531+390710079+389558697+388238151+386932458+385854638+385094101
2768+384472397+383657684+382636031+381849217+381572806+381455018+380996323
2758+380207740+379456896+378860880+378164729+377134783+375842763+374604293
2748+373780035+373540663+373628451+373471228+372759709+371768571+370920394
2738+370294009+369769639+369334715+368979471+368547975+367908838+367100501
2728+366239166+365445534+364815427+364326695+363873639+363422314+362954847
2718+362316116+361360249+360197774+359097325+358221581+357546658+356923590
2708+356222722+355468598+354768209+354189588+353820855+353742465+353807956
2698+353687698+353210391+352456673+351569946+350682150+349914869+349283508
2688+348698254+348112630+347572891+347148803+346875155+346697552+346477823
2678+346120000+345619916+344960620+344112111+343167190+342326347+341742787
2668+341454067+341387912+341370996+341221771+340852264+340223189+339306646
2658+338231001+337336386+336855983+336582336+336081663+335262306+334486733
2648+334047940+333812953+333520915+333171937+332929137+332812897+332669421
2638+332338354+331739058+330896814+329993834+329310656+328985522+328875400
2628+328725990+328392233+327850061+327177350+326590732+326297109+326234198
2618+326101668+325684471+325061293+324506148+324203791+324042588+323739494
2608+323172261+322491589+321917759+321527393+321243905+320963219+320628761
2598+320192732+319640720+319098917+318749312+318604030+318536033+318473564
2588+318377668+318144819+317705915+317114100+316481155+315948050+315652400
2578+315582486+315520902+315213164+314584494+313823184+313245521+312995608
2568+312907931+312726015+312372356+311961204+311656709+311550751+311604191
2558+311694375+311719694+311623466+311363087+310953961+310523423+310209567
2548+309998720+309751646+309403404+309040918+308771694+308606750+308470295
2538+308244375+307835673+307272973+306715986+306328513+306155406+306121794
2528+306144497+306248538+306521964+306926427+307237427+307228692+306876710
2518+306362917+305895155+305548628+305303746+305185386+305226406+305286793
2508+305094558+304561121+303951689+303658343+303814866+304162831+304302050
2498+304040767+303491077+302908845+302487539+302230550+301990293+301662396
2488+301297256+301003652+300824538+300707947+300556142+300363189+300275419
2478+300364313+300425308+300235653+299886011+299594360+299334718+298925961
2468+298400319+298026979+297958595+298016310+297889382+297471171+296927415
2458+296503142+296334642+296361509+296354101+296116645+295696924+295308972
2448+295082388+294995374+294995964+295051320+295098862+295071608+294975270
2438+294847383+294654282+294355150+294045606+293859784+293766781+293666536
2428+293612193+293699337+293810214+293705565+293336722+292925569+292741350
2418+292843752+293070667+293284572+293521309+293816332+294034200+293998727
2408+293703612+293343245+293171538+293267490+293436617+293477563+293466230
2398+293559196+293642838+293490978+293196176+293124991+293444983+293937824
2388+294290415+294359167+294133505+293672598+293141576+292702211+292282729
2378+291630085+290695022+289833393+289507836+289858123+290570416+291071955
2368+290944603+290339668+289903860+290109491+290810710+291665171+292761492
2358+294455156+296671698+298954984+301430450+304923901+309578760+314261941
2348+317676505+319490426+320465863+321414506+322005953+321302615+319128511
2338+316225788+313333862+310516605+307470239+304239065+301269044+298840863
2328+296849946+295073948+293349068+291654262+290218729+289322272+288910751
2318+288648271+288330914+288015123+287776783+287573031+287384389+287324279
2308+287506452+287873213+288191031+288195140+287793183+287177136+286660855
2298+286389290+286292528+286286834+286378547+286572440+286785129+286890682
2288+286834478+286675376+286507613+286386950+286330912+286308928+286242958
2278+286097123+285917216+285719748+285464952+285190402+284998241+284881319
2268+284749342+284625620+284619244+284717057+284785202+284772542+284769004
2258+284853346+284985139+285077995+285113670+285127030+285118627+285070569
2248+285027633+285071287+285226557+285453841+285694300+285880362+285959010
2238+285964243+286048825+286377644+286942223+287545647+288070516+288655162
2228+289443856+290298943+290973479+291456904+291963437+292670792+293611622
2218+294740191+295975878+297207106+298364680+299510939+300762898+302126048
2208+303527379+304994386+306625268+308405080+310239235+312123807+314080873
2198+315988148+317724416+319438276+321375588+323475650+325453133+327207976
2188+328812046+330222113+331362328+332344177+333321162+334274191+335106484
2178+335816050+336490678+337180122+337772489+338018790+337737625+336998243
2168+336076946+335204408+334371046+333421481+332240505+330747183+328897513
2158+326791001+324569723+322265706+319924355+317608876+315201739+312596876
2148+309960686+307485644+305432959+304661440+306188557+309923426+314649469
2138+319370574+323955058+328565782+333228067+337924147+342658041+347421897
2128+352199168+356978835+361799338+366761657+371957305+377436588+383199873
2118+389124620+395020252+400840994+406744071+412981089+419931027+428206228
2108+438573088+451862353+468993403+490641087+516446292+544691840+572906614
2098+598598859+619879284+636405215+649408928+660118649+668785581+675132352
2088+678637395+678572825+674268180+665089851+650831083+632297890+610541227
2078+586211653+560339593+534368726+509253923+485647183+464319767+445624709
2068+429339072+415207932+402981708+392286065+382953941+375009070+368328320
2058+362794271+358364504+354722988+351495352+348764703+346782613+345522177
2048+344876444+344829085+345442608+347119613+350611351+356597351+365686049
2038+378705315+396443991+419128881+446201302+476265600+507366624+537704973
2028+565884109+590644479+611270068+628067324+641813146+653213896+662844212
2018+670820631+676646128+679658716+679500093+676368095+670894341+663438902
2008+653650994+641061676+625941831+609255361+591805480+573728661+554897092
1998+535594665+516634510+498719705+481722806+464967823+448386647+432824581
1988+419019938+406986317+396413254+387034030+378607650+370964878+364084117
1978+357998977+352700210+348087716+343982235+340344478+337409506+335281618
1968+333444921+331098742+328090134+325080531+322673173+320852839+319373154
1958+318191072+317270106+316356991+315238004+313992900+312868128+312062407
1948+311742581+312173672+313470778+314922379+315081592+313350078+310871922
1938+309072429+308252188+307939622+307734912+307536486+307408341+307406241
1928+307574851+308188816+309515443+311119845+312222025+312877341+313536085
1918+313606256+312160994+309894384+308555540+308865582+310028204+310768471
1908+310504148+309652248+308947565+308671467+308647051+308725736+309017276
1898+309674766+310529430+311160311+311640272+312695536+314401215+315426664
1888+314693327+313015510+311823698+311468233+311518467+311636291+311702409
1878+311703330+311730124+311984901+313026751+315777706+320422780+324993296
1868+326246544+323425122+319239002+316362040+315340313+315362868+315571798
1858+315601688+315495988+315436689+315557609+316026182+317091250+318971657
1848+321974700+326247466+330395773+331302807+328021731+323706140+321346178
1838+321101093+321514531+321829308+323055394+326469848+331159884+334142288
1828+334183897+333059603+331864180+329898306+327237239+325281500+324775520
1818+325173589+325769901+326663483+328394149+330780684+332558709+332688844
1808+331683923+330998902+331770716+334319228+337872919+340663604+341361487
1798+340730348+341051944+343990380+348833105+351943433+350109610+345341478
1788+342033978+341796817+343379474+345286048+347163876+348734961+349373066
1778+349588740+351386888+356419379+363884879+369722833+370112720+366218749
1768+361398652+357677382+356520398+358599011+362115773+364077520+364261241
1758+364475994+365005451+365721135+368298357+374152895+381313458+385405341
1748+384933930+382552260+381009111+381263557+383036127+385120563+386166577
1738+387096130+390954684+398445946+404288654+402899632+397301972+392186041
1728+388733922+387296362+388022145+390124234+393495788+399957473+410802194
1718+422862571+428596078+425259388+418300274+412878374+410991259+413247660
1708+419333130+427201712+433943678+439561645+447070819+456966085+464397273
1698+466162141+464261058+459627409+453801544+450869557+452721550+457973327
1688+465565719+476899908+491310998+499985816+496542394+488874930+485070405
1678+487013060+493310778+500578773+506138952+511207745+517339764+521742811
1668+521204731+519124275+520819155+526685229+532443650+534576256+535029533
1658+538274675+547471837+563376174+580046317+583561053+576492590+573721843
1648+577333986+579521136+574043217+565577882+560681238+561105768+566809202
1638+577174662+588159173+591151196+584156148+576367762+574218683+577370251
1628+582464732+587135493+591430003+594813166+595622978+595372144+598140090
1618+604747867+610221806+609645285+606113523+604778088+606512661+609375508
1608+611527978+612799912+614028284+615566679+616903293+617566385+617923361
1598+618717399+620098865+621553378+622662488+623444032+623956904+624196313
1588+624448252+625196921+626576472+628205087+629788813+632080742+636807227
1578+644553746+651758940+652799205+649582515+649065884+653065076+657386011
1568+658074090+657033457+657827974+662068934+671635934+689304069+711963382
1558+722900129+717115615+710114154+709081407+713133302+720287416+728826608
1548+737798845+748059600+760975894+776139448+791280448+801185849+798054957
1538+785576203+776367875+774197272+774904443+773682926+771455272+772366545
1528+777315781+783633438+789268690+795043548+800872804+803749250+802928567
1518+801178478+799321584+796583490+794258024+795215734+801602161+813782317
1508+827724207+831351313+818472537+802872547+795011558+795028290+799968239
1498+805609388+807293433+804419861+802006017+804522981+811220168+816301640
1488+814891205+809149516+803929249+801274227+800888946+802109652+804854158
1478+809434183+815887170+823470200+829749085+830474168+824586607+817551092
1468+814832679+817066009+820515180+821261121+820961934+824596853+833947146
1458+844062546+844844827+835445001+825912128+821196183+820342994+820950509
1448+820856750+819355505+817588463+816897803+817660846+820220267+825289576
1438+831859467+835484804+833112089+828661573+826720650+826804752+825788591
1428+823018286+821054292+821512914+823542362+826316131+830074440+833277420
1418+832068066+826153527+819798500+815838743+813952217+812594927+811176753
1408+810659238+811743728+813208560+813589787+813871579+816037096+820032086
1398+823972458+826289890+826131783+823295803+819647690+818151974+819512065
1388+821048838+819568674+815962796+814452559+817350086+823242585+829385770
1378+834682179+839994730+845682022+849932195+851116415+850691700+851224621
1368+853423601+856742896+860878451+864932262+866603260+864576023+860629386
1358+857312819+855378014+854134236+852854342+851410443+849964554+848580434
1348+847229556+845962561+845121902+845414603+847412061+850686393+853661610
1338+854867427+854369444+853452864+853125004+853441144+854184212+855553737
1328+857687117+860006244+861797831+863250649+865275159+868302342+871744584
1318+874767639+877136741+878915282+879952377+880330066+880701046+881585047
1308+882815261+884054763+885433797+887250004+889231688+890706766+891624526
1298+892623365+893794686+894267607+893293386+890969984+887895332+884847437
1288+882553444+881020062+879272405+876358736+872597626+869360886+867473992
1278+866377414+865284078+864394107+864243961+864725432+865488033+866421418
1268+867121734+866916526+866027440+865788326+867194412+869743292+871886549
1258+872408192+871325323+869609436+868306322+867920673+868326740+869110716
1248+869970392+870773016+871412448+871778416+871862151+871819768+871927163
1238+872495243+873732681+875630189+877996270+880595199+883257740+885879888
1228+888291374+890116352+890940868+890874824+890763449+891333667+892271918
1218+892815379+893083756+893963702+895811014+898233188+901058774+904579591
1208+908825416+913213869+916928541+919535874+921391957+923234552+925308447
1198+927407846+929643387+932241284+934691468+936287577+937552066+939855789
1188+943446408+946881721+948766183+949412985+950209566+951874299+953967654
1178+955759462+957022846+958078442+959490572+961400095+963085098+963931064
1168+964560176+966129603+968894600+972337653+975993358+979200171+981228072
1158+982480473+984112552+986031584+986731310+985738514+985116920+987116664
1148+991134357+994652962+996534623+997729899+999160162+1000424725+1000524601
1138+999125149+997249091+996745211+998824856+1002826555+1006648917+1009087012
1128+1010835332+1012349697+1012620285+1011212578+1009530007+1009074187
1120+1010303959+1013424016+1017947726+1021481294+1021748197+1020049189
1111+1019916290+1022687258+1026369941+1028536858+1029303881+1030873455
1103+1034468128+1038462898+1040352519+1040182397+1040418858+1042563146
1094+1045207849+1045807699+1044043679+1042109758+1042353442+1045971408
1085+1051965110+1056521768+1055963934+1051278504+1047780833+1049684385
1077+1056128159+1062421933+1064486320+1061916285+1057735767+1055943074
1068+1058128123+1061885916+1063798167+1063019276+1060423959+1057062060
1060+1054591754+1054837355+1057859747+1061835646+1065276414+1067755492
1051+1069057573+1069377326+1069323739+1068736273+1067225814+1066242011
1043+1067722838+1070550784+1071375448+1069458849+1067750479+1068611556
1034+1071134122+1073142784+1073741823+1072631018+1069482362+1065403637
1025+1062695175+1062500729+1064024898+1065795035+1066893826+1067087535
1017+1066685891+1065920858+1064030647+1060694768+1058005397+1058345641
1008+1060632778+1061157812+1058592200+1055705286+1055612191+1058285936
1000+1061004349+1061319974+1059276741+1057003314+1056080321+1055670569
991+1054283427+1052441791+1051231699+1049523772+1045696102+1041262613
983+1039188864+1039662891+1040692689+1041165095+1040810698+1038869849
974+1034892770+1029975524+1026164144+1024630024+1024347863+1022792958
965+1018821996+1014076420+1010240937+1006687246+1002238794+997700784+994748490
955+993385377+992125236+990089891+987611182+984997658+981879075+977939146
945+973760618+970686925+969741745+970596925+971978097+973077993+973828578
935+974028774+973356468+971942274+969987862+967541512+965250099+964063078
925+963780107+963409863+962856451+962664363+962616821+962075202+961150293
915+960427275+959961430+959337182+958585417+958360824+958883352+959448410
905+959598336+959744871+959924132+959359737+958002005+957025205+956867540
895+956281621+954351534+952297540+952079728+953439745+953565420+950987719
885+948240633+948285596+950291236+951123418+950032589+949419988+950884157
875+952819109+952739724+950845017+949715563+950758039+952327834+951725774
865+948608297+945619075+945316865+947019264+947448475+944952518+941964917
855+941851773+944613232+947197346+947467418+946254305+945257529+944772150
845+944178640+943487464+943315205+943716554+943930902+943222699+941843591
835+941102072+942134818+944736033+947592283+949427138+949369128+946963244
825+943240021+940889198+942095531+946157376+950107109+952252061+953453234
815+954570304+955233028+955373223+955561699+955914621+956543070+958075420
805+959967695+959748335+956290614+952349652+951412508+953520973+955535311
795+955101456+953160090+952105968+953121540+955781649+958802124+960907198
785+961788029+962079256+962219231+962009969+961095306+959338141+957387709
776+957034787+959402563+962432768+962728565+960261133+958086108+957705176
766+957681368+957056236+957257095+959294062+961929478+963517479+963231928
756+960748207+956970954+954194237+953481317+953549720+953692790+955619340
746+960795528+967252643+970674615+968795976+963814308+959767868+958529988
736+959081115+959940496+961170563+963173992+965059043+965582529+964530471
726+962431883+959902830+958109179+958513845+961036927+963912858+965722504
716+966285130+966396800+967416721+969621746+970764025+968017381+961652108
706+954808607+950146618+948307119+948527511+949629176+950642905+950759735
696+948551909+942633906+934444245+928191454+926172251+926166501+925473630
686+925137441+926642887+927333620+923517818+916373581+910710909+909215708
676+910474448+911451912+910108185+905306294+896159882+885752149+882912632
666+889093778+896440126+900322194+901757026+902922081+903734952+903215667
656+901154155+897458720+892497985+888270440+886724822+887475408+888616507
646+889060092+888938471+887954889+885308712+882145682+881877748+886254333
636+891817940+892124203+885100851+875804218+870597514+871919128+877094137
626+880183236+876940895+868728900+860997492+857752128+858167630+858098933
616+853828784+846387276+840431829+838737170+841909929+850478605+862192105
606+869425382+866895593+858791730+851975575+849802687
##END=
