##TITLE=<SNM>
##JCAMP-DX=4.24
##DATA TYPE=INFRARED SPECTRUM
##DATE=3/5/2025
##SAMPLING PROCEDURE=Instrument type and / or accessory
##ORIGIN=Admin
##XUNITS=1/CM
##YUNITS=ABSORBANCE
##RESOLUTION=4
##FIRSTX=4497.3318
##LASTX=599.83466
##DELTAX=-1.4281778
##MAXY=1.704445
##MINY=0.17714362
##XFACTOR=1
##YFACTOR=1.5873881e-09
##NPOINTS=2730
##FIRSTY=0.19827358
##XYDATA=(X++(Y..Y))
4497+124905549+124522091+124485152+124706240+124948280+124893984+124466988
4487+124005315+123947875+124500960+125515090+126450479+126643340+125917201
4477+124886728+124439765+124893806+125792820+126434192+126391640+125704533
4467+124851085+124407107+124537007+125024326+125776083+126791846+127677154
4457+127844388+127249294+126422496+125769136+125257655+124744962+124287185
4447+124071748+124148573+124304420+124285927+124096155+123888416+123645306
4437+123219455+122555881+121664171+120637500+119818437+119525959+119584723
4427+119595866+119517379+119496230+119426830+119092448+118417657+117369414
4417+116093832+115225317+115444555+116595898+117719323+118093047+117885514
4407+117697075+117796232+117868185+117352010+116076212+114550357+113470461
4397+113047247+113031740+113181278+113359551+113411556+113358415+113548562
4387+114240851+115155851+115675903+115416732+114538069+113595583+113070321
4377+113010027+113131563+113208313+113293990+113572687+114033131+114385724
4367+114421846+114326847+114369334+114445333+114253477+113706962+112920154
4357+112091703+111594397+111829668+112802842+114035900+114946169+115239003
4347+115082030+114931647+115008998+114991350+114448233+113522907+112856095
4337+112790704+112962687+112820583+112304521+111824740+111827660+112521037
4327+113669329+114576688+114717994+114405841+114394079+114883322+115315153
4317+115195897+114791562+114739941+115148069+115472689+115343314+115076943
4307+115198657+115812572+116616747+117255294+117529110+117460761+117192362
4297+116803618+116363893+116194557+116789228+118133074+119318051+119433889
4287+118721916+118149220+118063693+118052550+117833462+117515310+117263555
4277+117286610+117802278+118661894+119317544+119334291+118802035+118222966
4267+118009444+118166427+118548336+119089350+119536538+119527170+119213496
4257+119145730+119408638+119554815+119349601+119010253+118885929+119196730
4247+119796602+120192968+120121597+119874769+119793147+119793898+119702730
4237+119697201+120071469+120717423+121105884+120856738+120255524+120038736
4227+120644521+121799337+122779982+122955477+122248450+121268621+120842967
4217+121281594+122266098+123314491+124064182+124369642+124435653+124556617
4207+124726826+124953462+125565433+126542192+127085224+126549026+125310627
4197+124268617+123892621+123960078+123968705+123756310+123644921+123827737
4187+123973887+123828460+123796609+124362940+125251281+125786615+125874076
4177+126019512+126569406+127432063+128318433+128908260+129038348+128858527
4167+128593507+128288244+127925090+127480135+126885774+126278965+126068598
4157+126446875+127109584+127627205+127809345+127720476+127619845+127820403
4147+128411761+129128531+129580000+129656665+129612977+129649747+129619126
4137+129345263+129002057+128963541+129419422+130210906+130978414+131413127
4127+131364783+130915229+130443052+130348344+130647740+131087165+131515382
4117+131830342+131864906+131627118+131321874+131008735+130593247+130140051
4107+129877199+129929214+130255871+130815987+131579131+132323800+132701664
4097+132664190+132527043+132465509+132333901+132046952+131735437+131594826
4087+131877578+132792138+134140471+135251721+135476385+134799341+133956866
4077+133767874+134292150+134900704+135164391+135268458+135500867+135750135
4067+135691005+135242503+134631319+134100669+133808107+133929643+134515096
4057+135231266+135532586+135183692+134555283+134332167+134786077+135393665
4047+135487781+135155924+135027451+135346729+135789543+136060955+136167641
4037+136149345+135990523+135881115+136210644+137090189+138059119+138469913
4027+138144787+137585581+137499791+138055824+138705927+138900420+138743316
4017+138632894+138509142+137961173+137002644+136262828+136283254+136906772
4007+137545863+137895087+138145622+138595730+139313101+140111672+140656741
3997+140703480+140372177+140041634+139924097+139951536+140038039+140201489
3987+140481350+140890258+141331917+141581523+141596956+141738947+142328117
3977+143111199+143509339+143249435+142501424+141584480+140764741+140231660
3967+140136408+140568623+141407212+142312506+143031116+143548117+143831752
3957+143724485+143200556+142517654+142122433+142421520+143322862+144033653
3947+143856469+143069717+142484818+142538381+143197195+144194531+145038423
3937+145296046+145059235+144747363+144496208+144161854+143804163+143703176
3927+143963896+144436374+144956501+145524118+146234693+147056300+147734123
3917+147948696+147592986+146933421+146393290+146089989+145730045+145138941
3907+144720431+145069823+146220086+147522939+148327949+148481477+148173022
3897+147759140+147676345+148115657+148711774+148845983+148613105+148916293
3887+149973641+150656374+150081773+149239007+149420246+150263171+150704849
3878+150715495+150879133+151376139+152227381+153452338+154465867+154471518
3868+153807710+153390909+153254587+152909654+152423105+152168129+152123596
3858+152290539+153226041+155383365+157513719+157533526+155971399+154581565
3848+154187677+154823455+156046422+157159051+157864670+158583111+159618221
3838+160462057+160597158+160285164+159861294+159295883+158650305+158284147
3828+158575264+159785614+161990221+164690643+166544544+166493890+165559036
3818+165273458+165482568+165315794+164805505+164510408+164746290+165643371
3808+166959759+168129858+169207079+170715436+172313084+172979427+172808955
3798+172599864+172410786+172147681+172338505+173454401+175222278+177029036
3788+178647430+180257207+181985619+183958175+186581809+190054047+193743281
3778+196856797+199537223+202512953+206228565+210653006+215386136+220049913
3768+224905077+230508497+236755185+243080950+249476332+256518418+264424184
3758+272632106+280735023+289342559+299549847+311702823+324383831+335605839
3748+345485850+355595886+366359873+375815920+383163447+390732926+400522069
3738+412674538+425881230+438308144+448754844+457092384+463658932+468577310
3728+471906882+474217415+476484428+479146381+481744913+483997959+486618195
3718+490372407+495329084+501693544+509957640+519475980+528476184+536384240
3708+543941891+551453207+558455059+564104513+568097724+571639296+575849352
3698+580012884+583289662+586293573+589999647+594773011+600493770+606111120
3688+609824029+611518196+612640495+613403638+612734330+610545455+608484360
3678+607476886+605974930+603070750+601591587+603655761+607903103+611847275
3668+614162013+615329671+616739744+619295358+622259354+624179003+625057684
3658+626240774+628776600+632556158+636623678+640055345+642227547+642674154
3648+641751127+641238961+642852136+646547846+650811146+654120780+656340669
3638+658760920+662635363+667921645+673376521+677024695+676428719+671081683
3628+666427725+668323718+675170907+681775379+685245346+686721092+688234087
3618+689458180+689771188+691079766+695628663+702183270+706818604+707588657
3608+706060793+704368164+703007017+701594804+700570771+701285927+704343382
3598+708699052+712697782+715069895+715162190+713683591+712389656+711992014
3588+711346774+709655272+708067104+707754623+708733672+710805094+713633275
3578+715941104+716316668+714844902+713004106+711963927+711869830+712585586
3568+713882224+715708226+718365185+721768615+724803015+725837262+724631868
3558+722687887+721049780+719411071+717687052+716956126+718182772+720952453
3548+724079298+726648393+728175430+728498877+728190075+728305500+728883152
3538+728545888+726457494+723772975+721940364+720990452+720897106+722453657
3528+725203587+726741514+725614522+722939840+720335600+718560664+718465440
3518+721108957+726245643+731723649+734812796+733986495+730238741+726643211
3508+725388027+725730548+725426102+723574942+721518615+720925268+721916182
3498+723473635+724798510+725696829+725939620+725113244+723248867+721026650
3488+719328164+719145300+721545124+726111819+730088396+730475750+727234155
3478+723633443+723000819+725485504+728155530+728320820+725820290+722213194
3468+719363835+718436753+719162122+720578842+722681729+726011939+729433018
3458+729984460+726533193+721635692+718154986+716537080+716304277+717651906
3448+720385164+723248342+725648992+728704119+733232964+737588184+738841941
3438+736247764+732155011+729229728+728200363+728297089+728729126+729153429
3428+729234835+728472517+726543106+724091614+723199603+725555870+729573601
3418+731260822+728948562+725255329+723597471+724755554+727076149+728565563
3408+728407257+727227997+726252477+726161008+727087715+728878646+730228153
3398+729549569+727908533+727926256+729500005+729667323+727216357+724309022
3388+722859260+723077644+724798510+727259688+729090046+730097558+731116559
3378+732006167+732165374+732081415+732221773+731729282+729799570+727189172
3368+725299712+724615421+724605208+724675725+724834857+725375260+726459071
3358+728315488+731040335+733914026+735710139+735866643+734578941+732125798
3348+729094101+726693226+726107463+727935944+731971021+736621826+739036970
3338+737235374+732808887+730014049+731234613+734457809+735514284+732760449
3328+728679862+726540928+726917543+727878269+727814811+727336889+727960801
3318+729329383+729351536+727816989+727157330+728533497+730013598+729670251
3308+728640961+729810309+734121671+738764815+739418091+735016611+729149599
3298+726059776+726907255+729568419+731200443+731416424+732253089+734626854
3288+736422066+735436332+732721548+731052050+731736942+734339455+737618523
3278+739755204+739705340+738699931+738424998+738309272+736585403+733137890
3268+729649599+727726721+727986485+730084040+733019161+735711491+737433783
3258+738049809+738015039+737973735+738192721+738227040+737436411+735803786
3248+733814371+731664247+729321197+727437295+727088916+728343649+729927536
3238+730618361+730393217+730037855+730286053+731517957+733595837+735259402
3228+734548376+731126923+727356865+726043180+727695931+730371664+731596509
3218+730769157+729498503+728831785+727692327+725406801+723811950+724760810
3208+727294909+729144943+729851237+730840274+732931296+734651110+733368591
3198+728460727+722735274+719681724+720126152+722107982+723488805+724112867
3188+724753301+724841691+723220405+720504720+718556083+717956578+717571251
3178+716438702+714820345+713356315+712184940+711085133+710033314+709533463
3168+710286468+712125613+713609244+713562833+712465430+711319588+710210695
3158+709039020+708459866+708986752+710031587+710419842+709470681+707590234
3148+705936881+705200022+704562067+702706551+700007237+698297036+698173050
3138+697896990+695688966+692364313+690498885+691276597+693252194+694214271
3128+693485598+692013381+690996783+691034858+692081720+693880462+696108462
3118+697675001+696909830+693716448+690337124+688688804+688468016+688648026
3108+688916951+688990546+688265102+686601687+684533645+682923323+682732951
3098+684053545+685259314+684482128+681931282+679419487+677925417+676946593
3088+676097463+676103170+677583572+679635318+680514413+679452756+677405065
3078+676121194+676318626+676702826+675503890+672937424+670622310+669046609
3068+667552690+666158124+665680653+666473535+668064856+669699509+670699962
3058+670597228+669413237+667735252+666098797+664443417+662605249+660968869
3048+659931243+659182969+658300721+657436946+656892563+656529615+656070693
3038+655623561+655343972+655027510+654640681+654608239+654966606+654794256
3028+653169591+650519692+648349141+647805133+648723128+649756173+649552433
3018+647950673+645748431+643649899+641986634+640963352+640511564+640137201
3008+639372556+638297532+637287542+636424293+635575613+634911974+634698772
2998+634374500+632853169+630240668+628127718+627618893+628054235+628260754
2988+628104588+627853912+627062757+625492049+624117423+623624819+622983709
2978+621088279+618705202+617373569+617396211+617848787+617874846+617432633
2968+616936763+616501796+615952869+615443631+615301884+615255136+614537277
2958+612905665+611073730+609928001+609540234+609100950+607876969+606034934
2948+604274755+603016004+602301223+602103491+602237202+602167061+601315715
2938+599657594+597872896+596736179+596407138+596368763+595922044+594745187
2928+593125704+591703090+590917905+590551540+589780136+588077107+586175031
2918+585387330+585743820+585767888+584435391+582294091+580416610+579276438
2908+578737124+578432377+578030228+577456181+576889193+576459671+576000599
2898+575107161+573539983+571670312+570311305+569823395+569653712+569095360
2888+568007419+566482446+564631737+563020289+562362095+562511239+562546047
2878+561946729+561012250+560234050+559825480+559579460+558956073+557675469
2868+556133637+554815408+553628451+552329410+551288179+551211279+552067469
2858+552806093+552427187+550932629+548980125+547174699+545858236+544921617
2848+543783135+542064447+539999409+537931480+536083436+534840644+534463953
2838+534526660+534197056+533032252+531308871+529791296+529068104+528911225
2828+528580607+527800980+526964428+526389555+525863683+524968630+523657911
2818+522421126+521815050+521893001+522208374+522230228+521607668+520299352
2808+518657828+517186287+516114004+515252595+514202991+512779400+511290925
2798+510221533+509672118+509370037+509077231+508656421+507927559+506843035
2788+505612596+504371117+502981921+501387596+499873475+498745845+497956605
2778+497213212+496317596+495347784+494516827+493792772+492826226+491541867
2768+490491136+490094019+489880479+489065931+487525526+485708310+484057474
2758+482863006+482164597+481575868+480595505+479142739+477588440+476403210
2748+475833368+475658578+475258457+474182870+472619710+471074423+469696755
2738+468183986+466347507+464535586+463272254+462600730+462093257+461455564
2728+460758282+460044064+459080523+457656068+455911885+454259171+453066844
2718+452427650+452071874+451503797+450431626+449102283+448024293+447345972
2708+446720783+445809847+444647372+443442841+442316487+441330229+440532352
2698+439882832+439287344+438700680+438076843+437303224+436325977+435281179
2688+434376401+433644686+432918529+432085920+431224023+430400839+429530718
2678+428531543+427445554+426343494+425299748+424451669+423855243+423314577
2668+422584701+421705006+420920535+420329290+419828651+419345923+418868564
2658+418300374+417510534+416434120+415025962+413396791+412024492+411366824
2648+411226503+410968017+410335356+409619637+409108146+408742720+408256575
2638+407439812+406318790+405137652+404170243+403569949+403286605+403034089
2628+402536228+401882915+401325727+400745710+399829667+398728021+397924137
2618+397495967+397110340+396650291+396287006+396022061+395617171+394955297
2608+394201954+393597718+393185956+392757374+392075223+391116037+390075971
2598+389208216+388659739+388401854+388297693+388195072+387968690+387611149
2588+387241856+386858144+386266562+385485132+384875451+384611895+384409357
2578+384001501+383494103+383066947+382687027+382261561+381806093+381362528
2568+380961168+380705197+380673731+380722695+380645832+380496763+380435746
2558+380362488+380088156+379759754+379697986+379868195+379858845+379409310
2548+378745371+378304923+378219048+378191337+377915203+377444377+377027622
2538+376763992+376635274+376711160+377035695+377386552+377434502+377131445
2528+376737520+376502013+376444000+376408704+376252463+375942385+375496642
2518+374956013+374493035+374353917+374542450+374740670+374672857+374410728
2508+374216938+374177625+374088559+373702556+373003922+372208411+371592347
2498+371327590+371348242+371391836+371288163+371127041+371039778+370947820
2488+370651259+370119793+369598614+369336786+369268822+369140067+368883683
2478+368640254+368483450+368377187+368335057+368407902+368538684+368547471
2468+368303290+367891116+367546380+367412556+367408876+367328446+367059146
2458+366733146+366587982+366646709+366703258+366661278+366631126+366632928
2448+366489154+366104954+365644417+365326565+365160750+364984645+364709037
2438+364380221+364028839+363643625+363287436+363055722+362919945+362758560
2428+362522565+362271776+362082042+361975816+361919643+361868877+361806583
2418+361733138+361658791+361623720+361647301+361638665+361478857+361227016
2408+361092817+361158377+361287733+361348637+361350928+361342667+361334181
2398+361324118+361276543+361128263+360895798+360699229+360675611+360881229
2388+361111591+360784315+359283336+356456732+352496977+347436627+341112082
2378+333527170+324995352+316043924+307295298+299222721+291911090+285180247
2368+278939248+273381695+268918259+265935470+264644596+265234414+268008581
2358+273154073+280520319+290004227+301934801+315967399+329482180+338534614
2348+340601642+336334212+329416845+323761721+320100630+316851488+313264105
2338+309796992+306646904+303373599+299807958+296647055+294888660+294887252
2328+296135020+297757188+299122859+300256498+301705772+303878369+306688452
2318+309852790+313153299+316407397+319517909+322546489+325566395+328518488
2308+331286178+333801540+336021580+337878823+339322990+340415212+341347551
2298+342326375+343408871+344460015+345301297+345911392+346409440+346848386
2288+347177728+347403960+347582392+347658015+347524567+347223988+346945450
2278+346866522+347021299+347227668+347200144+346860214+346443459+346201194
2268+346118248+346010108+345809897+345667211+345732884+345928214+346052801
2258+346048145+345986790+345929415+345962796+346177613+346460769+346567333
2248+346477103+346388488+346369939+346339186+346341364+346543189+346961033
2238+347386199+347590915+347548410+347452848+347529523+347838025+348266870
2228+348655727+348891121+348968396+349004556+349124787+349333596+349556674
2218+349791768+350144915+350692716+351342724+351885719+352217463+352457964
2208+352800560+353298383+353863381+354411444+354915012+355352344+355705491
2198+356022516+356438032+357073021+357866955+358574376+359034462+359372027
2188+359790208+360268957+360657512+360950093+361266555+361658490+362092781
2178+362521965+362897228+363239786+363686017+364314398+365033083+365798254
2168+366746589+367913420+369062979+370030764+371050554+372559831+374803565
2158+377700461+380996952+384523806+388288268+392244080+396067871+399364887
2148+402059695+404450583+406944842+409779294+412859129+415869047+418684499
2138+421573548+424810411+428264007+431629813+434911360+438374644+442139707
2128+446073027+449964218+453619038+456922138+459871527+462349228+463941450
2118+464307890+463613761+462293693+460586946+458541283+456253092+453915674
2108+451732695+449841433+448315334+447254165+446737079+446576896+446264714
2098+445259118+443209287+439913772+435327552+429741480+423807443+418177702
2088+413070717+408278278+403569949+398942087+394525888+390493326+387043148
2078+384291078+382192508+380626983+379425982+378321557+377114435+375930632
2068+375065994+374553714+374123479+373595392+373050332+372570383+372087917
2058+371563096+371077364+370669583+370267322+369854998+369574733+369587425
2048+369899493+370387141+370976695+371752193+372897546+374596070+376975692
2038+380070884+383836661+388241595+393276186+398773568+404268283+409127559
2028+412840467+415176157+416102563+415633465+413848917+411048897+407727999
2018+404279735+400779391+397169142+393595277+390352218+387515850+384895239
2008+382370903+380012383+377833196+375711121+373611951+371678409+370027648
1998+368598612+367266641+366023961+364954944+364060718+363206969+362283679
1988+361353856+360584029+360041035+359610162+359158449+358703957+358311534
1978+357916895+357417007+356858204+356395715+356146390+356149507+356335899
1968+356473629+356311380+355853621+355341154+354939719+354616611+354315507
1958+354084544+353983837+353949931+353809160+353455375+353011584+352728954
1948+352718215+352883430+353081463+353191894+353091488+352749493+352311072
1938+351967388+351793386+351724183+351667823+351651301+351771758+351986387
1928+352132715+352181228+352248929+352383617+352553413+352750845+352897511
1918+352814453+352487702+352154982+351996901+351986087+352037116+352104779
1908+352165233+352217388+352279944+352350236+352395069+352377083+352288956
1898+352178262+352105830+352101324+352217763+352514362+352864618+352949516
1888+352612327+352046203+351534674+351242657+351201128+351304425+351448387
1878+351699401+352105680+352447150+352516390+352515000+352791886+353267855
1868+353467991+353221558+352881853+352743636+352728015+352653856+352520896
1858+352453646+352522548+352692006+352869199+352980907+353045866+353219417
1848+353735339+354636737+355511138+355786334+355501375+355236618+355316184
1838+355676616+356134825+356532843+356873074+357293058+357752844+358017488
1828+358118607+358309506+358515724+358471079+358299067+358386106+358817542
1818+359342476+359768918+360168701+360702721+361388364+362087036+362667542
1808+363146327+363674940+364404816+365350860+366403918+367460656+368460357
1798+369357888+370226919+371274195+372552472+373736125+374508994+375133206
1788+376096035+377494092+379061532+380589772+382155297+383866400+385610695
1778+387250643+388929603+390946954+393312271+395500845+396957554+397806722
1768+398515607+399390796+400643014+402348296+404245941+405969923+407577165
1758+409348571+411232098+413045822+414930888+417090362+419302103+421102535
1748+422435595+423658487+425060186+426745080+428695594+430718127+432570976
1738+434409182+436756700+439753889+442575537+444306803+445358285+446534578
1728+448127402+450213017+452781473+455639581+458648973+461984553+465817918
1718+469739936+472809707+474732998+476244641+478004632+480163317+482732862
1708+485824749+489389603+493081108+496853006+501184381+506120407+510615120
1698+514001429+516922093+519820904+522672817+525789148+529622739+534288675
1688+539719557+545992849+552806506+558607808+562396001+565563099+569499085
1678+574363430+579714108+584999037+589931346+594773612+599927909+605301003
1668+610407538+615246387+620402975+626205290+632162721+637491958+642258938
1658+647207280+652915235+659649777+667043677+673294214+677553233+681270572
1648+685089743+688342603+690818576+693599596+697237106+701148874+704761902
1638+708042322+710704988+711859842+711705140+711744191+712556749+713373963
1628+713164665+711935315+710614045+709526704+708131989+706372824+704818225
1618+703472699+701724423+699443403+697034418+694488528+691558664+688281699
1608+684976121+682033790+679796553+678432252+677863687+677869094+678239026
1598+678758176+679102199+678990003+678392300+677382160+676017333+674520410
1588+673148749+671804424+670243893+668619303+667430355+667046831+667436664
1578+668185989+668764317+669173224+670083109+671793535+673905810+675909643
1568+677870220+680376383+683790853+688136535+693576391+700741919+710014765
1558+719576887+727480926+735074211+743632276+752690643+761550301+770285372
1548+778989203+787106669+793769568+798539928+801955749+804702225+806515160
1538+807575915+808980694+810899292+812699685+814316465+816449391+819306711
1528+822395707+825328425+828258439+831469769+834791418+837926750+841257110
1518+845257568+849234069+851859412+853034316+854184063+856598831+860143070
1508+863346140+864775475+865163055+866250771+868139705+870051093+871236511
1498+871464958+871670651+873177863+875890394+878613063+880379062+880853229
1488+880507855+880432156+881339487+882985555+884766123+886573200+888641918
1478+890755169+892276650+892868721+892589657+891617141+890668582+890755094
1468+892085151+894053613+895901393+897363922+898814811+900519755+901975826
1458+902104318+900697287+899409886+899335389+899983182+900715685+901155007
1448+900962532+899982731+898521029+897234829+896868352+897794007+899556251
1438+901179790+902099287+902748657+903680320+904578414+904808964+904245355
1428+903314594+902581414+902654034+903938055+905985220+907410876+906740478
1418+904075109+901659064+901225149+902346433+903640893+904348690+904628729
1408+904765633+904813094+904732965+904265932+902988669+900868434+898569617
1398+896949157+896038222+894980244+893382389+892089882+891888770+892064198
1388+890769288+887080261+882814858+881015966+882914588+887365557+892438786
1378+896820215+899958325+901842828+903107023+904703001+907019241+909711346
1368+912370407+914814839+916677639+917496205+917691309+918412397+919744031
1358+920609157+920823561+921580171+923613368+926173000+928120059+929117658
1348+929580711+930124268+931154760+932585372+933833947+934459587+934926770
1338+936312999+939031989+942073523+943812562+943634881+942612425+942486636
1328+943985212+946197592+947685353+947945943+947579766+947400207+947802957
1318+948794022+950201429+951824967+953495742+955018424+956006035+956038702
1308+955260314+954388579+953868302+953547560+953180632+952564755+951516766
1298+950310471+949609433+949573086+949676946+949438285+948655016+947218771
1288+945255190+943127746+941076976+939141857+937109186+934498187+931290762
1278+928102036+924987882+921289693+917170280+913791407+911821668+911145863
1268+911610643+912694078+913144965+912097802+909678228+906140222+901681743
1258+897097701+893400263+890814346+888721822+886448763+883952214+881799611
1248+880483824+879980068+880044276+880526329+881233675+881899416+882396338
1238+882775582+883307499+884481503+886411440+888286255+889164374+889230685
1228+889457180+890206580+891023719+891754495+893026276+895421819+898689473
1218+901889388+904199846+905595012+906612061+907593439+908721031+910522026
1208+913260691+915980507+917440632+917919531+918801028+920730965+923345269
1198+926142360+928643641+930342052+931334769+932394398+933987672+935965747
1188+938295130+941239713+944655534+947818802+950211041+951943321+953164937
1178+953678530+953721035+954539526+957155707+960875148+963945745+965763862
1168+967225865+968816962+970435243+972581687+975797148+979304213+981600403
1158+982281840+982228896+982471461+983198408+983599805+983117753+982602582
1148+983407855+985371587+986958553+987623994+988464187+990207131+992275173
1138+994136171+995869653+997226819+997964805+999070619+1001652480+1004875376
1128+1006986674+1007938538+1009150992+1011384850+1014346405+1017412271
1120+1019578541+1019863912+1018873448+1018672261+1020185406+1022039494
1111+1022596044+1022188263+1022701406+1025563231+1030251584+1034306488
1103+1035368896+1033593510+1031486417+1031433173+1033708259+1036529982
1094+1038427628+1040261890+1043528793+1047046898+1047102846+1041975471
1085+1035220277+1032712313+1037068358+1045597211+1053416314+1058155734
1077+1060265906+1061171735+1062815174+1065605431+1066892682+1063908072
1068+1057643116+1051649339+1048331370+1048122072+1050594891+1054703264
1060+1058702971+1061394325+1063527927+1066497593+1069562483+1070705846
1051+1070363400+1070930989+1072634281+1073471546+1072965613+1072469367
1043+1072299195+1071612952+1070186845+1068072468+1065131264+1062154990
1034+1060824333+1062100769+1065465224+1069467634+1072510821+1073741823
1025+1073680393+1073127223+1071753910+1069235056+1066863619+1065895384
1017+1065243535+1063159122+1060165275+1058088897+1057359397+1057089120
1008+1056873289+1057193506+1058232934+1058930067+1057905733+1055713705
1000+1054822069+1056384478+1058435698+1058272285+1055528063+1051830850
991+1048321682+1045068673+1042258289+1040343296+1039683713+1040710975
983+1043173656+1044935599+1043203995+1038009709+1032659294+1029662668
974+1027999027+1024941572+1019299703+1012330105+1006471654+1003594734
965+1003520762+1003766708+1001466313+996111993+989854397+984983406+981938192
955+979705235+977181876+973875472+970030842+966460169+964028503+963202803
945+963706033+964508904+964688162+964385142+964164205+963724583+962427945
935+960484189+958364931+956055675+954021877+953572041+955113123+957323325
925+958942357+959986066+960459107+959713161+957932743+956621161+956808229
915+957694007+957487939+955316638+952176425+949782609+948678596+948101095
905+947532304+947214340+946932123+945732436+943436172+941407106+941222140
895+942863176+944547619+944808659+944476201+945219969+946484615+945850415
885+942535825+938590414+936255399+935720929+935769367+935555639+934969275
875+933868417+932486093+932290688+934511479+937662281+938431357+935639598
865+931673910+929700191+930849262+933667531+935585903+935514785+934713793
855+934470100+934148832+932626300+930603993+930200868+932534306+936217400
845+938174222+936188487+931179767+926657906+925580103+927858419+930809685
835+931812391+930396873+927942904+926070116+925554870+925972489+926155201
825+925708820+925899869+928019353+931272513+933873974+935940965+938865873
815+942369859+944681518+944952020+944086744+943758266+945233937+947867466
805+948972829+947058663+944115807+942911764+943741895+945115658+946015179
795+946230560+945421832+943081110+939676478+937432031+938966504+944441431
785+950706611+954349228+954890833+953900144+952392856+950637446+949428523
776+949491980+949549655+947462689+943870688+942242718+944413269+947940461
766+949062271+946737019+942392914+937933759+935320282+936198400+940514118
756+945868138+949023070+948592384+946175813+944406585+944438427+945671682
746+946823231+946749560+945383457+944385483+945645548+948621072+950595091
736+950232745+949281857+950134817+952743263+954577600+953697004+951358760
726+950612364+952516392+954643086+954070390+951487403+950157797+950741982
716+950276151+946910269+942630373+940209221+940310453+941972216+943572775
706+943328332+940651998+937223935+935336053+934828091+932782954+927122686
696+919597064+913565963+910570915+909987330+909866798+908127834+904698720
686+901783951+900659813+899944281+898537926+897624512+897922650+897799414
676+895718005+892310669+888371642+882228645+872338646+864306790+867891206
666+879475636+887373367+887268080+882106085+876486745+872563263+869776085
656+866667038+863201426+861713740+864191740+868963902+871441077+868551841
646+862106951+857244522+856727474+857514799+855523882+852085531+851471982
636+854646890+859019082+861949922+862022617+858248729+850962144+843054800
626+838049610+836166684+833836250+828779918+823664559+822716675+827243943
616+835171488+842375916+844487215+839778060+830699567+821797253+817697291
606+821241455+829749280+835234570+833389043+829453470
##END=
