##TITLE=<SNM>
##JCAMP-DX=4.24
##DATA TYPE=INFRARED SPECTRUM
##DATE=3/5/2025
##SAMPLING PROCEDURE=Instrument type and / or accessory
##ORIGIN=Admin
##XUNITS=1/CM
##YUNITS=ABSORBANCE
##RESOLUTION=4
##FIRSTX=4497.3318
##LASTX=599.83466
##DELTAX=-1.4281778
##MAXY=1.7505287
##MINY=0.19097412
##XFACTOR=1
##YFACTOR=1.6303069e-09
##NPOINTS=2730
##FIRSTY=0.21306734
##XYDATA=(X++(Y..Y))
4497+130691552+130662011+130989748+131172824+130926818+130518631+130190391
4487+129614044+128520779+127568418+127750233+129031948+130231266+130332383
4477+129562750+129048218+129623568+131121539+132664634+133370377+132877049
4467+131595389+130474210+130158785+130448691+130822913+131150193+131510495
4457+131698608+131352619+130413976+129188052+128099485+127509217+127546756
4447+127964915+128274728+128119136+127507472+126760461+126305714+126426281
4437+127072888+127917231+128591140+128852684+128625214+128011722+127253797
4427+126601642+126154555+125811225+125447331+125112401+124980043+125160834
4417+125644802+126297497+126826754+126941444+126582595+125797625+124567066
4407+123122374+122187899+122391596+123517811+124678155+125141403+124816116
4397+124079945+123359550+122877428+122646458+122544975+122452386+122465329
4387+122905534+123848874+124680815+124512354+123140297+121242329+119618993
4377+118675242+118555552+119194719+120125885+120705275+120716472+120511761
4367+120496232+120648360+120594269+120085138+119339489+118849498+118887255
4357+119334224+119929126+120458867+120760984+120822433+120858719+121028908
4347+121153789+120991616+120635418+120352824+120192699+119988984+119642977
4337+119219653+118875967+118787436+119014577+119379952+119615639+119655023
4327+119593620+119419547+119076044+118701620+118500081+118491809+118611709
4317+118845129+119084508+119059510+118561055+117729607+117139980+117386049
4307+118399229+119483820+120199627+120741205+121298047+121645563+121487357
4297+120720037+119490337+118382311+118215486+119238016+120695715+121494321
4287+121245327+120456171+119736846+119205843+118821785+118822087+119402921
4277+120245976+120803339+120973217+121175058+121744568+122465859+122774218
4267+122330485+121371634+120561959+120415379+120810286+121238417+121441409
4257+121482421+121429363+121391724+121577661+122000226+122505591+123140425
4247+123982566+124726479+124977128+124773221+124487017+124446965+124754603
4237+125188703+125346579+125083473+124611122+124098189+123556620+123152225
4227+123185952+123690897+124383241+125010580+125465510+125644163+125496843
4217+125171940+124949232+125011906+125226177+125198711+124797113+124492977
4207+124849833+125831343+126863333+127355938+127077567+126359366+125917196
4197+126151602+126796034+127415129+127818747+127907918+127650222+127265853
4187+127051417+127073473+127215656+127276072+126959322+126202878+125578646
4177+125848179+127006375+128242372+128965619+129403493+129984063+130580290
4167+130723350+130317000+129734401+129280202+128977035+128877545+129106678
4157+129446570+129322311+128494876+127498249+127096496+127431737+127946927
4147+128117591+128025020+128128075+128636557+129235763+129421243+129064716
4137+128568683+128440794+128789032+129272753+129543766+129661728+129898649
4127+130158090+129960555+129123770+128108168+127601304+127992646+129128285
4117+130354995+131022643+131107043+131158894+131607490+132274278+132576806
4107+132210161+131585371+131397624+131837062+132477106+132782513+132510632
4097+131858057+131359190+131355114+131538510+131321076+130619702+130027753
4087+130200592+131196232+132414250+133089941+132817127+131767113+130582858
4077+129920521+129872947+129915220+129551462+128893439+128426188+128307696
4067+128201059+127883559+127687111+128044946+128848287+129556937+129797952
4057+129659196+129498175+129583800+129868578+130093442+130124318+130093031
4047+130199139+130480663+130770870+130825692+130544863+130082886+129695492
4037+129478497+129329897+129189807+129140167+129203115+129269993+129326150
4027+129535302+130020559+130726879+131487188+132051288+132166791+131867115
4017+131575929+131655302+131897131+131727070+130973186+130188317+130022707
4007+130493879+131142113+131696661+132228834+132784086+133199375+133285356
3997+133044204+132686424+132419962+132223414+131965727+131737243+131831249
3987+132398748+133270933+134058480+134388949+134203369+133817913+133584539
3977+133608029+133818205+134051204+134078862+133858111+133658838+133705709
3967+133942419+134318826+134915967+135648107+136256371+136632559+136803479
3957+136729792+136405026+136020027+135956192+136624635+137964463+139132641
3947+139452343+139515117+140250639+141288817+141373518+140187536+138670454
3937+137829053+138161889+139690141+141755199+143075203+142883334+142004212
3927+141922774+142930515+143832515+143667709+143102751+143393333+144591517
3917+145317899+144259101+141746708+139393709+138421340+138963650+140897968
3907+144660626+150472611+156828890+160980175+161736372+159921003+156175995
3897+151238113+147308283+146635928+149028787+151342173+150974339+149834806
3887+151061270+154122087+156094045+156674112+157437346+157244106+154461185
3878+151576781+152035440+155886528+160987030+165722752+168452149+167482238
3868+164562160+163255767+163603017+162404641+158459574+154568818+153857079
3858+157611776+165963154+177023566+183314712+178144105+167394658+158736995
3848+154651792+155073461+158817702+164102651+169546328+174536034+177973862
3838+178051863+175018576+171590072+169238179+167200998+164940634+163364607
3828+163106911+163884240+166354844+171784993+178210243+180316194+177564440
3818+174700958+172863653+169662955+165281541+162515803+163183085+167223683
3808+172439570+176002745+178542303+182479033+186312883+186214773+183322244
3798+181357909+180346356+178733385+177158602+177267680+179293216+182478010
3788+186426257+191085987+196188172+201824668+208935790+217805010+226641783
3778+233592643+239671209+247379746+258060332+271167376+283997273+292986411
3768+297341155+299006517+299749461+301460304+306409592+314949897+324422107
3758+332217256+339590974+350318668+367059228+388599107+408376081+420899767
3748+429856732+441266423+454669021+463142658+465581235+469182762+478922375
3738+494789764+512567616+526533244+534378992+538425751+542400962+548571038
3728+556838767+564910642+570137935+572147952+572017907+569790502+565031912
3718+558655014+553181303+551390063+553776213+556654100+555214791+549738521
3708+543899462+540337384+540452038+544021538+548404433+550659733+550918508
3698+551320818+553290180+557407976+564214678+573816239+583781649+588315904
3688+584869796+579145281+576775327+577971875+580342048+582819818+586970592
3678+593872534+599864817+599338092+594622205+591847491+590285960+584996477
3668+576124698+568181151+563584560+562027490+562337485+564127043+567720344
3658+571854555+573269442+571960507+573521453+582478162+595606959+601104946
3648+592901454+580356124+572552018+570216833+569879015+568774855+567441351
3638+568108944+571304979+575624442+580548870+587204615+595043563+599213604
3628+595834913+589633138+586901200+589440465+596468504+605179710+611074926
3618+612511347+612994931+615287559+617980451+619315270+620648043+623446813
3608+626035434+626514449+626195203+627233299+629463921+631447760+633353653
3598+636438326+639889845+640972910+639469474+639404835+644208870+651678887
3588+654825859+650509979+644152713+640943004+640126976+638809194+636697027
3578+636002307+637916608+640758228+641963843+641863521+644048516+651006615
3568+659649270+662850132+658389546+651215229+645549905+641428306+637534333
3558+634085227+632598535+633970646+637196150+639974958+641081421+641365349
3548+641684960+641378950+639538135+636485562+633130635+630025562+627562342
3538+626276514+626640216+628580549+631255599+633382097+633807587+631883414
3528+627857823+623514011+621103877+621106875+622054228+622280025+621321119
3518+619731913+617995221+615916544+613142379+610201352+608561363+609239887
3508+611640332+614026665+614639271+612461295+608082714+603808294+601877942
3498+602510802+603886460+604121908+603411906+603639092+605657079+607884008
3488+608024327+605558841+602029485+599459107+598895236+600049338+601764824
3478+602910334+603100411+602478885+601054236+598937317+596986528+595948140
3468+595240368+594040456+593252104+594635988+597950625+600511242+600169000
3458+597502688+594383904+591746475+589298611+586622866+584098518+582652847
3448+582633543+583387601+584257775+585080786+585209259+583687067+581003608
3438+578777995+577450816+576210981+575049750+574844463+575791085+577532602
3428+579897657+581839379+581181328+577450085+573272623+571144187+570612526
3418+569905814+568566570+567181809+566186928+565871412+566204733+566339165
3408+565439524+564063245+563547853+564237053+565143019+565129711+564025112
3398+562627226+561787727+561555385+561244001+560374412+559385307+558988408
3388+559043248+558864834+558541969+558903844+559895105+559932580+557555643
3378+553385419+549708724+548079850+548083286+548639626+549521828+550871418
3368+552135639+552499671+551958833+551313762+551301514+551937409+552547967
3358+552512321+552005631+551697353+551765283+551754863+551434777+551261225
3348+551835954+553074839+554052390+553801001+552276068+550470497+549534185
3338+549716585+550180829+550039194+549462966+549329630+549776105+549663755
3328+547900411+545012580+542741997+542139116+542681014+543218050+543178455
3318+542823710+542747006+543133998+543503550+543459897+543413648+543826890
3308+544287258+544383120+544809926+546174615+547282906+546457263+544040037
3298+541680430+540146685+539490573+539993899+541408348+542445456+542287332
3288+541705913+541951525+543355444+545231101+546480479+546402057+545259216
3278+543889262+542943006+542738451+543273622+544017626+544185145+543401364
3268+541907945+540404728+539714103+540051738+540689497+540848133+540661236
3258+540722182+541070712+541230554+540928968+540334496+539839542+539758962
3248+539998140+539954816+539008561+537191619+535283131+534227669+534316108
3238+534845466+534808577+533965129+532813111+531655134+530415774+529064100
3228+527668151+526450435+525866163+526046698+526405941+526374535+526107023
3218+526031197+526228257+526522203+526707673+526490066+525399104+523002827
3208+519520450+516109952+514013506+513434390+513603920+513774694+513789683
3198+513767967+513574233+512894685+511847047+511077086+511010838+511280581
3188+511040781+509789466+507892018+506153791+504760951+503140558+501233970
3178+500036325+500106485+500448544+499742526+497913264+495765963+493979001
3168+493026786+493099175+493607803+493532343+492499731+490947304+489363180
3158+487981819+486964124+486318870+485747102+484897731+483781031+482702901
3148+481800737+480960470+480249663+479988732+480171716+480283664+479812803
3138+478543938+476502736+474154535+472455355+472056920+472475280+472552898
3128+471827577+470860957+470117611+469374156+468426803+467524639+466866479
3118+466339059+465841947+465371525+464800488+463923368+462755008+461648215
3108+460979563+460656369+460177172+459309411+458392440+457918252+458050235
3098+458431852+458394195+457629388+456589319+455931488+455791461+455843377
3088+455726420+455186350+454172750+452885569+451543766+450260314+449251613
3078+448865170+449171838+449736075+449967429+449628733+448963554+448399720
3068+448073674+447600400+446438950+444485163+442178459+440154695+438908132
3058+438491490+438403892+438078321+437518801+437115138+436943304+436678132
3048+436092178+435293627+434536059+434013574+433732169+433467582+433007396
3038+432404150+431821268+431270120+430646546+429843643+428729429+427315493
3028+425974348+425124283+424727859+424350848+423662452+422793705+422212175
3018+422111305+422029117+421436181+420458885+419536723+418779740+418128454
3008+417635620+417266323+416873116+416432564+415928798+415189657+414162054
2998+413113064+412363210+411992671+411813379+411508355+410872534+409973953
2988+408990039+407985543+407039543+406407304+406192622+405983679+405266291
2978+404149591+403210391+402667689+402176537+401411438+400428548+399408660
2968+398357439+397203813+396081848+395306000+394968474+394736097+394233062
2958+393503829+392920179+392684109+392524340+391944858+390823916+389617058
2948+388814887+388411333+388074064+387587445+386978276+386440253+386188133
2938+386144699+385867681+385109675+384252516+383796718+383660933+383386437
2928+382815181+382177934+381647260+381140277+380558565+380015899+379699908
2918+379554434+379277891+378697532+377961535+377273030+376628799+375897957
2908+375000253+373992722+373092203+372544785+372349662+372194939+371765573
2898+371017658+370108182+369221483+368499781+367970935+367548004+367222105
2888+367097800+367048297+366605733+365527641+364242141+363355369+362890102
2878+362386519+361650632+361001173+360764737+360847875+360892662+360656408
2868+360138969+359488962+358896245+358510716+358340710+358182221+357723059
2858+356824990+355674398+354602740+353844917+353494156+353499860+353624238
2848+353589981+353361076+353111625+352899465+352562817+351942716+351060149
2838+350114405+349406559+349138023+349146286+348989515+348451054+347801814
2828+347393947+347182518+346856875+346279988+345554557+344799878+344118027
2818+343629251+343317683+342987360+342494928+341847261+341060628+340171004
2808+339336989+338706066+338276920+338033830+337979392+337926599+337563810
2798+336847409+336057413+335356587+334561947+333481478+332248515+331169984
2788+330409272+329939983+329671301+329513982+329396952+329242813+328912454
2778+328282920+327387666+326341198+325187353+323996581+322977862+322285445
2768+321839884+321480093+321131417+320727534+320145018+319337582+318417247
2758+317520421+316723770+316120049+315764682+315478633+314944998+314097565
2748+313207466+312517388+311987775+311464267+310912461+310368259+309775908
2738+309057058+308292690+307652554+307172224+306753388+306313164+305793276
2728+305148387+304449152+303864752+303458146+303102029+302632521+302024686
2718+301401515+300889724+300477487+300023060+299392302+298583550+297755366
2708+297123548+296767285+296541872+296218386+295693379+295048325+294431771
2698+293897807+293361137+292712153+291959375+291234419+290667733+290298181
2688+290101121+290033338+290011712+289910860+289625360+289115782+288432578
2678+287730436+287165212+286741294+286360957+285992940+285665432+285352695
2668+284984056+284528313+284044528+283690714+283600611+283672672+283581563
2658+283082898+282256615+281419949+280824070+280452653+280108656+279630995
2648+278970440+278155948+277318130+276676386+276377066+276354398+276375274
2638+276205159+275783800+275295372+275022357+275075534+275267129+275270803
2628+274914943+274334071+273822683+273536635+273378895+273170903+272849427
2618+272456184+272038847+271652130+271391692+271322483+271370542+271336650
2608+271055665+270560418+270044679+269656262+269421837+269342080+269369098
2598+269323727+269080381+268791005+268682037+268709037+268640358+268389499
2588+268072100+267807659+267605041+267430557+267308646+267288666+267328316
2578+267305137+267171655+266996293+266813857+266547459+266152479+265745306
2568+265490425+265430265+265519911+265752052+266165732+266799452+267640103
2558+268514920+269094749+269136044+268650504+267825702+266945657+266300604
2548+265950757+265687888+265354750+265000882+264694104+264444652+264289892
2538+264216899+264082522+263792141+263464651+263294956+263313766+263349486
2528+263217960+262922991+262632866+262468564+262390653+262313182+262228417
2518+262151146+262041045+261887071+261776786+261764502+261771046+261725382
2508+261679609+261689645+261706663+261648971+261471397+261147472+260700028
2498+260271869+260041521+259997155+259915936+259680067+259460997+259419336
2488+259392921+259104314+258556219+258012310+257657016+257439884+257233354
2478+257001744+256736188+256336930+255727615+255036295+254506425+254250374
2468+254179027+254128336+254006279+253846547+253734325+253671185+253541560
2458+253240577+252811010+252397860+252073862+251795619+251535839+251326951
2448+251159779+250986684+250822820+250697692+250543846+250271636+249915757
2438+249618393+249511655+249641975+249925446+250162430+250186176+250008474
2428+249756902+249496921+249208679+248912449+248720141+248749700+249000980
2418+249318891+249545090+249712975+249956485+250228933+250312419+250130165
2408+249864408+249743466+249827062+249996592+250076495+249973376+249755751
2398+249611684+249687949+249947272+250213468+250360715+250405173+250418097
2388+250414843+250317720+250001711+249373201+248349273+246789607+244628358
2378+242088398+239561509+237267820+235226270+233496909+232174648+231151104
2368+230153517+229103320+228252341+227898016+228158161+229119864+231023124
2358+234134522+238454022+243721350+249816678+256701291+263636284+269169424
2348+272226566+272991958+272777458+272603541+271977279+270005944+266897909
2338+263475235+260107275+256710651+253311613+250188278+247619363+245748586
2328+244577831+243843827+243065804+242028915+241102749+240830557+241331123
2318+242247034+243105837+243648887+243952466+244303866+244907442+245693727
2308+246433033+246990926+247391135+247660731+247762259+247715096+247656106
2298+247727563+247980433+248409890+249001784+249658738+250120769+250147568
2288+249850003+249637002+249740505+249987946+250101392+250020868+249878392
2278+249798307+249769552+249673234+249435573+249123091+248833753+248550007
2268+248200673+247840480+247636766+247652944+247765147+247826057+247793445
2258+247684148+247514508+247299441+247055419+246815217+246619144+246456487
2248+246279809+246099621+245990835+246019736+246208425+246498732+246740342
2238+246823407+246816899+246883750+247095434+247405283+247753558+248124298
2228+248529278+248999389+249569037+250220195+250888976+251572710+252350624
2218+253269788+254310809+255463832+256739204+258117805+259541795+260942807
2208+262306766+263724413+265311079+267087255+268980297+270881400+272690956
2198+274389789+276065937+277826667+279680095+281497183+283118215+284509448
2188+285741057+286856679+287881741+288835364+289657497+290319112+290956341
2178+291664241+292329915+292820116+293064449+292928591+292310081+291339695
2168+290317064+289488405+288874538+288250909+287335108+285993086+284329022
2158+282671959+281310670+280189857+279094983+278001846+277016470+276245339
2148+275778042+275592059+275912986+277782428+282331893+289356148+297522440
2138+305877511+314275797+322720221+331149620+339568416+347996900+356478727
2128+365071477+373804363+382798400+392107186+401293640+409619353+416628198
2118+422197259+426328728+429186470+431169213+432978477+435676304+440423085
2108+447959752+458283636+470814379+484735768+498757004+510731700+518611815
2098+521933070+521652615+519043922+515039098+509788113+502921780+494322851
2088+483893710+471221625+456311716+439682591+421733563+403097383+384917842
2078+368124013+353221196+340550684+329980675+320986528+313392205+307299235
2068+302488802+298550262+295152797+292009408+289105581+286681463+284709707
2058+282984587+281598876+280718282+280336720+280573613+281625565+283493727
2048+286229961+290145907+295691806+303490666+314182385+327981919+344811431
2038+364654908+387116328+410943936+434356950+455406663+472349988+484512823
2028+492415350+496926645+498853853+498806361+497038703+493803219+489466060
2018+484046825+477365963+469588144+461016525+451677906+441435661+430232609
2008+418200880+405662716+392997468+380551436+368619881+357356578+346789128
1998+337071196+328611781+321752651+316258686+311299525+306183156+300965203
1988+296085617+291801873+288217895+285397317+283243965+281535809+280077982
1978+278730275+277451356+276311915+275335789+274511609+273987863+273879955
1968+273856556+273337454+272199603+270916754+269934413+269284753+268893137
1958+268856540+269170557+269514206+269592482+269457812+269332757+269355059
1948+269642716+270432548+271819265+273181213+273324712+271831148+269721778
1938+268187704+267483789+267283712+267317202+267464796+267673610+267912715
1928+268236129+268957428+270328095+271892642+272915693+273502286+274168197
1918+274536854+273855587+272532595+271764023+272082464+273062611+273921689
1908+274136700+273780730+273354966+273239307+273402293+273650283+274007313
1898+274673589+275555353+276196457+276575607+277390976+278823686+279735978
1888+279115621+277593558+276388984+275825625+275591511+275506161+275582188
1878+275817454+276128601+276462196+277222470+279342222+283145581+286932121
1868+287796610+285092184+281298861+278825478+278109059+278315643+278578439
1858+278580176+278482468+278538150+278816905+279369167+280406020+282174793
1848+284932908+288692906+292143914+292697054+289813116+286308803+284605638
1838+284647737+285110811+285424499+286583025+289710930+293914679+296540574
1828+296628794+295839931+295055510+293513082+291271985+289684552+289445556
1818+289957420+290476230+291140020+292602491+294805894+296568817+296842526
1808+296031069+295463688+296203615+298587754+301999752+304891788+305953977
1798+305666320+306019146+308643450+313094238+316238212+315098003+311199131
1788+308401091+308329396+310058959+312254702+314478122+316413043+317481374
1778+318111017+320070690+324775427+331405433+336422907+336785147+333679014
1768+329917828+327187535+326803175+329314069+332948318+334947476+335296701
1758+335846350+336843900+337979355+340650603+346244305+353228728+357786784
1748+358315630+356868241+355957631+356744923+359120141+361791681+363222984
1738+364191944+367604417+374063649+378582878+376295917+370433459+365412878
1728+362151107+360692603+361023511+362527788+365261408+370847103+380297158
1718+390633254+395126964+391567993+385045109+380137938+378359202+379995754
1708+384728386+390828998+395866800+400076874+406237006+414550581+420368618
1698+420936986+418314290+413381746+407460572+404129300+405017937+408926863
1688+414979764+424276740+435960890+442481032+438803643+431712903+427996722
1678+429314030+434400785+440016533+443785434+447248689+452109173+455683096
1668+454601202+451653923+451756694+455565116+459658855+461152895+461591108
1658+464675635+473194533+488136798+504846319+510677883+506257696+504810197
1648+509231408+513293742+511344196+506788589+505112223+507824491+514834579
1638+525739993+537581389+543446004+541003697+537342029+538179956+543714065
1628+551348604+559150443+567383074+576029056+583445257+589740845+597990623
1618+609864046+621545381+626802618+626284557+624951273+624968310+625732714
1608+626008892+625526295+625321483+626646212+629938987+635011667+641671799
1598+649680643+658271967+666101958+672159137+676829360+681300402+685913665
1588+690072335+693560488+696817872+700075110+703316626+707192539+713067573
1578+721354057+729368605+733228431+734882861+739962122+750306371+762805269
1568+773205089+781691486+791158943+803052548+818438985+839985554+867380688
1558+887407589+890888722+888644646+888159782+889068966+889126950+887084980
1548+884398815+884445613+888672578+894954822+899638938+898242697+887428721
1538+873361894+864642900+861598810+859656795+855376159+850597279+848944822
1528+850892979+854274814+857445916+860362703+861989421+860549381+857612119
1518+855967048+854927417+852535418+849485477+848669303+852729773+862301354
1508+873214629+874557930+862253533+848724875+842206963+842289005+846234236
1498+850230286+850355322+846803261+844196140+845647588+849797118+852254561
1488+850136910+845063426+840078198+836781841+835493526+836003397+838143935
1478+841946288+847235844+853064227+856972825+855645244+849447308+843517360
1468+841661555+843566205+846104593+846655557+846636327+849497104+856292143
1458+863183483+862561737+853661039+844213763+838639108+836835000+837024529
1448+836799756+834658633+831403443+828751865+827428818+827674723+830062481
1438+833975612+835815184+832663168+827403883+824109062+823106283+822408931
1428+821022927+819845609+819708581+820566434+822590343+825933644+828413974
1418+826245139+819897013+813789235+810251068+808668734+807794429+807200177
1408+807089472+807250118+806681093+805071924+804031708+805236811+808247997
1398+811194033+812806346+812469186+809599562+805167054+801983741+801873695
1388+803528637+803758017+801978330+801457930+804724966+810786531+817086031
1378+822370250+826940883+831134797+834694170+837437661+839591506+841223196
1368+842392397+843944166+846756099+850030812+851647585+850714126+848526352
1358+846643712+845495423+844616804+843528621+842500982+842229704+842857226
1348+843903657+844988038+846192996+848020210+851112122+855525106+860153870
1338+863364749+864437650+864108753+863862775+864950958+867694084+871432749
1328+875202124+878531678+881775389+885797835+891137406+897292493+902955842
1318+907158678+910169279+913091185+916647267+920494736+923887612+926905014
1308+930313758+934085546+937117353+938943690+940410639+941973010+942692665
1298+941660931+939292476+936707291+934736906+933496266+932423438+931023833
1288+929536996+928423513+927552718+926390317+924589791+922091693+919132642
1278+916410794+914709567+914200500+914467756+915032468+915579338+916048042
1268+916783345+918165474+919965487+921609242+923025153+924664959+926768497
1258+929007601+930769958+931522371+931056518+929563977+927463803+925220969
1248+923235083+921561494+919639661+916706495+912824221+909127162+906680760
1238+905362027+903977997+901398955+897662191+893974930+891424551+889916070
1228+888762663+887769098+887053977+886477639+886046957+886285770+887624611
1218+889813628+892117005+893846896+894822692+895507615+896578395+898382577
1208+900776770+903239185+905271138+906916136+908683319+910906775+913396683
1198+915754828+917917375+920167008+922447499+924212415+925483107+927159401
1188+929548768+931801327+933317705+934455683+935641922+936969137+938750359
1178+941498383+945185571+949057827+952417946+955204359+957311992+958045466
1168+957333197+956681325+957599869+959947703+962739454+965560673+968627284
1158+972275279+976335310+979559863+980765039+980807376+981850078+984691259
1148+987926999+989700031+989768180+989326677+988955296+988327701+988031196
1138+989407987+992224306+994618134+995772565+996748946+998416685+1000151841
1128+1000798521+1000227521+999666757+1000501577+1002909517+1006027387
1120+1009374709+1013236729+1017544565+1021157097+1022824543+1023011513
1111+1023986651+1027068326+1030354300+1030871776+1029029059+1028518164
1103+1031580023+1036430563+1039148973+1037378720+1032690362+1029012095
1094+1028450381+1029922522+1032292439+1036344061+1042051063+1046609997
1085+1047519473+1045968655+1045313858+1047637782+1052055666+1055530730
1077+1056322921+1056023199+1056518446+1056924924+1055533436+1052788994
1068+1050782999+1051095664+1054008356+1058980495+1064743508+1068952486
1060+1069323574+1066081107+1062288332+1060827160+1061624030+1062655618
1051+1063090028+1063740584+1064970475+1066136605+1067082057+1068601726
1043+1070961040+1073100919+1073741823+1072543959+1069481807+1064508352
1034+1058988100+1055726109+1056490879+1060546523+1065728884+1069515296
1025+1069604065+1066048202+1062077306+1060452197+1061034165+1062848291
1017+1065705997+1069216452+1072152251+1073351504+1072268366+1068803758
1008+1063451830+1057840469+1054500093+1054803618+1056914468+1057270420
1000+1054570947+1050646994+1047685530+1046564004+1047042506+1047968435
991+1048277004+1048348882+1048928218+1049096761+1047348078+1044180925
983+1041457103+1039843255+1038790243+1038058816+1037487450+1036040756
974+1032510266+1026847428+1020242283+1014305389+1010323890+1008501940
965+1007859574+1007151033+1005521903+1002478690+997886120+992163177+986409889
955+982046919+979793630+978975335+978289755+977002610+974850447+971544657
945+967406606+963605423+961148712+960325226+961051754+962908217+964427447
935+963348843+959083781+954397910+952729879+954302561+956438418+957245013
925+957015268+956257591+955098626+954522727+955875242+958793419+960961303
915+960423939+957638111+954795833+953444781+953085392+951991579+949323402
905+946295617+945076767+946744798+950415607+954097749+956102940+955885698
895+954126413+952055633+950286914+948516588+946462771+944540426+943329254
885+942767979+942210287+941152376+939696395+938363623+937529242+937076770
875+937013009+938010376+940118083+941464382+939903839+936054762+932878834
865+932120864+932853096+933523686+933978059+934928994+936512863+938173801
855+939435793+940257451+940734564+940439375+938631172+936010304+935056956
845+936999628+939580645+939785456+938020467+937188280+938593661+940674385
835+941084593+939217162+936610626+935068289+935092638+936057248+936999189
825+937460655+938330645+941089053+945288086+947974251+947115301+944484855
815+943366253+944743483+946864570+947825596+947782016+948269147+950179939
805+952973006+955533329+957093507+957233753+955755836+953265196+951306291
795+950644036+950195733+948931036+947448805+946491800+945712260+944985513
785+945383290+948158661+953243699+958224685+959398201+955687980+950312653
776+946989899+946644550+948311557+950603454+952131971+952689151+953608060
766+955415239+956214669+954078226+950218985+947982733+948920872+951035890
756+951477613+950192662+949499989+950776531+953031868+954461452+954712256
746+955362227+957833124+961255761+963812867+965160117+965845551+965812427
736+964636938+962651855+960731046+959140962+957937028+958081734+960328955
726+963011829+963103742+960104620+956870050+956202092+957877069+959210573
716+958329175+956390963+956082466+958159023+961137159+964064841+966290125
706+965062062+958034425+948002914+940613329+937889654+937103240+935367573
696+933334742+933429434+936129491+939173143+939325746+935207365+928602805
686+921962854+915939312+910329560+906093381+904371022+904187123+903732897
676+903410580+904525306+905588482+903095137+896303681+890900787+893915118
666+901588776+905791612+904630747+901442169+900324372+901537080+901883599
656+899245183+895079054+891872050+890164827+889163949+888175357+886678282
646+884217476+880524658+876037456+871729984+867394581+861925660+856424492
636+854385446+857021011+860937506+862505434+861154162+857515600+852359197
626+847836531+846181150+846530960+845853496+842969174+839784253+838402563
616+839157096+841807651+845595818+848077756+847556259+846915209+850209007
606+856191529+859932388+858781320+855106709+853484233
##END=
