##TITLE=<SNM>
##JCAMP-DX=4.24
##DATA TYPE=INFRARED SPECTRUM
##DATE=3/5/2025
##SAMPLING PROCEDURE=Instrument type and / or accessory
##ORIGIN=Admin
##XUNITS=1/CM
##YUNITS=ABSORBANCE
##RESOLUTION=4
##FIRSTX=4497.3318
##LASTX=599.83466
##DELTAX=-1.4281778
##MAXY=1.7404276
##MINY=0.18474026
##XFACTOR=1
##YFACTOR=1.6208995e-09
##NPOINTS=2730
##FIRSTY=0.20845452
##XYDATA=(X++(Y..Y))
4497+128604220+127716172+127689888+128065723+128118114+127732508+127225800
4487+126802888+126628549+127073019+128199326+129202951+129143619+128155705
4477+127241180+127103660+127770126+128909083+129866724+129863892+128844088
4467+127749699+127554584+128351822+129459945+130037790+129623988+128488644
4457+127447971+127076559+127198717+127244646+126891501+126254673+125727695
4447+125762877+126477055+127288690+127287146+126232031+124954294+124527861
4437+125154456+125997477+126046789+125005748+123427423+122246573+122094491
4427+122730160+123226424+123043757+122617241+122480079+122371389+121795962
4417+120971448+120608613+121090471+122217008+123416088+124003824+123541115
4407+122169535+120533174+119210878+118267505+117567815+117304055+117673637
4397+118288631+118615843+118776291+119211806+119857395+120279535+120305708
4387+120076707+119752924+119307038+118483526+117154124+115677071+114600452
4377+114272202+114891112+116273577+117422223+117288684+116166274+115343874
4367+115399952+115826643+116171110+116488558+116659459+116265441+115309437
4357+114367507+113973912+114299726+115203486+116179237+116617502+116445764
4347+116107797+115844211+115576948+115397158+115474555+115591032+115397158
4337+114985434+114747258+114859065+115185320+115506722+115669201+115637356
4327+115547622+115640657+115969863+116215338+116049466+115645078+115429141
4317+115433489+115376050+115211493+115125188+115186598+115390741+115768892
4307+116174484+116319616+116217039+116223125+116561267+117072636+117354056
4297+116983058+115976657+115137507+115416785+116808544+118314914+118979431
4287+118596454+117660206+116951819+116870065+117012595+116801824+116441251
4277+116609834+117283462+117624564+117164015+116409764+116047205+116162928
4267+116505308+116938379+117312512+117350324+117014149+116685283+116714287
4257+117003494+117275822+117563136+118067683+118704878+119237244+119646008
4247+119898415+119728737+119193861+118932078+119357196+120117037+120687959
4237+120975989+121138257+121296260+121540200+121882635+122143592+122032732
4227+121494556+120938646+120785121+120846789+120744993+120765540+121460348
4217+122536516+123143852+123122560+123032734+123165851+123308023+123236877
4207+122975764+122756977+122806068+122981455+122877269+122495772+122410496
4197+123024800+124007428+124631100+124471259+123745138+123055184+122791497
4187+122858781+122984332+123040089+122986079+122805231+122609896+122581029
4177+122773543+123153486+123739788+124518328+125317028+125965862+126489577
4167+126912764+126978091+126416436+125475472+124774844+124578019+124572016
4157+124419244+124189140+124188606+124642343+125534556+126526993+127068073
4147+126810068+125937731+124987932+124391729+124226032+124284105+124319425
4137+124309754+124491052+125044304+125811095+126475162+126936823+127279828
4127+127469069+127380309+127063808+126686301+126255234+125655593+124945616
4117+124441730+124530196+125377556+126672134+127708744+127959496+127507690
4107+126776825+126065166+125573645+125569306+126100808+126725666+126947616
4097+126847732+126890140+127126606+127036045+126277491+125249146+124709508
4087+125037685+125989203+127037764+127796832+128133108+128063047+127720005
4077+127404901+127438309+127817489+128140656+128002501+127392362+126597017
4067+125847748+125222798+124769650+124556305+124598354+124793111+125024548
4057+125355731+125917239+126555234+126906504+126893735+126772339+126697093
4047+126662932+126741708+126953720+127084189+126953058+126668337+126460591
4037+126470115+126735374+127210604+127770641+128261775+128565094+128693688
4027+128833497+129125977+129434572+129542114+129484390+129428514+129329541
4017+128977618+128333877+127546071+126684407+125790888+125142202+125076682
4007+125557061+126222359+126841141+127466651+128229508+129105035+129809211
3997+130025903+129847666+129712996+129785024+129787102+129535017+129232020
3987+129168008+129392744+129690969+129793399+129676462+129617258+129905748
3977+130617371+131595099+132418850+132557106+131883304+130885278+130170281
3967+130057693+130678947+131937415+133285139+134057335+134089502+133655576
3957+133013031+132357183+131955681+132087088+132899845+134161870+135182245
3947+135505365+135521545+135739303+135924132+135578975+134782123+134021886
3937+133739216+134333460+135963736+138048455+139362036+139127308+137922565
3927+137024293+137045814+137511714+137788032+138106694+139132566+140740134
3917+141702270+140895673+138690854+136544972+135510799+135704002+137038120
3907+139870821+144344481+149254198+152504608+153180001+151841130+148964780
3897+145190700+142266030+141912986+143976801+146068314+146180894+145725217
3887+147077152+149690790+151263139+151798097+152572564+152334857+149604080
3878+146656032+146506083+149118057+152747491+156233825+158187056+157064463
3868+154404004+153460622+154593327+155093618+153260974+150659664+149837862
3858+152440652+159158734+168417406+173374054+168443202+159163809+152018769
3848+148873372+149558114+152967676+157323672+161256701+164505154+166779850
3838+167092178+165430774+163239386+161340580+159431881+157547158+156506641
3828+156725180+158067416+161127023+166614722+172356337+173763862+170772855
3818+167641137+165502775+162539476+158849238+156614146+157394901+161197626
3808+165952430+168971127+170826855+173820106+176946547+177159883+175276539
3798+174083655+173429121+172210166+171359929+172309084+174937477+178363706
3788+182170973+186149508+189950799+193954633+199488685+207050799+215044126
3778+221742011+227835079+235200240+244613044+255273449+265115315+272251548
3768+277021686+280898103+284513638+288680246+294986154+303928710+313896302
3758+323271543+333043523+345873032+363496214+384533287+403479178+416255441
3748+426080337+437415335+449804309+459063532+465295711+473171109+485058247
3738+499895723+515129937+528329526+537579850+542363042+544635514+547196098
3728+551182907+555463234+558106667+558562537+557142527+553186203+546532500
3718+539830920+536849878+539042332+544124375+547297848+545633301+541159402
3708+537562126+537124238+540284583+544999084+547759491+547689476+547458066
3698+548910546+551752440+555896746+562246634+570842223+578888687+581826411
3688+579000953+575131044+574024153+576177629+580261112+584644734+589150955
3678+594425319+598061795+595489260+588606979+583097785+580200364+577924620
3668+575217754+572537953+570251287+568544488+567691291+568123810+570131703
3658+573030816+575294940+576652951+579013419+583994595+590285058+593147178
3648+589666249+583319377+578320440+575538154+573984255+572987240+573033684
3638+574957000+578367987+581696861+584669372+589464111+597337008+604321737
3628+604651146+600279255+597150019+597726319+601538054+607032170+612268584
3618+616270543+619773977+623261340+625792029+626792831+627389282+628716551
3608+630524806+632237084+633843531+635264423+636182781+636935515+638888801
3598+643029172+647981775+650757516+651200479+653301811+659470115+665967167
3588+666360781+660710454+655549497+654241423+655139851+655941566+655872508
3578+654872735+653007115+650896958+649536079+649579176+651171723+654062047
3568+657055702+657790418+654885826+650029199+646482337+646059820+647487773
3558+647845864+645842568+642914883+641562755+643152507+646626044+649280656
3548+649279406+647212935+645079758+644346439+644926195+645740855+645967521
3538+645280021+643504715+640772880+638142391+637217929+638560128+640965275
3528+642753819+643288860+642564734+640141201+636204992+632789114+631661740
3518+632237525+632786834+632532882+631606728+630234523+628978078+628633298
3508+629425232+630594527+630847007+629532535+627444735+625663472+624084678
3498+622101607+619827738+617740159+616035787+614883592+614647439+615715829
3488+618041327+620592019+621909728+621573773+620294014+618620495+616598628
3478+614693993+613684806+613275601+612343784+610865637+610088706+610584033
3468+611674707+612808626+613777988+613569193+611134849+607443214+604737856
3458+603930514+604112979+604280920+604524097+605522693+607419974+609285888
3448+609710353+608226433+606096345+605110656+605496915+605733326+604812504
3438+603518698+602720402+601873420+600165848+597958428+596371544+596273435
3428+597572169+598914331+598623092+596419054+593628016+591534370+590434870
3418+590174262+590307820+589935756+588706779+587495601+587206017+587860753
3408+589165885+590669736+591394119+590652306+589121059+588188360+588706743
3398+590348932+591703009+591352823+589009271+585598762+582482948+580543746
3388+579639913+579148522+579139365+580183743+581963241+583116834+582777864
3378+581655308+581215545+581834317+582330930+581763235+580682342+580016465
3368+579908169+580157230+580632883+580821784+580070962+578567110+577342510
3358+577132208+577659085+578287124+578824813+579269430+579602222+580166202
3348+581057275+581273020+579957261+577809669+575796959+573981607+572836068
3338+573426194+575154800+575606367+573636828+570658507+568535222+568195296
3328+569895770+572764435+574459651+573316097+570538591+568695587+568843008
3318+570151340+571205720+570846451+568950862+567035269+566903218+568515365
3308+570284934+571353729+572216083+573171692+573666393+573280869+572250980
3298+571025865+570000646+569485535+569574635+570101182+570594633+570362120
3288+569227723+568082735+567883612+568460316+569185581+570099122+571343212
3278+572354458+572666951+572692104+572954145+573346361+573489039+573132492
3268+572167690+570866566+569913568+569699846+569856644+569597949+568290574
3258+566113527+564439456+564681824+566288160+566999783+565889987+564700799
3248+565166707+566520342+566668499+564975122+562755640+561332100+560677659
3238+560184465+559981664+560527001+561204536+560677181+558728749+556583731
3228+555297684+554844462+554745507+554742051+554692224+554269266+553189549
3218+551785021+550841510+550609439+550484669+549863470+548811223+547851165
3208+547608098+548341343+549356376+549420067+548133321+546170879+544120109
3198+542089344+540274985+538919364+537923857+537255258+537324317+538263930
3188+539302351+539455030+538541563+537196238+536061915+535194156+534209901
3178+532875498+531413310+530155137+529153305+528410021+528155076+528434548
3168+528668164+528115436+526558044+524139916+521026272+517750130+515372158
3158+514611848+515041315+515524654+515334025+514645459+514012456+513547466
3148+512838344+511657136+510295153+509056873+507949100+506932338+505970478
3138+504886680+503675097+502758578+502497272+502672677+502688930+502095678
3128+500961392+499900135+499483465+499546971+499424445+498839430+498197381
3118+497974539+498052865+497736474+496430753+494282500+492051397+490358131
3108+489152101+487940334+486531650+485422737+485232917+485838818+486386950
3098+486152783+485216663+484337652+484161474+484464848+484337615+483249367
3088+481681091+480507016+480047249+480036217+480225632+480581370+480985832
3078+481146087+480869373+480180365+479175959+477954705+476671894+475587471
3068+474957300+474719675+474334409+473246161+471602207+470272253+469948397
3058+470304981+470330244+469545590+468460211+467692253+467202994+466601394
3048+465748859+464892095+464447588+464569489+464849328+464716947+464074383
3038+463190150+462188428+461050501+459900843+458925194+458082844+457129331
3028+455931024+454646153+453576586+452950938+452848563+453110126+453292261
3018+452964507+452068837+450864609+449641480+448563050+447673338+447007938
3008+446650068+446520591+446247849+445508757+444334425+442949644+441604430
2998+440582152+440025636+439785989+439557448+438997769+437860688+436345179
2988+435053580+434315959+433921426+433619927+433355974+432993690+432410551
2978+431855138+431669841+431663296+431207978+430061151+428749363+427939631
2968+427646922+427303539+426530323+425560630+424810580+424271567+423555716
2958+422454083+421206463+420173522+419438217+418807825+418067152+417217117
2948+416546018+416325897+416394625+416322661+416008991+415702234+415454424
2938+415062722+414487085+413829701+413036002+412028434+410949085+410036831
2928+409489729+409409712+409561472+409399158+408620830+407409026+406075800
2918+404913640+404229265+404054081+404021574+403816456+403472486+403098509
2908+402601491+401785176+400631437+399434857+398572136+398131748+397894160
2898+397622705+397195224+396535965+395638457+394639898+393738639+393035952
2888+392512494+392107150+391726260+391247297+390680852+390225681+389965552
2878+389640115+388953498+388012083+387203748+386714452+386395928+386029747
2868+385480659+384680598+383745104+383026200+382745773+382653437+382339472
2858+381774499+381257734+380972084+380804218+380525555+380052586+379463968
2848+378718404+377601290+376208050+375165180+374996137+375504444+376021724
2838+376030439+375421081+374425978+373429147+372645377+371988251+371393454
2828+371058530+371076843+371052021+370460976+369317974+368167102+367473829
2818+367230762+367107648+366819829+366297180+365600929+364840104+364157605
2808+363615982+363109954+362529794+361893738+361215284+360450341+359629247
2798+358831723+358086196+357434512+356935766+356543734+356156629+355731317
2788+355214994+354538599+353779650+353142124+352674707+352119846+351167547
2778+349868078+348642448+347843821+347491871+347378648+347134883+346381339
2768+345201013+344163181+343541724+342950936+342038204+341021296+340263854
2758+339770771+339313688+338737535+338007599+337174039+336401999+335895971
2748+335694605+335583368+335235940+334438417+333267505+332108764+331358199
2738+331025334+330761527+330315439+329762674+329237598+328682847+327993141
2728+327231618+326527533+325866068+325152827+324402005+323694685+323033183
2718+322390472+321824983+321398311+321020730+320503340+319784105+319009969
2708+318341996+317776911+317239958+316721612+316205546+315584016+314788037
2698+313944621+313280251+312860088+312513249+312047745+311436070+310747981
2688+310070925+309560154+309346027+309306864+309135541+308698572+308152665
2678+307645222+307071864+306276547+305382716+304692991+304268103+303863365
2668+303321540+302765520+302353410+302092380+301920836+301750321+301414422
2658+300788663+299995589+299310351+298843983+298475062+298071042+297578859
2648+296946408+296181943+295438015+294856420+294438187+294183464+294160297
2638+294284919+294232721+293764256+293049361+292500549+292304183+292252830
2628+292034861+291533908+290838759+290146313+289689193+289580163+289666799
2618+289639937+289331451+288863171+288476342+288237780+288003116+287670821
2608+287314899+287029102+286810581+286623501+286459275+286341841+286294294
2598+286234980+285998919+285575023+285148406+284807965+284459987+284097133
2588+283857928+283766327+283677613+283497943+283236159+282855268+282306088
2578+281735727+281440554+281509484+281674372+281643171+281453682+281337903
2568+281346251+281312843+281181675+281180425+281571795+282303717+283008297
2558+283352967+283334066+283200416+283109826+282925651+282433082+281689228
2548+280978782+280454075+280033433+279650723+279396109+279365386+279503945
2538+279652230+279682255+279559012+279327289+279077383+278858991+278605646
2528+278237148+277840629+277618872+277645110+277773354+277801375+277652832
2518+277398439+277157119+277003980+276942423+276901826+276769922+276520899
2508+276291235+276218407+276232087+276145965+275931195+275740732+275653636
2498+275556630+275327518+275005648+274721948+274547223+274434202+274261132
2488+273955736+273563979+273134071+272629790+272066913+271583684+271257070
2478+271011338+270768547+270516066+270221150+269848460+269445451+269093078
2468+268819692+268628126+268517128+268401294+268119965+267645066+267180022
2458+266915774+266796539+266655682+266463398+266310608+266234286+266163279
2448+266030309+265879357+265791894+265731660+265604997+265446508+265345530
2438+265231903+264962305+264584099+264305602+264220087+264211629+264134940
2428+263977921+263810312+263666678+263551672+263484875+263486254+263569396
2418+263734377+263910903+263999580+264027528+264112895+264229060+264213707
2408+264066856+263990571+264034073+263974042+263716615+263541523+263708029
2398+264089508+264445209+264758125+265054163+265195259+265094281+264861327
2388+264551794+263988659+262960387+261422062+259401152+256826300+253568801
2378+249634265+245258402+240817857+236652002+232918336+229572988+226487475
2368+223601711+221049418+219148148+218104027+217805379+218268088+220140235
2358+224154255+230142687+237368773+245727970+255343813+264956292+272222185
2348+275583069+275299332+273200758+271163264+269430209+267127602+263866059
2338+259982214+255882384+251775035+247897349+244672376+242496451+241404195
2328+241009479+240778142+240428454+240152457+240363734+241207094+242470729
2318+243919513+245484517+247133932+248728428+250101221+251264117+252408461
2308+253657294+254929203+256052972+256925953+257605896+258273447+259012521
2298+259687739+260168706+260542278+260954223+261389978+261730841+261923989
2288+262036918+262199361+262489000+262821295+262957685+262707742+262163287
2278+261632585+261309906+261148162+261046945+260974871+260915722+260848520
2268+260764421+260667949+260610602+260650445+260719338+260666386+260467998
2258+260250083+260107204+260013581+259898115+259740912+259592241+259519265
2248+259551423+259650304+259712137+259665639+259578157+259573431+259666043
2238+259770808+259826096+259858198+259976183+260282204+260753224+261284753
2228+261829171+262396756+262998190+263657338+264394555+265212064+266164841
2218+267327572+268621929+269843110+270924867+272033413+273360517+274932507
2208+276637449+278357413+280055221+281779193+283594305+285513061+287518766
2198+289592279+291640052+293504127+295135781+296645608+298165749+299792219
2188+301583300+303467104+305233934+306679813+307726195+308471943+309123479
2178+309776156+310347602+310737832+310872787+310666640+310133512+309420161
2168+308655696+307878765+307047098+306062898+304888897+303575179+302169878
2158+300774065+299543434+298467707+297378210+296200568+295014487+294023981
2148+293458161+293332234+293789979+295798681+300507298+307765763+316278981
2138+325095573+333954012+342601008+350783862+358575896+366259893+374152537
2128+382436773+391010702+399704327+408394605+416674427+423893839+429671252
2118+434007106+437071070+439119964+440469775+441637745+443607836+447665800
2108+454786588+465173663+478288968+493100556+508008745+520782029+529440793
2098+533305958+532815375+528953262+522907814+515372894+506417706+496129512
2088+484439879+470838441+455217636+438150676+420223496+402159043+385037035
2078+369643301+356254407+344957616+335523244+327534440+320970536+315944203
2068+312068889+308772522+305781423+303021568+300578857+298585324+296892867
2058+295361804+294236784+293639358+293306548+293192185+293587858+294713338
2048+296798012+300196790+305209131+312235542+321901507+334703841+350920472
2038+370669476+393352674+417382814+440960064+462583734+480843779+494657323
2028+503681679+508264351+509266220+507605644+503915259+498869621+493078235
2018+486462187+478636285+469724452+460148764+450154751+439819599+429035307
2008+417622424+405725652+393800233+382234671+371263758+361042527+351592380
1998+342875516+335053217+328446363+323029359+318168760+313255466+308426106
1988+304182000+300654664+297715138+295351857+293535457+292059167+290723698
1978+289458243+288263263+287162017+286162005+285322046+284856266+284879690
1968+285036102+284744864+283875339+282845432+282059124+281573285+281306941
1958+281272319+281448092+281623865+281574994+281303006+280994282+280837226
1948+280965563+281513088+282505193+283496343+283608702+282486421+280881979
1938+279734693+279223664+279028641+278938364+278927204+278980837+279076151
1928+279328668+280074030+281450685+282895479+283732680+284211018+284888093
1918+285275326+284468720+282885385+281910967+282217099+283304078+284230636
1908+284469621+284216001+283978395+283977034+284062254+284108055+284265717
1898+284756300+285470056+286015908+286404079+287206291+288490775+289216317
1888+288541816+287102556+286028852+285647575+285693872+285917063+286133433
1878+286210269+286183296+286258257+286881552+288705067+291847008+294935352
1868+295740709+293740961+290776448+288684438+287874118+287845362+288038969
1858+288161238+288176701+288213970+288437988+289019436+290094464+291695450
1848+293920632+296851994+299612382+300190263+297999445+295180993+293785327
1838+293926331+294577997+295189046+296430544+299117387+302495738+304479526
1828+304391180+303598364+302812074+301476402+299689163+298478445+298320452
1818+298781763+299393641+300263882+301757878+303710244+305190303+305425004
1808+304774829+304336591+305018428+307135793+310164070+312744070+313735900
1798+313570570+313938958+316164140+319847832+322479278+321736656+318862475
1788+316882382+316989831+318402450+320176910+322111883+323959079+325189196
1778+326082107+327979241+331988922+337528085+341836911+342455205+340307282
1768+337645794+335699422+335393952+337265529+340155301+342025885+342759645
1758+343620822+344727199+345910981+348392946+353252441+359127154+362970108
1748+363705229+363026812+362740648+363587262+365489397+367536857+368652390
1738+369629732+372834461+378524171+382384997+380553429+375857976+371851016
1728+369217658+368086828+368562996+370137303+372757423+377640048+385565714
1718+394262391+398584786+396598957+391870335+387974648+386455243+387903788
1708+392162199+397642783+402128742+405782061+411065434+418409652+424075091
1698+425443105+423964369+420567172+416430258+414330985+415582098+419371144
1688+425098068+433543588+443762685+449558631+447114836+442039817+439776060
1678+441621161+446588363+452121275+456174789+459760703+464252730+467719023
1668+467667174+466340898+467567447+471653321+475582838+477080474+477751280
1658+480805389+488451252+501350262+515704619+521462027+518923947+518564716
1648+522873542+526820453+525664066+522136951+520880653+523269105+529289326
1638+538621396+548761102+553953720+552290019+549586940+550567408+555489858
1628+562424760+569905184+577980698+586399926+593789889+600333164+608542420
1618+619647111+630272914+635179552+634947590+633538612+632403884+630938130
1608+628740601+626655816+626164903+628107965+632211564+637737819+644142572
1598+651029707+657973398+664494352+670014136+674121485+677013133+679292665
1588+681416575+683592555+685955266+688549498+691346787+694673675+699453007
1578+706203642+713136963+717072437+719120964+723825941+732920460+743743952
1568+752576503+759868136+768618464+780378553+795993658+817425596+843903098
1558+863753006+869543215+870605869+872792660+875495959+877396145+878050476
1548+878060405+879127765+882484881+887793663+893425677+894905258+886394541
1538+872398017+862791624+859302348+857598086+853442418+848005078+845235736
1528+846098715+848568361+851154061+854247002+857196089+857814088+856437985
1518+855215665+854053652+852214729+850929748+851971515+856122403+863556126
1508+872499362+875953631+868851450+858759805+852942385+851867964+853441609
1498+854844188+853651507+850444718+848708317+850743532+855362829+858513062
1488+857100112+852509351+847959333+845047166+843746594+843661282+844732834
1478+847017661+850330502+854184930+857223374+857089448+853462496+849681246
1468+848725527+850547460+852519794+852174353+850749048+851628721+856236177
1458+862001455+863010715+857585951+850921143+846815265+845657223+845933679
1448+845208157+842160740+837918141+834327814+832258842+832101750+834198375
1438+837653599+839388897+837309849+833880292+832146539+831891484+831040935
1428+829047641+827550850+827754496+829306225+831572225+834142554+835558445
1418+833751220+829164063+824240142+820320406+817468620+815408105+814038033
1408+813512700+813582568+813349356+812602505+812479685+813698549+815536295
1398+817138108+818325347+818472511+816670728+813897341+812548008+813376347
1388+814352585+812848734+809410572+807629309+810004302+815945720+823136450
1378+829788755+835430403+839938279+842857065+844277884+845363557+846977726
1368+848794733+850485241+852633495+855393203+857353255+857278165+856033340
1358+855091374+854472124+853376227+851983282+851318287+851585256+852066609
1348+852604003+853882218+856220071+859141211+862014546+864315111+865654148
1338+866335470+867417687+869644707+872846716+876401962+879693622+882263583
1328+884220399+886462423+889902276+894727867+900625011+906918269+912231391
1318+915374269+917121408+919625252+923813280+928505902+931971570+933660534
1308+934462249+935541377+936960284+937786564+937642047+937295797+937599465
1298+938707716+940137508+940984233+940558701+939105154+937381550+935703839
1288+933856090+931576264+929003729+926647048+924736492+923015536+921522570
1278+920718574+920355629+919458525+917955483+917055805+917548558+918777497
1268+919614514+919722258+919635181+920017468+921095493+922689584+924477246
1258+926149515+927489434+928329246+928328437+926971750+924164605+920740638
1248+917822440+915488044+912584922+908335705+903661837+900133803+897984005
1238+896053224+893501134+890538883+887551111+884763677+882841795+882572179
1228+883702935+884945848+885264740+884714549+884169432+884503107+885908922
1218+887976202+890227493+892255941+893748025+895010207+896831700+899182791
1208+901028553+901917199+902734801+904562103+907433673+910304140+912168363
1198+913327802+915086266+918095807+921722686+924857401+926707282+927341682
1188+927947915+929930618+933451077+937185038+939493840+939904664+939729553
1178+940800738+943578758+946957643+949674254+951328946+952166846+952845152
1168+954333338+957159384+960611152+963196779+964299662+964907292+966121448
1158+967735470+968912339+969505555+970126938+971400519+973449045+975907071
1148+978441657+981100167+984050357+987112189+989816370+991751637+992586227
1138+992417662+992104580+992793036+995006524+998099613+1000522631+1001047375
1128+1000134754+999685172+1001006264+1003486132+1005724332+1007362991
1120+1009075858+1011332958+1014013531+1017072642+1020809912+1024957931
1111+1027748749+1026822007+1022146448+1017393593+1016846932+1021347968
1103+1027738085+1031856245+1032355470+1031666940+1032867050+1036275573
1094+1039604962+1040816618+1040078151+1039133832+1039409920+1040881411
1085+1042428728+1043062907+1042926260+1042886473+1043688115+1045514167
1077+1047473924+1048175398+1047554089+1047044936+1047857830+1050347995
1068+1054425926+1059240191+1062999966+1063956200+1061550392+1056988680
1060+1053046293+1052426822+1055455044+1059816565+1063090942+1064988039
1051+1066508511+1068412742+1070893567+1073164273+1073741823+1072450885
1043+1070863045+1070037869+1069384935+1067702075+1064406370+1060201794
1034+1057039794+1056657654+1058769797+1061363660+1062768520+1062506258
1025+1060785448+1058626531+1057654852+1058230122+1058324849+1055840347
1017+1051962164+1050234294+1052146100+1055383484+1056851004+1056132174
1008+1054894997+1054176093+1053864041+1053998482+1054845869+1055653321
1000+1054665831+1051213033+1047014414+1044489610+1044402017+1045754954
991+1047198571+1047853859+1047159151+1044900065+1042049602+1040321659
983+1040136399+1039818684+1037325945+1032692380+1028030942+1025128041
974+1023784004+1022329060+1019255756+1014623809+1009882942+1005890397
965+1002070830+997944212+994183481+991353978+988802330+985943630+983173405
955+980677724+977794387+974212297+970843267+968696411+967262501+964860223
945+960999397+957570060+956780259+958403842+959929241+959622632+958312425
935+957472319+957180197+956873294+956655747+957096135+958472239+960187311
925+960622478+958626316+955441958+953583399+953922883+955252726+956094965
915+955780780+954642449+953998046+954936629+956693549+957016633+954697387
905+951109413+948587992+948067586+948589242+948263069+946133055+943501830
895+942608919+943845654+945168584+944877419+943615163+942422996+940884653
885+938652190+937130247+937965278+940649750+942995545+943612883+942895303
875+941858611+941095654+940803165+940666297+939990859+938594236+936812385
865+934770918+932659217+931290321+931495880+933197494+935535788+937472673
855+938185252+937482307+935808714+933802623+932033936+930896487+930591348
845+931335772+933154837+935226751+936308968+936023907+934838359+933174548
835+931540448+930864127+931629585+933234634+934878956+936464148+938011612
825+938754271+937890924+936269180+936079507+938264019+941431976+943816383
815+944970674+945514540+946627646+949310499+952769842+954363271+952664746
805+949561435+947772229+947670590+947906228+947941898+948415749+949480462
795+950288797+950047569+948581079+946291765+944315166+943928319+945270223
785+947395090+949504438+951212156+951969671+951125888+948941376+947205270
776+947770023+949940561+950800597+948827970+945408341+942786824+942328638
766+944252358+947352213+949682123+950585551+950931287+951397563+952151916
756+953245532+953704675+952045275+948973001+947123046+947370893+948111346
746+948623955+950431842+954094684+956889253+955858665+951984527+948653668
736+947205343+946667802+946725314+948168049+950721316+952683868+953006658
726+952269073+951236132+949779864+947856365+946236165+945443201+945198517
716+945362743+946110403+946383623+944400552+940970774+939175978+939915475
706+941176333+941857949+942347613+941977386+939688514+936147684+933227426
696+931703718+930228108+927114354+922678037+919101243+918181414+919719096
686+921689297+921464028+917700429+911822701+907202080+905875840+906233784
676+905304321+902507840+898811976+893715518+886467497+880509679+881516879
666+887308118+891860121+893266672+892193060+889863150+886875967+882150839
656+874922895+867714442+864027918+864395570+867139319+870647054+873141264
646+872957548+870727807+868830195+868139459+867104458+864040567+860186287
636+859193060+862724551+868571316+873098167+873887086+870328015+863371748
626+855651420+850108028+847280879+845103428+841798309+837575274+833172788
616+828836787+825625438+825167031+827477525+830858249+833173965+832802267
606+829858108+826652570+825863357+826897843+825791724
##END=
