##TITLE=<SNM>
##JCAMP-DX=4.24
##DATA TYPE=INFRARED SPECTRUM
##DATE=2/5/2025
##SAMPLING PROCEDURE=Instrument type and / or accessory
##ORIGIN=Admin
##XUNITS=1/CM
##YUNITS=ABSORBANCE
##RESOLUTION=4
##FIRSTX=4497.3318
##LASTX=599.83466
##DELTAX=-1.4281778
##MAXY=1.7078273
##MINY=0.29484883
##XFACTOR=1
##YFACTOR=1.5905381e-09
##NPOINTS=2730
##FIRSTY=0.30702651
##XYDATA=(X++(Y..Y))
4497+193033098+193306737+193884650+194309555+194306650+193762221+192900400
4487+192301876+192283832+192645780+193242618+194092221+194861460+195189700
4477+195349191+195642317+195657457+195078850+194580327+195054810+196405186
4467+197499591+197294699+196104471+195386722+195962537+197210925+198333043
4457+199271368+199909634+199578359+197950784+195690284+193938894+193470144
4447+194175920+195196576+195664483+195368060+194705398+194176820+194030932
4437+194305938+194933805+195586574+195685506+195015069+194119652+193675111
4427+193754482+193977249+193974870+193476009+192386494+191013840+189867794
4417+189181430+188911482+189095369+189778905+190700965+191509927+192230543
4407+193084794+193911725+194228591+193906198+193349233+192828824+192027825
4397+190593732+188853040+187528279+186941072+186903241+187227002+187846737
4387+188434993+188395926+187470531+186165687+185376773+185652717+186885535
4377+188511423+189839894+190351065+189964478+189061811+188174302+187651570
4367+187601598+187937932+188308667+188201152+187491554+186746017+186578169
4357+186937681+187363485+187606113+187659871+187535661+187342630+187376638
4347+187926052+188886974+189536407+189136423+188019326+187452487+188167688
4337+189638656+190870031+191284293+190837447+189835828+188786617+188198979
4327+188334993+188935466+189256116+188742809+187690281+186908375+186777233
4317+186996722+187261460+187695977+188400479+189027466+189247722+189309461
4307+189651903+190252376+190791766+191159616+191463684+191810960+192155351
4297+192153440+191425535+190234070+189536875+190089587+191716487+193475372
4287+194366122+194037808+192921986+191700954+190800535+190338736+190217862
4277+190264837+190486723+190965048+191417946+191420082+191213654+191534586
4267+192395862+192902443+192549545+191833332+191363945+191254876+191463028
4257+191977759+192644075+193226710+193518955+193293995+192608980+192117689
4247+192438602+193236153+193603535+193374697+193328191+193936159+194675100
4237+194898560+194680178+194353643+193949949+193505876+193227122+193082901
4227+192917901+192962721+193525906+194361775+194958257+195140721+194970792
4217+194488439+193938782+193836102+194446018+195418463+196120211+196171438
4207+195660511+195097007+195075103+195656089+196241647+196398834+196385362
4197+196378204+195892160+194709764+193649029+193575785+194226680+194646657
4187+194402510+193896941+193698345+193898684+194202640+194494060+194985857
4177+195749382+196496211+196938336+197016807+196829491+196627447+196691097
4167+197025951+197356101+197402945+197057935+196449911+195906812+195734748
4157+195984141+196402825+196597224+196424504+196274643+196586469+197166612
4147+197506018+197551756+197624025+197832496+197988222+197875236+197486044
4137+197159304+197304743+197835775+198223824+198278593+198406774+198859860
4127+199200129+198859092+197933059+197086622+196825106+197120518+197656160
4117+198238645+198949181+199862715+200719645+201186765+201387703+201717985
4107+202175717+202401633+202364514+202396911+202493857+202202718+201324409
4097+200241564+199492880+199355404+199788029+200440216+200806867+200726353
4087+200662047+201231079+202451998+203568439+203731078+202914977+201971125
4077+201676501+202025145+202562661+203018482+203342318+203407018+203048817
4067+202415273+201995690+202131835+202618947+202947861+202843401+202439369
4057+202054038+201918118+202090163+202545591+203201414+203845394+204271217
4047+204512572+204686566+204637624+204125160+203444136+203402464+204382142
4037+205679435+206229598+205923056+205607540+205854591+206462259+207126981
4027+207800717+208300571+208286612+207806825+207366556+207343903+207617485
4017+207829947+207839859+207746323+207565958+207197171+206776257+206738895
4007+207366594+208517961+209818495+210791727+210917023+210091740+209033554
3997+208746949+209560951+210966264+212315384+213305105+213817700+213827931
3987+213596863+213546066+213766173+213855100+213335553+212213491+211171999
3977+211115900+212325146+214049592+215145328+215185913+214696665+214281953
3967+214054370+214114910+214872045+216334245+217717617+218362684+218471960
3957+218517173+218600610+218722889+219196979+220543607+222829084+225035752
3947+225835627+225308117+224698575+224444985+223830778+222528913+221200517
3937+220711474+221670990+224214536+227464382+229499623+228931022+226802245
3927+225745950+227004925+229012641+229531214+228737916+228630027+230012892
3917+231282510+230225110+226782102+223105065+221153973+221378108+223643049
3907+228424685+236076981+245057823+252044665+254758832+253085614+247508282
3897+239738953+233618934+232506016+236047263+239671442+239436252+237850593
3887+239539195+244073649+247049050+247460483+247980742+247876975+244511051
3878+240383739+240217971+244433741+250023571+254924638+258004856+257753664
3868+255506598+254713563+255432530+254181987+249702358+245128875+243953168
3858+248013251+258454737+274064934+284684761+278538997+262832922+249557088
3848+242885051+242784844+247649785+255098501+262984432+270038672+274763458
3838+275045154+271099313+266098639+262176875+259101997+256456821+254949371
3828+254990968+256099145+259001116+265519339+273850148+277634156+275803058
3818+273874338+272401833+266980920+258299218+251904061+251250056+256355134
3808+264046665+269911127+273841379+278679283+282686302+281060151+275591252
3798+271437520+268681851+265113284+261341792+259517196+260151208+262485758
3788+266032833+270259116+273902781+276558975+279814704+284513390+288343623
3778+288963639+287977403+288846137+293696295+302512905+312678842+320459525
3768+325142940+328869331+332940525+338332658+347100870+359739637+372754011
3758+382190319+389510440+399843925+416557859+438116085+456942157+467546957
3748+475319059+486360512+497975101+502118021+499959377+500713551+509330104
3738+525327412+544313050+559192606+564171095+559815695+552631793+549206697
3728+552043218+559159628+566038413+569517809+569881387+568985559+568490145
3718+569795345+574278684+583304008+596499235+608790950+613417029+611324977
3708+608880852+609395077+612919705+618213617+622999600+625644926+627154549
3698+629118776+631923593+636231514+643837416+655581854+667798546+672103393
3688+665081119+654012946+646459883+645009619+649553928+658995033+672163427
3678+686547795+694586378+690186045+682084130+680748239+684232170+683874138
3668+678096242+672632383+669876957+668755345+669201741+672516812+678323188
3658+683247564+684264622+683785099+687457151+697599928+710614827+717686943
3648+713839135+705139126+699298198+698505837+700661296+702820953+704506332
3638+707657863+712885933+717696836+720193163+723034931+729617629+736163752
3628+734842326+727440734+720927139+718320337+720150592+725935908+732631779
3618+736370761+737623384+739558418+743112127+747001906+749547175+749284854
3608+746069166+741733589+738125243+735679132+734066154+733056740+733457193
3598+736945770+743458091+749336494+750935681+750014857+751738310+757470937
3588+761710803+758827889+751578744+746040160+743917979+743806679+744619352
3578+745598636+745585669+744304491+743002926+743466186+747193176+753677991
3568+758185426+755689623+749208631+745847691+747126172+748936491+748009296
3558+745835400+745656421+748038901+750288346+750096327+749158640+750351154
3548+753033130+754282905+753194495+751255339+749773896+749083016+748697553
3538+747532845+745689174+745290745+747513209+750387129+751305330+750065523
3528+748143755+746565553+745306934+743805855+741956787+740743288+741165326
3518+742759866+744397802+746283295+749688829+754398026+757765186+757246764
3508+753866413+751570649+752851828+756220187+757923029+756051252+752300578
3498+749542304+748927197+749732524+751207671+753413421+755894609+756994411
3488+756072088+755222241+756375182+758079448+757803111+755932008+754306139
3478+752647442+749798554+746707057+745289995+745772592+747059692+748027809
3468+747749823+746491204+746224085+748114600+749840751+747822448+742203969
3458+737286638+736841741+740924140+747224655+753708195+758559421+759372169
3448+755655821+750742313+748524871+749781016+752218509+752862995+750773491
3438+747839986+746162402+745478867+744520044+743299499+742532696+742604122
3428+744204958+748040550+753009671+756406361+756643574+754502131+751835369
3418+750063874+749330423+748748893+747780252+747362861+748690058+750911023
3408+751808912+751093374+750890712+752550233+754975584+756053276+754843299
3398+752644669+751475989+751536248+751301882+749877925+748089192+747364435
3388+748549529+751463397+754686805+756400589+756183387+754878075+753173359
3378+751749777+751510765+752195424+752072583+750265862+748000077+747004005
3368+747889378+749738520+750731970+749928591+748256703+747071834+746706082
3358+747092595+748501711+750798150+752729286+752921156+751377655+749187195
3348+747200821+745541674+744463458+744861437+746882812+749048989+750324472
3338+751900875+755318850+760018979+763622978+764006342+760904202+755973455
3328+751564129+749157515+748911907+750210024+752038256+753321833+753691857
3318+753882977+754894863+756779832+758493691+759014437+758355335+757368256
3308+757353716+759802751+764692275+769037820+769778392+767509385+764361900
3298+760693295+756828773+754547625+754329298+754438874+754191842+754858588
3288+756686970+758245610+759014812+760023176+761526878+762166343+761453953
3278+761203473+763013717+765969482+768156120+769039469+768829387+767504513
3268+766058821+766086327+766986090+765985371+762045450+757541913+755189788
3258+755207701+755876471+755691647+754240184+751769489+749438874+749518545
3248+753445874+759626246+764354180+765464475+764247978+762825970+761310575
3238+759086163+756947343+755901279+755530506+755093703+754951000+755656495
3228+756784853+757419746+756548539+753419792+748908610+745277554+743792889
3218+744014888+745477593+748321984+752085174+755351078+757080827+757596776
3208+757984113+758592324+758507107+756870820+754254874+752279967+752202395
3198+754359727+757998578+761170421+761735536+759098455+754901909+751498623
3188+749847646+749263118+748703324+747585085+745840121+744159764+743704824
3178+744807474+746583990+748001052+748542334+748269969+747873114+748027509
3168+748426238+748118797+746621840+744173330+741872170+741411683+743208886
3158+745496630+746271228+745067772+742417049+739457012+738076826+739356806
3148+742229002+744762129+746138643+746447958+745411038+742825222+739863011
3138+738401880+739027704+740778664+742565448+743585280+743013419+741011680
3128+739217400+738618483+738015668+735961540+733167590+731620042+732244218
3118+734425684+736946670+738508383+738120671+736065419+733952606+733139933
3108+733304671+733069406+731770465+730030748+728815899+728277240+727818178
3098+727262131+727173616+727717671+728134388+727792095+726862653+725648703
3088+724393457+724014065+725655898+728936792+731634058+731857780+729834232
3078+726882439+723873460+721347603+719711691+718752493+717830545+716714479
3068+715651027+714915328+714656079+714850422+715213850+715028875+713481403
3058+710946552+709339195+709933466+711564282+712290987+711837920+711249046
3048+711287495+711953042+712636802+712430542+710944453+708911686+707757396
3038+708363134+709984881+710657623+709117870+706027272+703224553+702404986
3028+704100707+707049052+708855549+707963355+704882126+701467748+699229695
3018+698154701+697277797+696329318+695831356+695727927+695483068+695269988
3008+695559291+695962742+695669766+694684411+693647941+692668657+691303460
2998+689645663+688572393+688388993+688104411+687037886+686009811+685889742
2988+686371590+686562260+685829633+684081747+682103767+681441892+682653293
2978+683886879+682687920+679315513+676609029+676366419+677430995+677724420
2968+676835825+675725305+674979787+674467735+674126567+674113526+674390987
2958+674475979+673726714+672055276+670087339+668420173+667038488+665651781
2948+664314465+663518506+663595029+664008373+663709102+662542970+661484764
2938+660975186+660189870+658505391+656625069+655530214+655238063+655279285
2928+655762331+657107292+658694487+658797992+656622446+653529225+651357502
2918+650392308+649570117+647975277+645845001+644298278+643893403+643721845
2908+642562083+640479325+638514311+637486835+637605854+638354370+638580266
2898+637491332+635520247+633793122+633025194+633043182+633082455+632555938
2888+631593218+630751316+630364878+630228246+629732384+628523493+627095864
2878+626204008+625765406+624997141+623545866+621995283+621321266+621950501
2868+623194992+623862975+623540844+622655659+621389732+619477408+617034069
2858+614664518+612815751+611728165+611600827+612052132+611888556+610224201
2848+607550619+605114775+603580157+602626842+601562004+600228361+599228429
2838+598957825+598838394+598169998+597197123+596471391+595781972+594590583
2828+592924016+591155294+589536133+588416244+588231532+588822093+589325788
2818+589087600+588258327+587336978+586499385+585580922+584450017+583142905
2808+581715351+580152627+578549992+577221782+576309540+575414686+574003096
2798+572113182+570381896+569435740+569309601+569360566+568839071+567652103
2788+566410385+565633163+565107284+564158054+562428830+560241930+558247236
2778+556904412+556264010+556057001+555986137+555934010+555806971+555318716
2768+554272652+552975472+551910633+551114712+550221732+548988745+547565613
2758+546297251+545347422+544615245+544026295+543558314+542839590+541304784
2748+539102781+537232053+536363656+536079000+535618701+534857893+534095362
2738+533330207+532313673+531081624+529927559+528968623+528097865+527221524
2728+526337612+525536745+524957501+524565068+524102820+523419809+522586526
2718+521639320+520598316+519643015+518857175+518027751+517012267+515968602
2708+515002846+514009509+512985593+512072526+511294405+510600865+509980549
2698+509266959+508151605+506633738+505125651+503959032+503111133+502444049
2688+501873200+501296692+500637366+499976390+499502113+499292967+499135012
2678+498596241+497485909+496195436+495241523+494595350+493888430+493028315
2668+492098123+490973775+489566232+488159289+487106068+486433663+485919962
2658+485335884+484598461+483824837+483206058+482805118+482560147+482427187
2648+482353812+482151675+481597914+480700437+479706575+478819329+478053987
2638+477361195+476677473+475857455+474792430+473595456+472506747+471663607
2628+471032162+470513440+470088029+469802061+469575340+469201082+468652605
2618+468134632+467741337+467387690+467069981+466788323+466324876+465583105
2608+464969010+464889939+464984375+464414313+462972631+461377790+460334612
2598+459770471+459224317+458581929+458100756+457948235+457986272+457900980
2588+457413586+456482794+455391161+454520441+454010038+453692292+453305630
2578+452706337+451970076+451373968+451164486+451213990+451016012+450215669
2568+449075319+448190396+447787395+447543698+447117163+446552497+446018673
2558+445464425+444815666+444283715+444109946+444132393+443962634+443497538
2548+442962252+442555241+442297379+442132866+441987839+441758383+441318320
2538+440574450+439605435+438733927+438283109+438217903+438163153+437805683
2528+437174425+436531887+436105652+435933344+435870275+435727309+435467536
2518+435226500+435078513+434899647+434566986+434143899+433726620+433266133
2508+432694684+432121849+431733126+431515137+431241310+430773928+430226800
2498+429787299+429552859+429536707+429630731+429619413+429387671+428990966
2488+428475316+427865344+427290035+426853869+426499060+426198927+426083318
2478+426203949+426371947+426348300+426088527+425760925+425541362+425402331
2468+425189064+424897325+424697136+424635115+424503880+424102303+423508144
2458+423015917+422842597+422922530+422971397+422765774+422400960+422196312
2448+422254172+422266876+421930317+421341368+420754330+420209638+419686568
2438+419345213+419308713+419423497+419475774+419441148+419358292+419181225
2428+418880829+418497465+418074565+417729574+417673025+417903156+418059575
2418+417882470+417617750+417661371+418008085+418321409+418355174+418066957
2408+417501842+416820143+416327091+416250380+416505657+416810399+417015198
2398+417177650+417260056+416971203+416158980+415198058+414627846+414506316
2388+414457112+414210792+413719539+412842748+411308054+409014014+406168836
2378+403082211+399909618+396657018+393388940+390296281+387518295+385026615
2368+382723843+380584723+378757990+377595568+377515748+378762337+381275791
2358+384803342+389054301+393762786+398867077+404461085+410086759+414461947
2348+416338595+415583971+413550491+411910794+410887927+409597567+407609132
2338+405117976+402307462+399312837+396553963+394588237+393528833+392922570
2328+392369146+391898579+391629849+391543695+391678903+392167833+393035556
2318+394161927+395366995+396468483+397380388+398184179+399068353+400181796
2308+401485272+402749324+403761436+404491252+405015184+405411439+405774867
2298+406164714+406502397+406693817+406847537+407203395+407837164+408559036
2288+409111373+409388422+409474501+409521756+409598654+409666071+409709054
2278+409795058+409913777+409913440+409765303+409712239+409924345+410182657
2268+410170028+409929966+409783890+409919960+410278592+410739416+411224111
2258+411661139+411990090+412201409+412321702+412396614+412511173+412735496
2248+413000103+413141007+413137372+413153749+413305895+413568217+413905338
2238+414293686+414684508+415129518+415755454+416433743+416770639+416634194
2228+416375807+416349013+416522595+416715289+416935152+417308136+417805535
2218+418187588+418238141+418020002+417843384+417985076+418474080+419096982
2208+419556082+419727191+419807161+420063225+420464352+420782623+420971307
2198+421153920+421371423+421632695+422045027+422647692+423278013+423737676
2188+423951355+423948957+423838033+423765182+423823530+424044255+424457636
2178+425044487+425640294+426036512+426239175+426510490+427039930+427664518
2168+428066882+428180392+428243574+428505296+428967806+429366648+429408657
2158+429100354+428784968+428804080+429206931+429810908+430442091+431041121
2148+431548152+431823102+431843451+431909331+432404931+433328791+434235674
2138+434685968+434667268+434550010+434688291+435100586+435527533+435749869
2128+435800797+435850676+435929597+435888113+435697929+435624517+435911684
2118+436435840+436913303+437323087+437829892+438364091+438625476+438552363
2108+438475540+438685173+439095069+439451752+439638187+439662096+439565374
2098+439423458+439268014+439056283+438853096+438855944+439078618+439256509
2088+439234025+439185120+439305451+439531610+439679484+439682707+439614466
2078+439576991+439602099+439619113+439532247+439339253+439163235+439198161
2068+439561627+440066971+440266822+439979842+439610906+439622973+439904444
2058+439983290+439660672+439137977+438701287+438507619+438549590+438693904
2048+438801119+438835671+438853396+438907846+438963646+438907172+438653694
2038+438209209+437657584+437155163+436850308+436746017+436760070+436886621
2028+437104798+437212649+436995447+436540919+436245320+436481447+437210026
2018+437872088+437813028+436937736+435806381+435036504+434780703+434757694
2008+434608245+434204907+433737188+433511142+433614271+433817121+433831474
1998+433650247+433678578+434413865+435739938+436713339+436508878+435334614
1988+433921263+432703903+431902660+431642288+431686170+431631570+431407772
1978+431178540+431004396+430886502+430835649+430882904+431271740+432231687
1968+433243049+433237240+432038168+430758938+430297252+430355638+430298564
1958+430143157+430181643+430286235+430162194+429880049+429735847+429843174
1948+430231147+431221486+433142805+435331916+436069901+434484355+431834982
1938+429877838+429022856+428657667+428318560+428031618+427924591+427929687
1928+428057775+428835934+430726785+433016441+434455275+435083947+435674845
1918+435681553+433989166+431346426+429732436+429942144+431104753+431834907
1908+431429170+430264312+429193141+428645900+428453956+428369039+428510992
1898+429223083+430390152+431264020+431644086+432520166+434309199+435458280
1888+434469702+432239032+430509958+429678398+429253812+428957351+428723060
1878+428524783+428469395+428802431+430156610+433600593+439331796+444861310
1868+446063717+442039891+436380715+432516943+431034076+430843331+430969845
1858+431058585+431075411+431111011+431316259+431922822+433235442+435526896
1848+439136703+444156265+448878953+449656849+445509994+440247111+437312819
1838+436853756+437326422+437999127+439919096+444306575+449924717+453229107
1828+452882018+451166922+449411278+446727054+443287568+440916405+440487809
1818+441123602+441698274+442282389+443863551+446651130+449097804+449433651
1808+447976604+446783528+447645554+451002334+455659479+459205580+459943416
1798+458876853+458921823+462313379+468381739+472535227+470301709+463990064
1788+459363610+458675765+460381718+462529832+464664792+466475149+467200056
1778+467497678+469822634+476096468+485223011+492097898+491939681+486364822
1768+479815626+474923441+473440499+476124499+480698413+483243982+483282393
1758+483128111+483283855+483642074+486328509+493301130+502399267+508064552
1748+507797621+504564095+502064208+501905353+503900684+506491597+507856194
1738+508985863+513663582+522983568+530468353+528781176+521535291+514793026
1728+510145324+508041730+508761915+511512020+516185542+524895143+539260361
1718+555465728+563656383+559780431+551045984+544564354+542941970+546658880
1708+555137864+565831778+574941008+582301977+592130905+605858457+617251272
1698+620939813+619150967+613693216+606758408+603535637+606650144+614359738
1688+624642370+638737809+656632414+668889354+667276751+660125714+656994643
1678+660335346+668666231+678058993+685322378+692132397+700811045+707793446
1668+707909392+704810924+705890940+712303429+718644267+720454286+720672987
1658+725029174+736865275+756662536+777623082+783356158+776285466+773688183
1648+777908787+779642058+771962181+761111885+754875751+755107569+761592608
1638+773176206+784088485+783622451+771150109+758782095+753191797+753101633
1628+754805299+756230605+757356040+756859952+752739629+747532470+746360492
1618+749749987+751273476+745230186+736010406+730210101+729104678+730216921
1608+730621721+729579630+728398808+728200343+728621182+728566319+727803787
1598+727364886+728273193+730311282+732328235+733535365+734041196+734286729
1588+734607885+735385331+737022743+739483319+742472362+746622889+753654682
1578+764021482+773544955+775814786+773029006+773109651+778233541+783743719
1568+784922817+783685708+784248726+788868958+800005260+820784803+846877483
1558+857466882+847000624+834294291+827247508+824501975+823735022+823788236
1548+825826999+832857968+846675421+865899022+886387538+899743980+895563098
1538+880388393+870657836+870142561+872645559+871454019+868240879+869285744
1528+876104906+885139712+893505597+901917727+909700734+912973308+911780794
1518+909692339+906393533+900730609+896130987+897404146+906485495+922394176
1508+939487351+943320919+927498430+909185459+900275069+900317190+905493095
1498+910915432+911759059+908147640+905969621+909478435+916696401+920924126
1488+918149513+911764230+906425986+903525683+902452038+902419211+903543746
1478+906833484+912958468+921060983+927889214+928347302+921473727+913688172
1468+910793565+912744489+914983816+913842867+912038394+915076902+924994383
1458+937104797+939813455+929476709+916663124+908663289+906107377+907200959
1448+909084578+909132320+906949654+904206595+903004787+905196672+911637342
1438+920471658+926303367+925240890+920704150+917631615+916750739+916084367
1428+914648119+913850661+915152976+918341757+922871976+928645525+933331413
1418+932288422+925666825+918825328+914749000+912692024+911263646+910500215
1408+911399378+913948395+916219425+916735749+917214374+920231147+925353164
1398+929752297+931684558+930973591+927687451+923364166+920726185+920392213
1388+919873490+916850946+912901956+911504607+913784856+918306156+923304657
1378+928151086+932934633+936953550+938484683+936955273+933888959+930876607
1368+928912418+929462769+933495102+939291884+942984998+942277254+938527854
1358+934351094+931071175+928556560+926334846+924389319+922787359+921278185
1348+919690690+918193358+917221644+917587320+919961106+923553338+925870687
1338+924865395+921193118+917272984+914606522+912795904+910824444+908665687
1328+907181547+906628198+906132560+904984191+903721900+903262912+903533478
1318+903747532+903582944+903210073+902589645+901662600+900840784+900624631
1308+901047643+901743845+902186494+901871633+900721165+899325914+898365517
1298+897696747+896469682+894408284+892317281+890820998+889368636+887021307
1288+883562709+879479411+875441832+871965621+869250893+867250803+865789671
1278+864590487+863603858+863300689+863992469+865027740+865472487+865347322
1268+865325437+865569546+865773782+866026211+866844354+868373464+870042129
1258+871246336+872055110+872942357+874112761+875341475+876327730+877121665
1248+878180170+879761594+881408375+882571059+883608353+885500966+888597410
1238+892115818+894895003+896455816+897307912+898402992+900344921+902946552
1228+905524574+907735345+909944093+912538004+915289608+917773568+919868544
1218+921572135+922950972+924290686+925804507+927539952+929640323+931888719
1208+933378706+933763719+934270974+936442622+940344169+944531646+947479916
1198+949040729+950494666+952937030+955952004+958380652+959951434+961262742
1188+962597660+963653092+964254783+964877684+966345935+968894352+971691900
1178+973792946+975366950+977197356+979156373+980208283+980185498+980470080
1168+982340433+985481697+988428468+989898893+989679592+988770010+988370682
1158+988361538+987931556+987913718+990328875+995129960+999488171+1001221517
1148+1001314079+1001948898+1003814154+1006247449+1008475759+1010063929
1140+1011248124+1012612795+1013961428+1014246310+1013162622+1012244421
1131+1013247014+1015726478+1017628684+1018396837+1019605090+1022184386
1123+1025268089+1028017369+1030364023+1031828602+1031643928+1030232488
1114+1029154046+1029620004+1031648275+1033890525+1034561619+1033657508
1105+1033320013+1035045789+1037588885+1038409801+1036634409+1034056237
1097+1033117651+1034358657+1036397720+1037782328+1037814032+1036512542
1088+1034888097+1034435329+1035645307+1037516259+1038893597+1039810299
1080+1041611024+1045861084+1052456748+1058982785+1062494972+1061893281
1071+1058700227+1055698519+1054516872+1054552548+1054122790+1052406533
1063+1049999320+1048313941+1049234765+1053677743+1059903009+1064910954
1054+1067850305+1070293643+1072894374+1073741823+1070962338+1065848116
1045+1061708307+1060234284+1060438295+1060731271+1060857260+1061448833
1037+1062678447+1064130659+1065295592+1065665990+1064959371+1063726684
1028+1063090966+1063214632+1062869792+1061325917+1059670593+1059381964
1020+1060451636+1061395245+1060824508+1058948609+1057364936+1057373405
1011+1058726160+1060164132+1061037663+1061970553+1063521848+1064978857
1003+1064944681+1062671477+1058680216+1054758883+1052855178+1052841612
994+1052470314+1050422182+1047978694+1046913818+1047073759+1046563356
985+1043949134+1039880002+1036444638+1035283153+1036441340+1038057841
977+1037400238+1033694084+1029173758+1025908978+1023024415+1018545985
968+1012724694+1007891981+1005721682+1005629719+1005461384+1003335005+999150226
958+994498739+990840627+987972103+984785420+981158037+977835697+974796588
948+971379887+967568954+964067560+961474249+959869065+959134265+959283264
938+960194344+960983857+960407724+958390696+956170181+954637248+953640351
928+952909973+952611001+952953144+953764991+954458945+954508186+953976947
918+953330812+952939878+953158654+954262803+955734127+956160887+954327934
908+950242912+945077575+940381643+937099176+935248534+934800564+936235613
898+939422296+942701540+944283789+944147907+943461524+942710909+941542828
888+939974820+938748204+938475090+938908445+939302302+939233424+938636830
878+937375288+935547131+933907321+933042409+932551044+931709891+930395285
868+929001907+928116160+928342806+929676973+931033401+931084966+929830694
858+928898927+929733560+931708841+932918669+932704314+932003166+931496436
848+930972692+930114825+928559783+925906662+922541676+919830020+919251413
838+921398403+925228973+928573798+930347542+931459636+932968884+934997530
828+937501127+940072628+941347661+940503285+938466621+936486092+935112352
818+934731461+935435832+936717385+938170947+939794567+941489240+943146738
808+944823872+946242657+946981130+947417483+948414905+949654112+949372903
798+946614704+942895584+940616009+940346567+940780447+941106700+941758307
788+942431049+941632617+939196999+937096702+936793458+937653424+938771813
778+940495940+942956292+944727787+944443356+942812990+941781466+942285423
768+943512564+944020868+943222886+941518545+939347197+936725929+933735538
758+931327501+930933269+932937631+936147023+939183058+941757108+944088997
748+945995625+947129829+947451585+947229436+946968014+947356775+948741158
738+950569015+951742792+951667093+950909209+950523596+950299573+948662387
728+945323257+942406391+941648657+942429925+943824802+946138553+948598980
718+948300608+943676178+936811446+931268066+929629530+932642107+938676178
708+943987066+944939294+940777674+934120851+928607825+925931246+925095414
698+924333107+923249869+922476395+922048886+921295723+919518757+916265894
688+911778995+907423482+904728390+903851337+903510918+902012762+898735241
678+895024589+892756482+892192116+891440902+887515146+878734718+867255150
668+860531997+865100215+875076456+881405901+882908105+882900535+883362446
658+882743067+878870900+872451741+866509032+863252947+862642037+863863706
648+866635022+869812486+870642171+867508627+862149997+857603139+855312846
638+854839468+854804692+853760127+850310224+843631066+836202343+832788040
628+834348854+836580836+836625805+837738648+842713090+848422482+851028835
618+852074899+854818558+857196391+853961066+844899953+835744629+832377919
608+836145457+843808320+850199749+851134588+845571272+835795220+826235247
##END=
