##TITLE=<SNM>
##JCAMP-DX=4.24
##DATA TYPE=INFRARED SPECTRUM
##DATE=2/5/2025
##SAMPLING PROCEDURE=Instrument type and / or accessory
##ORIGIN=Admin
##XUNITS=1/CM
##YUNITS=ABSORBANCE
##RESOLUTION=4
##FIRSTX=4497.3318
##LASTX=599.83466
##DELTAX=-1.4281778
##MAXY=1.7448382
##MINY=0.18858357
##XFACTOR=1
##YFACTOR=1.6250072e-09
##NPOINTS=2730
##FIRSTY=0.20939271
##XYDATA=(X++(Y..Y))
4497+128856479+129061225+129637837+130148748+130463624+130466476+129796000
4487+128566426+127778511+128329182+129955657+131547002+132207896+131820073
4477+130865752+129902453+129199076+128894076+129203752+130067979+130884183
4467+131073652+130666664+130030685+129431386+129095869+129211529+129629713
4457+129922187+129781163+129179269+128308146+127585530+127483231+128072617
4447+128853279+129258497+129241312+129125515+128994257+128607589+127964761
4437+127491465+127429669+127463314+127247454+126946461+126918640+127168410
4427+127419656+127476739+127266152+126748685+126020026+125394519+125209205
4417+125503944+125952389+126200508+126229274+126261185+126431379+126683624
4407+126803979+126471084+125555616+124494841+124015210+124286052+124641450
4397+124408021+123787943+123501081+123692062+123819964+123666304+123686395
4387+124126835+124460830+123977631+122588281+120955772+119939636+119799089
4377+120015976+120018369+119761878+119472687+119294020+119297807+119459253
4367+119692764+120030794+120463596+120707222+120548766+120156156+119704786
4357+119130429+118472424+118036817+118120300+118768364+119673801+120285168
4347+120265535+119741411+118974201+118169524+117678558+117788358+118209926
4337+118334160+118022842+117635909+117418820+117409568+117749111+118502501
4327+119248345+119296138+118384787+117006092+116050909+116084829+116841978
4317+117602512+118098439+118624966+119290536+119741585+119734872+119507505
4307+119401253+119407828+119237946+118776416+118427317+118828070+120041532
4297+121244330+121587441+121199352+120883926+121014322+121214794+121021153
4287+120435270+119835549+119562717+119614774+119697881+119577847+119348095
4277+119313488+119658671+120270807+120855930+121179747+121194831+121084022
4267+121236884+121943361+122954673+123562556+123307880+122461452+121717250
4257+121545589+121880896+122356557+122760061+123217657+123927334+124725501
4247+125084054+124671215+123749998+122880140+122457197+122600358+123111057
4237+123484694+123397699+123151716+123188534+123356022+123194622+122795612
4227+122829339+123699783+124966459+125744305+125665875+125237127+125097433
4217+125231506+125250212+125087153+124931219+124737844+124291251+123639106
4207+123199574+123461934+124493897+125658411+126141509+125886402+125613111
4197+125865614+126458219+126893881+126940189+126694729+126336259+125990398
4187+125797023+125910106+126351830+126987579+127650783+128209020+128617841
4177+128986407+129462491+130067099+130713917+131216198+131266092+130759335
4167+130189939+130320133+131311061+132435199+132869660+132620927+132335935
4157+132297908+132109191+131451956+130625500+130106731+129995216+130105044
4147+130287736+130463963+130547758+130496150+130304774+129933017+129439575
4137+129152740+129358898+129896080+130433207+130958643+131572861+132001509
4127+131796882+130953572+129944910+129179782+128735280+128637043+129031918
4117+129846022+130649709+131146030+131427702+131561472+131353921+130736704
4107+130052977+129793075+130181026+131029719+131914651+132485111+132651251
4097+132563367+132494033+132634067+132897427+133022550+132925395+132847011
4087+133089243+133641601+134126927+134180691+133865347+133583299+133589709
4077+133780186+133948903+134014009+133982089+133881403+133741250+133587737
4067+133514745+133686763+134104030+134470056+134482857+134167926+133793281
4057+133570699+133510866+133464319+133265699+132902819+132580662+132618992
4047+133204784+134073357+134506809+133988499+132828157+131806501+131346475
4037+131337378+131538896+131809188+132084377+132386617+132755027+133111737
4027+133358930+133570039+133942750+134591191+135405304+136072983+136296829
4017+136055248+135579835+135107795+134764034+134555327+134353103+134046416
4007+133793042+133924814+134541517+135331468+135811210+135694569+135101954
3997+134476695+134213794+134309335+134470423+134535456+134589247+134762026
3987+135157735+135810577+136467298+136689907+136427904+136192513+136491076
3977+137339182+138321636+138879441+138672633+137918124+137221385+136933927
3967+136936559+137142551+137775513+138861551+139863473+140231177+140020608
3957+139621608+139232024+138961659+139160646+140194488+141798185+142997948
3947+143217035+143184638+143867393+144876165+144913862+143650231+142124762
3937+141529856+142455383+144652795+146849656+147434907+146152973+144590724
3927+144366547+145477646+146640784+147034944+147289528+148342434+149893221
3917+150451375+148946713+146015553+143329248+142056181+142368663+144241855
3907+148130004+154213750+161016975+165753708+166798820+164601620+160349737
3897+155671086+152797137+153300657+156395545+158698640+157790214+156078799
3887+156988086+159780469+161334034+161608141+162405464+162317580+159410738
3878+156281857+156532305+160207951+165304749+170346986+173351359+172200628
3868+168948136+167746016+168836813+168845488+166051015+162659544+161611956
3858+164653503+172655253+183948522+190253547+184335309+172952688+164359222
3848+160723300+161397325+164930672+169873581+175360320+180761871+184504090
3838+184572975+181454932+177943721+175362594+173006919+170626485+169220354
3828+169116770+169740361+171934059+177416304+184378151+187203728+185064353
3818+182580813+180564479+176389348+170721779+167144434+167891524+172755223
3808+178815705+182506482+184579870+188120572+191971088+192044576+189160054
3798+187066822+185846894+183814697+181573205+181095050+182965857+186374274
3788+190502877+194876408+199016840+203106232+208359909+215208745+221941693
3778+227063249+231937934+239088662+249851544+263890246+278780594+291037070
3768+299781399+306828104+313187891+319258991+326300964+334674297+342477703
3758+348403185+354650934+364813976+380817440+401383262+421234051+435754668
3748+447568806+461438580+476234515+485296838+488301192+492871546+503726952
3738+519896135+536351638+547450927+551555340+551758251+552226357+555092282
3728+559994366+564693135+566538047+564475845+559099970+551937541+545568456
3718+542308078+542653417+546262214+552687566+559124142+560152712+554686165
3708+547960224+544998308+547002556+551206517+553028540+550907871+547876851
3698+547048809+549360028+555142496+564817369+577527004+589197284+593640763
3688+589981568+584616660+582228450+582752272+584870080+588586899+595073432
3678+603688411+608856716+605231779+597956450+593983314+591359401+584909840
3668+575640424+567959162+563355356+561169544+560324996+560003353+560366334
3658+562061776+564754684+567803567+572384961+580481033+590903327+596297174
3648+590364980+578372249+569020120+565291490+565293947+565744226+565466232
3638+566229901+569807925+575433991+581112730+586651389+593219314+599302189
3628+600648808+597188416+593303677+592848887+597255943+604624438+610564922
3618+613114229+614641202+616783841+618626405+619574353+620471317+621573319
3608+622408808+623866822+627336788+632013806+635289516+636096761+636575723
3598+639155914+643190305+645871292+646252687+646677730+649319396+653265830
3588+655841692+655813963+653727626+650316495+647063820+646159227+648041552
3578+650508329+651235099+650074850+648890171+650177846+655026891+661276438
3568+664666148+663960066+662518923+662471020+661988830+658965475+654276573
3558+650489623+649062932+649703799+651075396+651839873+651954607+652436577
3548+653300602+653172443+651674815+650189657+649308319+647950146+645531785
3538+642931714+641157301+640561844+641058486+642116253+643087896+644013176
3528+645337310+646769429+647419832+646788429+645100947+643065961+641322432
3518+639952962+638802176+637906606+637310049+636919485+636582179+636167846
3508+635823498+636396727+638557743+641104335+641543611+639102582+635832888
3498+634123471+634471560+635528887+635467045+633459349+630289497+627592445
3488+626381137+626276233+626310932+626177932+626090488+625724352+624446434
3478+622566530+621356909+621816138+623740204+625924182+627308691+627876932
3468+628327357+628659675+627571611+624039877+618956302+614725858+613315710
3458+614714708+617162889+618742020+618677463+617385167+616085975+616214720
3448+618015250+619773670+619670894+618020678+616208192+614619341+613003200
3438+611657975+611182827+611655224+612392814+612235606+610392821+607298052
3428+604414080+603090313+603432534+604239742+604134692+602786349+600957577
3418+599585502+599258137+600151029+601936482+603814625+604876317+604552106
3408+602703526+599660182+596350763+593888974+592853912+593118555+594271469
3398+595850233+597268781+597886502+597340783+596024645+594912335+594388771
3388+593771489+592643481+591719008+591519948+591394797+590610550+589451474
3378+588914741+589813098+591829267+593437155+593442583+592284498+591001371
3368+589814162+588692536+588053540+588082004+588227218+587873187+587138531
3358+586688032+586856208+587352299+587902457+588535731+588930036+588397595
3348+587035498+585962655+585978024+586594205+586887935+586888009+587390703
3338+588583634+589590160+589444688+587878395+585534531+583947404+584321793
3328+586019839+587244828+587260380+586928283+587086446+587431711+587191496
3318+586399693+585974320+586225245+586111318+584896892+583596820+583595353
3308+584774493+586033447+586698705+586583421+585539006+583735066+581882305
3298+580662597+580350821+581050888+582703525+584756850+586393824+587393381
3288+588275562+589262684+589656586+588823482+587407759+586867285+587959420
3278+590134962+592177943+593117638+592888941+592135798+591090136+589194790
3268+586288737+583320989+581256477+580317405+580682368+582407117+584232074
3258+584185858+582141923+580241038+580218077+581742078+583481389+584397976
3248+583874265+582048647+580238984+579685012+579970013+579862211+579212175
3238+578855723+579195816+579788119+579834335+578895300+577465895+576399472
3228+575691849+574700399+573498114+572935412+573326710+573908963+573754468
3218+572748786+571403598+570056686+568749864+567744073+567513394+568103203
3208+568809946+568696019+567705376+566986602+567364512+567847619+566749615
3198+564100870+561657163+560615132+560484039+560172556+559395681+558735668
3188+558725141+559293822+559964179+560184954+559614989+558306003+556547216
3178+554650329+552945094+551647589+550670041+549848564+549206524+548705627
3168+547989751+546606489+544472872+542178892+540694432+540505055+540956764
3158+540698356+539002511+536517540+534650548+534450020+536084427+538743773
3148+540683721+540237183+537491971+534282504+532176801+531208642+530566235
3138+529730234+528736473+527797915+526998702+526375186+526054716+525949152
3128+525592993+524783694+524048194+523993981+524583643+525299666+525488639
3118+524549348+522503725+520308597+518926802+518232420+517353027+515888043
3108+514283970+513127021+512523825+512223419+512094233+512258558+512672707
3098+512873161+512485605+511664935+510624884+509178350+507264481+505509948
3088+504703473+504907742+505495863+505968150+506286639+506361392+505840945
3078+504726251+503628541+503059676+502883908+502651982+502145364+501512860
3068+500988452+500501053+499766874+498773736+497754703+496719091+495588222
3058+494702959+494528327+494884670+495008867+494319877+492836480+491051136
3048+489525668+488508468+487943786+487646901+487270091+486422462+485229934
3038+484512591+484903999+485902528+486237413+485206606+483267391+481319410
3028+479848007+478862829+478321291+478267886+478529962+478591400+478036584
3018+477007758+476077232+475737946+475924792+475897099+474929050+473252498
3008+471810806+471112573+470892568+470655801+470019667+468817346+467273024
2998+465862876+464916175+464447739+464117073+463390670+462167111+461038882
2988+460510733+460343767+460068193+459680783+459419257+459212788+458756713
2978+457996051+457231942+456711201+456335528+455892145+455337293+454687073
2968+453920286+453153718+452526570+451818544+450675790+449250530+448082358
2958+447359512+446796517+446208726+445750341+445533234+445356695+444977905
2948+444449462+443915516+443189590+441950919+440435684+439454798+439461620
2938+439927708+439908121+439039621+437733974+436534147+435619137+434978601
2928+434690189+434713297+434630071+433968517+432743198+431432049+430434583
2918+429719844+429017503+428238428+427611316+427422710+427670810+427952106
2908+427729645+426841228+425682628+424749866+424091833+423379919+422495536
2898+421793525+421602058+421674170+421466967+420869346+420278950+419988008
2888+419823133+419404618+418564288+417468045+416381374+415393115+414471026
2878+413688393+413143444+412705783+412154892+411570622+411256388+411236911
2868+411148513+410692072+409921433+409018858+408081510+407241107+406695351
2858+406390837+405859129+404667848+403016092+401620836+400980373+400976302
2848+401158196+401158416+400874039+400488573+400225873+399934234+399187510
2838+397977779+396916968+396514813+396630757+396793615+396633471+395893057
2828+394552563+393116300+392268854+392101228+392054168+391621128+390751491
2818+389685068+388740201+388114814+387681701+387156669+386478389+385772783
2808+385030608+384147509+383234921+382584297+382291337+382112634+381725371
2798+381016244+380154970+379492683+379252321+379171076+378645970+377395966
2788+375776597+374366999+373516656+373238147+373189437+372839660+371980587
2778+370998050+370407545+370249896+370134648+369730145+368967539+367860255
2768+366454399+365009662+363945513+363476197+363421141+363371770+362963123
2758+362101445+361047750+360150053+359429959+358625318+357684302+356911866
2748+356487520+356176183+355742593+355314102+355042819+354729612+354085995
2738+353100780+351922448+350676368+349581518+348919341+348696365+348588380
2728+348324030+347874815+347249281+346424870+345502157+344625771+343784011
2718+342961984+342357944+342095868+341864493+341246661+340322078+339563030
2708+339166890+338827421+338215201+337442288+336923638+336860843+336998318
2698+336930424+336525408+335916636+335200797+334376202+333506418+332707243
2688+332013888+331412379+330908951+330468319+330012905+329548027+329150237
2678+328804238+328392803+327862929+327283208+326716288+326135172+325527941
2668+324994436+324631381+324382400+324116106+323762111+323247569+322463616
2658+321479025+320632129+320196926+320059964+319879464+319470302+318937531
2648+318516522+318329970+318233576+317916444+317243483+316457219+315923053
2638+315685956+315406384+314790680+313977640+313366521+313130414+313062557
2628+312869768+312455949+311908616+311340852+310801955+310307844+309930044
2618+309793192+309920654+310110508+310066602+309672443+309059343+308409123
2608+307814804+307327075+306956189+306590566+306091247+305502649+305031187
2598+304824791+304870384+305026364+305058569+304740666+304051768+303260919
2588+302720316+302529032+302473188+302357903+302245517+302227104+302160439
2578+301848717+301303640+300658867+300013379+299468173+299113646+298897420
2568+298657755+298323622+297989214+297804624+297847374+298058832+298274912
2558+298338569+298199187+297944373+297761617+297798884+297982392+298028792
2548+297715493+297090068+296368562+295706770+295138364+294682107+294402314
2538+294313568+294297007+294232653+294177322+294253487+294390210+294368551
2528+294124265+293832276+293682660+293698561+293755029+293687740+293415779
2518+293022024+292692237+292545684+292550159+292614385+292699206+292783900
2508+292775830+292560539+292141163+291663136+291291626+291060820+290835533
2498+290488654+290114724+289903376+289795153+289509639+288955171+288355899
2488+287940595+287722277+287587902+287450353+287317573+287267432+287329420
2478+287424861+287442999+287296757+286929979+286404636+285937887+285692813
2468+285585946+285434331+285206276+284993387+284827027+284661730+284480551
2458+284301335+284115112+283894778+283641908+283389057+283181946+283048726
2448+282954037+282831656+282702397+282670449+282746577+282780414+282628561
2438+282302570+281921433+281610261+281445129+281397721+281346681+281215827
2428+281054822+280934843+280862070+280841640+280900345+281001599+281052254
2418+281011576+280908928+280797294+280758542+280847288+280955897+280881987
2408+280616904+280415569+280481703+280718635+280884958+280881529+280791865
2398+280730647+280739414+280784878+280812699+280826051+280914925+281192737
2388+281725178+282523877+283574913+284852923+286316403+287920806+289685206
2378+291753789+294336585+297544144+301279174+305291704+309305757+313060062
2368+316274884+318728347+320412492+321453313+321844537+321499272+320575973
2358+319408864+318079741+316526910+315225664+315165766+316779889+319506138
2348+322635827+326068452+330043789+334060721+336640435+336879256+335375208
2338+333149159+330568674+327674543+324731297+321961655+319235773+316393543
2328+313572770+310961768+308488205+306005875+303627807+301590419+299833796
2318+298015092+295971322+293927644+292193651+290821962+289619054+288383097
2308+287067308+285753591+284519487+283388159+282400267+281609142+280965635
2298+280344741+279730742+279250973+278976298+278770708+278393293+277755508
2288+277050086+276555773+276330945+276209719+276069786+275933998+275808517
2278+275616078+275340229+275071807+274857048+274634770+274345202+273972959
2268+273509989+273029358+272734949+272772417+273042856+273318687+273483360
2258+273579607+273672462+273730911+273676863+273539846+273459206+273475785
2248+273444956+273256826+273039738+273026478+273289013+273712277+274148215
2238+274469308+274582116+274566124+274695860+275150210+275803566+276429137
2228+276973040+277528131+278167237+278875392+279580283+280249924+280969431
2218+281854034+282901805+284033665+285242479+286565659+287950718+289302876
2208+290641663+292079137+293675068+295408785+297213954+298964745+300541584
2198+301977976+303448755+305085492+306866911+308681946+310448400+312145383
2188+313739149+315148636+316327446+317317209+318178740+318905620+319435824
2178+319778888+320091545+320480129+320776207+320728853+320353988+319879390
2168+319443159+318980519+318298682+317241465+315851014+314293781+312649727
2158+310887785+308976190+306948303+304895436+302836444+300673135+298423171
2148+296231105+294084889+292154202+291415915+292990883+296777631+301563661
2138+306408892+311152796+315808760+320308725+324737532+329296185+334077337
2128+339020209+344016009+349060374+354301634+359859917+365676094+371616578
2118+377600381+383592473+389635807+395924711+402792713+410733960+420456847
2108+432759264+448430667+468339080+493028351+521660131+551768852+580579188
2098+606151484+627410294+644408069+658289250+669843183+678799099+684757702
2088+687570002+686902580+682081631+672202783+656935699+637158342+613891947
2078+587717115+559865951+532113235+505523446+480665596+458289488+438832235
2068+422087036+407655623+395106059+384013079+374316418+366166684+359425190
2058+353821351+349237243+345487926+342331938+339761064+337844333+336540410
2048+335926540+336272869+337932878+341415278+347285300+355978186+368117123
2038+384728038+406567999+433399140+464033773+496648959+529070624+559376791
2028+586409303+609756870+629577472+646192605+659712639+670363740+678640789
2018+684716548+688414367+689789999+689017600+685954852+680344264+672185617
2008+661627902+648716237+633523539+616376991+597680546+577727494+556932022
1998+536005529+515774629+496852495+479267405+462466857+446064685+430397647
1988+416028663+403180673+391858629+382000468+373374486+365655407+358624327
1978+352204404+346425493+341347237+336922611+333061568+329812194+327175150
1968+324745895+321936750+318684918+315591506+313212760+311496520+310024200
1958+308570697+307211864+306023720+304935013+303870553+302895260+302167976
1948+301844279+302088950+302934507+303815313+303619169+301901022+299616414
1938+297976853+297254100+297019937+296894236+296772423+296664475+296554638
1928+296511191+296904066+298026499+299390632+300218308+300691402+301427837
1918+301881325+300936953+298999683+297681967+297778582+298714169+299444111
1908+299394594+298751820+298100555+297833491+297923815+298182718+298608256
1898+299373888+300375444+301077785+301329352+301862949+303106608+304122432
1888+303841264+302703957+301824380+301514034+301459161+301456557+301497125
1878+301603881+301783904+302103787+303046637+305516917+309709416+313779423
1868+314754110+312018141+308126287+305544097+304717247+304780427+304866918
1858+304731001+304603265+304729736+305131433+305813380+306921288+308633199
1848+311255058+314994399+318650366+319406150+316396440+312490611+310395031
1838+310232504+310709412+311199379+312586162+315876433+320110252+322635240
1828+322523771+321464096+320386559+318630926+316341091+314837777+314716844
1818+315338784+315996889+316833368+318428455+320676952+322416263+322603916
1808+321645991+320937560+321586790+323857845+327051686+329677470+330548941
1798+330154121+330405524+332923066+337320145+340446789+339192419+335053858
1788+332006222+331700314+333136321+335009513+337000115+338764038+339574474
1778+339835707+341446272+345955701+352602378+357748932+358137882+354915798
1768+350988805+348022157+347293920+349454093+352861593+354747769+354967480
1758+355279110+355932520+356707854+359095330+364431775+370984552+374827915
1748+374554469+372419385+370877484+370966285+372636785+374826998+376155314
1738+377288898+380936099+387699197+392742901+391115133+385733389+380926892
1728+377777654+376586446+377484437+379763525+383253407+389466898+399521918
1718+410619336+415944593+412850778+406296240+401237020+399612553+401849203
1708+407491959+414602486+420566812+425546364+432448221+441701791+448650818
1698+450209519+448296567+443900368+438461551+435694294+437347114+442196563
1688+449238132+459664901+472957154+481298173+478597929+471609692+467878788
1678+469495919+475359889+482274731+487585756+492378572+498198857+502501633
1668+502214321+500451535+502273559+508150110+514077390+516668695+517606006
1658+520951774+529620158+544454092+560343703+564588818+558827514+556484494
1648+559774839+561817857+557148578+550005993+546129030+546908692+552261019
1638+561765075+572018679+575455926+569993120+563424204+561454325+563975425
1628+568370414+572888316+577635428+582014535+584236036+585148771+588234261
1618+594619229+600374297+601020005+598766190+598088314+599942872+602729899
1608+604841288+606019437+606894576+607924907+609011834+609905753+610764533
1598+612116654+614251297+616787289+618997456+620570205+621805575+623022164
1588+624137591+624970219+625649819+626513697+627900407+630445532+635222759
1578+642447030+649027720+650183275+647671894+647777312+652280688+657407912
1568+659400202+659860091+661988463+667134833+676955214+694312670+717381288
1558+731666606+730991627+728521328+731353288+738673073+748106337+757651327
1548+766391420+775427811+786500287+799629463+812754384+820498478+815390181
1538+801806985+791945890+789046073+788818145+786283437+782232613+781152545
1528+784645325+790554632+796524313+802571168+808258710+810758866+809316183
1518+806403601+803034358+799260539+796946642+798544113+805174907+816577280
1508+829494741+833983520+823850702+810123428+802500597+801725556+805320966
1498+809574628+810669661+808315050+806541590+808626533+813704312+817378950
1488+816200140+811628246+807151279+804741941+804640119+806152786+808688668
1478+812344159+817394869+823485519+828762689+829741595+825310184+819689179
1468+817344765+818938494+821613172+822196818+821946736+825128180+833539183
1458+843007072+844229898+835538369+825782177+820391594+819688519+821900373
1448+824129247+824308977+822944422+821669805+821517951+823292511+827531208
1438+832785783+834981352+832047716+827708664+825718281+825835949+826054560
1428+825822525+826142004+827181284+828049858+828841404+830580751+832289655
1418+830629609+825036407+819002537+815236714+813802394+813349401+812887898
1408+812630040+812960817+813164389+812378638+811451304+812072143+814619616
1398+817980056+820686131+821322522+819175151+815773190+813773564+813981757
1388+814646905+813528764+810944538+809711663+811937749+817303830+824131521
1378+831213108+838048795+843745213+847156051+848498745+849156264+849768520
1368+850335733+851664343+854746457+858774393+861330155+860930421+858304747
1358+855015833+852159151+850153362+849010425+848687278+848924228+849051727
1348+848635927+848009805+847778724+848383938+850102158+852594904+854629009
1338+855208914+854748585+854334765+854566067+855619946+857509020+859782642
1328+861727396+863294202+865157600+867589092+870016549+871893959+873302970
1318+874567463+875997968+877991799+880650044+883478776+885974824+888205165
1308+890412911+892394344+893676370+894193553+894442387+894945485+895884336
1298+897139660+898209897+898293527+897112223+895421219+894000691+892531746
1288+890168625+886835621+883255837+880069259+877615392+876170729+875667264
1278+875432442+874773749+873610418+872174851+870543048+868962304+868225557
1268+869052462+871142393+873324317+874844614+876146300+878036768+880332545
1258+881818216+881673625+880421897+879265535+878873577+878932337+878694140
1248+877850875+876738089+875782145+875170476+875055375+875494577+876082918
1238+876180046+875739963+875600728+876747919+879411740+882919265+886307875
1228+888909854+890423695+890886151+890761954+890672309+890898916+891481682
1218+892705094+894928979+897882055+900648799+902509922+903465206+904018408
1208+904907449+906835550+909781437+912692698+914603999+915996284+918335784
1198+922369955+927384425+931937393+935019435+936647936+937579819+938538550
1188+939789766+941520457+944075265+947567385+951534212+955076583+957458484
1178+958702363+959548342+960664943+961906401+962713720+963343142+964875763
1168+967528800+969889280+970647008+970362814+970624560+972420394+975901656
1158+980413029+984307524+986043791+986039756+986216992+987446640+988679808
1148+988919033+989150114+991380088+996047863+1000950534+1002984786+1001261137
1138+998082775+996792093+999136434+1004148117+1008892919+1011033615+1011038530
1128+1010996348+1011920161+1013550130+1015678575+1018181005+1020326029
1120+1021254317+1021409251+1022409431+1025124970+1028277583+1029630548
1111+1028900990+1028443669+1030573140+1035082386+1039680983+1042200213
1103+1042036842+1039881180+1037287418+1036495652+1038938294+1043477103
1094+1047504819+1049932276+1051319793+1051959999+1051806091+1051467318
1085+1051389557+1050494721+1047881225+1045273378+1046008291+1051028923
1077+1056860396+1058939543+1057024133+1055383381+1057326007+1061643638
1068+1064539054+1064365852+1063200321+1063211545+1064021871+1064500393
1060+1064713869+1064758031+1063961130+1062200434+1060306813+1059209285
1051+1059570066+1061884036+1066182447+1071111161+1073741823+1072353206
1043+1069278720+1068168135+1069383477+1070535511+1070310591+1069585876
1034+1069858185+1071653286+1073268436+1071800738+1066886476+1061630653
1025+1058897728+1059006447+1061063146+1064019523+1066695888+1067817331
1017+1067141472+1066264096+1066704618+1067990972+1068343537+1066488282
1008+1062380238+1057404281+1053894335+1053132133+1054297737+1056090931
1000+1057804089+1058575901+1057952641+1056889226+1056492426+1056535561
991+1055934015+1053949648+1050614957+1046862265+1044557758+1044872103
983+1046373766+1046317793+1043647664+1039561554+1036172798+1035161394
974+1036083153+1036068261+1032769516+1026858082+1020314218+1014074648
965+1008643644+1005130250+1004266078+1005191578+1005665186+1003525884+998558363
955+992754400+988335680+985837798+984068814+981649939+978664732+976523889
945+976037298+976168831+975197408+972830325+970641873+970394212+972203104
935+974566665+975917942+975730876+974420607+972780001+971374291+970041647
925+968379914+966693092+965565340+964879798+964250596+963841031+963759309
915+963231636+961699528+960334973+960940627+963390312+965369838+965256058
905+963906101+962819724+961972572+960448680+958330872+956544722+955219120
895+953907530+953131243+953705572+954798772+954778965+953957195+954253199
885+955941122+956845861+955188309+951666626+948639604+948022139+949684313
875+951601410+951747835+950130704+948664399+948812658+950075978+950749782
865+949584251+946833866+944231080+943661079+945341299+947876081+950011935
855+951111223+950630133+948860122+947470698+947752397+949186864+950484148
845+950852412+950088375+948442708+946302672+943441955+939598665+936402256
835+936844539+941611422+947192079+949173219+947231400+945327288+947153052
825+952351361+957017962+957977648+955866956+953411549+952485535+953211571
815+954510103+955141359+954991413+955180093+956181300+957060510+957235472
805+957511523+958596946+959599987+958808221+956065759+953756410+954442686
795+958095242+962394974+965188934+965771626+964492755+962862346+963302208
785+966699987+970319385+970037466+965529247+960907175+959282342+959411234
776+958802425+957582608+956884595+956006045+954498292+954410922+957191310
766+960941214+962932624+962901886+962148707+961110307+959616860+958293459
756+958247096+959803266+962254858+964869528+967580445+970087717+971137047
746+969608828+965850781+961584941+958826194+959053974+962980601+969783276
736+975940684+976886211+971716365+964311411+958649398+955786847+955370534
726+957307658+961288130+965474301+967017413+964471994+959455836+955521067
716+954953340+957457311+960767573+961642015+958240347+952550678+949051369
706+950100186+953308186+953878407+949965205+944484317+940829119+939539831
696+939470946+939606147+939611943+939342054+937460096+932594472+926112376
686+921348721+920150324+921820788+924533539+926523848+926735783+925059745
676+922117672+919093218+917188959+916169412+914292296+910808466+907969684
666+907155249+907035160+907073380+907509721+907543907+905874911+902313540
656+898132944+896072429+898473991+904485633+910433233+913018486+911352645
646+906229676+899029247+892078386+888007608+887888326+890405795+893568459
636+896786141+900098091+901493897+897304644+887085556+875822346+869697657
626+869916487+871006899+867394030+860434146+855989310+858261245+866152058
616+874037442+877013406+874577073+868590299+863238743+863137654+867796112
606+871615194+869613147+862368409+854295665+848516571
##END=
