##TITLE=<SNM>
##JCAMP-DX=4.24
##DATA TYPE=INFRARED SPECTRUM
##DATE=2/5/2025
##SAMPLING PROCEDURE=Instrument type and / or accessory
##ORIGIN=Admin
##XUNITS=1/CM
##YUNITS=ABSORBANCE
##RESOLUTION=4
##FIRSTX=4497.3318
##LASTX=599.83466
##DELTAX=-1.4281778
##MAXY=1.8419065
##MINY=0.38038558
##XFACTOR=1
##YFACTOR=1.7154091e-09
##NPOINTS=2730
##FIRSTY=0.39814872
##XYDATA=(X++(Y..Y))
4497+232101313+232661619+232495287+231762985+230919320+230052948+228947259
4487+227770322+227181332+227642802+228971252+230587038+231883486+232353990
4477+231878274+231061225+230834990+231497608+232408108+232857607+232932486
4467+233137734+233501827+233633482+233493870+233399793+233301026+232778263
4457+231759823+230656705+229904059+229812780+230494056+231436662+231734910
4447+231269844+230934574+231231015+231491857+230954588+229949299+229526311
4437+230227185+231462288+232083679+231666546+231010756+231111782+231922941
4427+232439032+231858399+230443552+229256295+229019688+229287845+229111350
4417+228511137+228508566+229538803+230813360+231547695+231856957+231995631
4407+231668162+230729760+229817575+229633956+230025794+230295705+230145183
4397+229764899+229234857+228543816+228060369+228248036+229002141+229786581
4387+230193047+230017368+229270542+228403562+228012940+228148035+228311118
4377+228204967+227975987+227695130+227186475+226493384+225978874+225783424
4367+225720029+225795985+226138691+226373178+225881688+224813577+224109854
4357+224381190+225290127+226075365+226290308+225998975+225476212+224926208
4347+224540955+224519291+224853779+225365301+225970570+226597155+226911508
4337+226433499+224964256+223010854+221746268+222002073+223262645+224291978
4327+224591008+224492779+224215362+223671421+222959533+222483800+222591514
4317+223189034+223856638+224388643+224903032+225446209+225961136+226410131
4307+226449065+225616919+224300265+223596699+223940499+224732722+225222162
4297+224966549+223871683+222487188+221793559+222270438+223493501+224713212
4287+225490267+225748695+225526821+224965229+224413279+224106067+223789699
4277+223115302+222279212+221854261+222217780+223357938+224848897+225985181
4267+226345173+226134539+225724199+225186860+224529193+224010270+223903008
4257+224157978+224640661+225453436+226571356+227422144+227493461+227156315
4247+227098635+227257844+227155203+226873582+226866737+227166270+227512294
4237+227917179+228473090+228881849+228685582+227835924+226806764+226225141
4227+226363397+226820749+226823998+225974722+224595368+223440756+223160368
4217+223782124+224759112+225643378+226343366+226673650+226355823+225549076
4207+224724018+224199605+224256137+225014013+225872723+226035876+225678142
4197+225581251+225796298+225681912+225063909+224462550+224256189+224316979
4187+224482529+224768441+224994937+224824731+224382128+224255790+224749991
4177+225600258+226386799+226852647+226988454+227096968+227578712+228472117
4167+229323756+229593980+229161211+228411067+227852741+227730364+227943360
4157+228082885+227655919+226671113+225865982+225929360+226712375+227549646
4147+228006060+227965198+227399020+226481397+225632207+225177791+225219417
4137+225785231+226665762+227161457+226674293+225701509+225502811+226487425
4127+227617646+227760715+227015661+226250453+225904568+225749182+225396695
4117+224743736+224152141+224215102+225167975+226532978+227410504+227165696
4107+226003388+224893755+224703239+225379026+226139994+226315239+225834988
4097+225113753+224614879+224497174+224725164+225313338+226128354+226710724
4087+226766388+226614511+226743126+227162395+227453207+227290663+226790676
4077+226339717+226080212+225739296+225109323+224445958+224191839+224528238
4067+225318758+226243469+226862359+226796218+226072707+225217367+224854787
4057+225239570+226130334+226954541+227240054+227131332+227190853+227506231
4047+227574577+227250200+227022280+227170040+227442262+227590578+227545564
4037+227256767+226832355+226496876+226198368+225737246+225285801+225255780
4027+225780801+226709300+227827081+228821546+229386352+229584321+229803381
4017+230250934+230693832+230709294+230075047+228992065+228015981+227694731
4007+228193762+229209770+230259221+231135096+231995700+232915773+233585340
3997+233647380+233107731+232275654+231516649+231057090+230799149+230453090
3987+229991395+229724176+229867054+230300657+230794389+231274239+231783312
3977+232250150+232498640+232553957+232634187+232735282+232586497+232120076
3967+231734945+232032375+233279240+234978054+236164737+236390051+236049083
3957+235632106+235248521+234963773+235108458+236060897+237623347+238720628
3947+238504765+237707261+237654376+238272744+238373405+237635596+236969781
3937+237197267+238576655+241029418+243748097+245011397+243814810+241559790
3927+240622900+241615802+243000819+243440537+243626188+244899287+247007311
3917+247964354+246284877+242959088+240170795+238860083+238681816+239791292
3907+243281641+249410821+256316656+261412541+263678298+262957045+258864469
3897+252681623+247832039+247026960+249829448+252555423+252057817+250344601
3887+251345772+254963902+257683657+258438180+258864833+258249853+255126359
3878+252044961+252403181+255793685+259723526+263219486+265834238+265980608
3868+264128788+263064603+263351402+262587811+259563014+256435524+255937849
3858+259518834+267938545+279952114+287298432+281460533+268892930+258821939
3848+254161724+254410127+257937116+263047039+268592250+273776895+277183313
3838+277058747+273826027+270123150+267558295+265886653+264759109+264567776
3828+265285137+266289036+268275621+272839970+278444215+280105920+277433524
3818+275200533+274251464+271192738+265791048+261786363+261933098+266283546
3808+272166442+276102659+278173244+280810546+283612478+284005827+282525986
3798+281264337+279670996+276869968+274455583+274276082+276227121+279436283
3788+283688121+288703498+293374832+297305333+301912316+308071673+313985093
3778+317795371+321096403+327011005+336867401+349751616+363307413+375202775
3768+385194960+394375986+402748389+410133607+417470005+424647264+429208867
3758+429955781+429914015+433295972+441796485+452799867+460256419+462592954
3748+465811011+474146583+484800865+490479190+490771235+492914406+501499736
3738+516256445+532896491+545403184+551186687+552822244+554205715+557472174
3728+562808974+569055059+574731925+579327719+582455643+582618153+579095751
3718+573553424+568914196+567906857+571664807+577518324+579789606+576466406
3708+570771229+566413205+565269451+566902680+568869582+569146443+568146817
3698+567019290+566559627+568165198+573220135+580885375+587298590+588441545
3688+584980714+581109768+579217989+580058232+584365907+591661374+599737806
3678+606122911+607940367+603439917+596546469+592628511+591608281+588705341
3668+581725374+573961870+568657141+566072480+565006558+565356804+567771276
3658+570917477+571960431+571373665+573283860+579499576+586532984+587860443
3648+581224258+571154136+562210429+555770737+551524736+549339244+549780735
3638+552983607+557433014+560664449+561868627+562859288+565103779+566416819
3628+563298415+557587602+554090009+555487066+562021860+570924774+576833747
3618+577308629+575689750+575064345+575305000+576290518+579355343+583949157
3608+586284962+584332690+581225996+580690446+582680245+584666744+585693506
3598+587222773+589882626+592037263+592629276+593789743+598671919+606948074
3588+613104199+612006554+606031945+600932811+599207364+600068315+601679724
3578+602652490+602901901+603142139+603744784+604855286+607203878+611488065
3568+616311241+618169351+615743412+612078132+610545251+611203143+611766038
3558+611307661+611384034+612873412+613854934+612238939+609334888+608466083
3548+610770339+614106639+615605399+614509769+612080217+609867206+608712784
3538+608094156+606448765+603270493+600431695+600263244+602656520+604962583
3528+604918108+602648320+599537387+596873156+595420540+594767234+593786060
3518+592380351+591688129+592406619+594168342+596400811+598236752+598219101
3508+596209357+594606218+595365779+596750848+595304000+590908832+586815891
3498+585044300+584747217+584621990+584693290+585325817+586117067+586305324
3488+585449098+583748599+582136913+581642885+582349770+583215030+582960755
3478+581035584+578063047+575589992+574847457+575554481+576273458+575864977
3468+574450269+573151475+572949771+573549254+573501825+571878603+569532443
3458+568127186+568221140+568775453+568453248+567085343+565565075+564472885
3448+563432433+562024153+560674873+560016320+559834457+559299463+558086876
3438+556831203+556483668+557476899+559288136+560458992+559515656+556533633
3428+553300948+551459309+551032863+551012571+550749296+550340433+549951897
3418+549311343+548071792+546484220+545353253+545137650+545359577+545273892
3408+544861797+544729794+545367256+546662922+547824258+547813834+546275428
3398+543992471+542066050+540788383+539749320+538852684+538424919+538217377
3388+537251039+535297481+533711715+533703063+534573049+534780625+533971134
3378+533023594+532893989+533917554+535479692+536394466+536316634+536176466
3368+536535433+536411005+534576454+531392623+528542046+527344157+527860630
3358+529272732+530519475+530798074+530161203+529452789+529196116+529136873
3348+529201224+529873605+531172816+532281476+532478454+531781646+530763918
3338+530003071+529411719+528351808+526807078+525767217+526022431+527130778
3328+527969144+527997532+527504200+526731400+525426075+523771650+523012228
3318+524068212+526037233+527123238+526703846+525638967+524961478+524894938
3308+524875028+524300424+523242702+522327511+522163577+523011429+524542955
3298+525923160+526737759+527472441+528425610+529060500+529131626+529330203
3288+530085421+530723785+530333199+528828636+527090472+526422017+527417368
3278+529156296+530238271+530459503+530524896+530534347+529891222+528409766
3268+526686508+525620169+525884382+527395234+529056052+529514777+528474116
3258+526879664+525750295+525325657+525399146+525802693+526167220+525962944
3248+525177567+524337880+523740691+523261674+522839850+522502947+522057426
3238+521323890+520470271+519714984+519021441+518332451+517721536+517168613
3228+516566767+515983198+515536531+514999695+513957541+512500615+511373957
3218+511133823+511424027+511464124+511085247+510745495+510568079+510037568
3208+508825328+507317221+505985766+504707334+503170248+501834241+501809571
3198+503323029+504827696+504529084+502626429+500850044+499938640+498917716
3188+496909501+494511429+493008882+492915830+493628796+494193637+494060696
3178+493129626+491531734+489680643+488262634+487744597+487856273+487790949
3168+487070131+486079679+485555874+485586347+485388082+484183140+482091811
3158+480055764+478978758+478924171+479129072+478852489+478012143+476917277
3148+475811536+474806699+473877505+472915823+471979402+471194893+470448293
3138+469666425+469160827+469115344+469144218+468885564+468516417+468215302
3128+467649523+466413413+464674693+463062694+462045209+461624149+461556706
3118+461626304+461639577+461389471+460802809+460036473+459281325+458446989
3108+457195868+455478378+453861480+453034684+453072280+453396327+453455500
3098+453265506+453182809+453256507+453081488+452371094+451364311+450473929
3088+449786919+449135559+448549905+448379612+448796954+449334067+449253072
3078+448350043+447087073+446044918+445484629+445264370+445025383+444590321
3068+444158351+443953485+443794381+443258414+442232625+441092033+440221491
3058+439526629+438724052+438020607+437989335+438697401+439444175+439508699
3048+438849661+437912232+436959827+435856762+434530171+433389649+432923731
3038+432960945+432835544+432282969+431578377+430819963+429840005+428810289
3028+428159520+427871366+427480398+426735917+425829378+425058594+424604560
3018+424523461+424721031+424917349+424743338+424033152+423046800+422258261
3008+421908015+421831051+421613676+420887507+419670716+418389956+417380428
2998+416563327+415816171+415305743+415131454+414980341+414493715+413728560
2988+412975288+412329384+411717878+411203663+410939832+410836044+410593235
2978+410087672+409412059+408592073+407640885+406826286+406451856+406410577
2968+406258804+405711093+404871268+403989434+403193215+402499499+401934589
2958+401521695+401187502+400745838+400014387+399048675+398211073+397821460
2948+397768193+397670347+397387544+397105645+396933858+396711097+396244798
2938+395524674+394727379+394122267+393855899+393783661+393646238+393352838
2928+392894634+392169716+391195838+390236484+389397805+388411210+387085454
2918+385681586+384713616+384619244+385445935+386536805+386874264+386114911
2908+384949406+384225634+384103152+384142590+383859544+383118399+382173951
2898+381353931+380699514+380070149+379504022+379134979+378813155+378233617
2888+377459567+376874608+376600596+376418697+376249968+376175436+375986345
2878+375359273+374525146+374123649+374297973+374474382+374154157+373484103
2868+372885141+372458557+371993613+371434262+371050660+370981410+370837246
2858+370175566+369283135+368921075+369211522+369357423+368675521+367388089
2848+366196177+365537694+365393391+365423968+365215836+364685220+364240707
2838+364284349+364614998+364616457+363996821+363030622+362079225+361200205
2828+360304959+359433063+358710646+358165367+357699242+357218349+356767894
2818+356513027+356527030+356626023+356523382+356131822+355584911+354989945
2808+354333790+353641603+353041320+352627523+352380648+352207923+351958651
2798+351472720+350781088+350199013+350014509+350099707+350040673+349643693
2788+349086879+348593651+348222626+347957753+347712581+347260875+346429146
2778+345345781+344335211+343625164+343234960+343044201+342868557+342526337
2768+341966396+341376885+341021775+340879209+340637686+340127536+339490318
2758+338873461+338278947+337720708+337257084+336871049+336471915+335974483
2748+335352310+334680728+334083816+333598440+333154448+332657328+332029075
2738+331275560+330560162+330065093+329754319+329433643+329054592+328758968
2728+328573108+328293954+327823485+327386616+327179179+326979907+326393210
2718+325394558+324400110+323797465+323561675+323383703+323084361+322777757
2708+322646797+322685852+322682759+322421361+321944290+321551097+321390533
2698+321199531+320711133+320141323+319888681+319883608+319640903+318928528
2688+318060036+317492242+317344499+317368996+317278168+316998145+316593243
2678+316084240+315493513+314976727+314676898+314471442+314099479+313525778
2668+312951556+312507042+312176428+311978130+311940881+311908185+311632470
2658+311082327+310459286+309931937+309536520+309284295+309181757+309163585
2648+309114592+308937524+308600864+308179422+307792206+307445018+307039421
2638+306553316+306071936+305672594+305419604+305376796+305461021+305420020
2628+305107336+304635373+304158336+303707291+303326815+303130428+303102074
2618+303047140+302857146+302642620+302494982+302278893+301835144+301306022
2608+301014672+300999801+300929578+300573112+300101010+299794684+299714176
2598+299770883+299901217+300027869+299977173+299588741+298945963+298398948
2588+298200718+298169134+297935289+297481464+297121732+296960091+296746364
2578+296339447+295931383+295671513+295431588+295109869+294824147+294636377
2568+294413443+294098569+293844432+293776155+293817156+293802041+293655828
2558+293432129+293224101+293074760+292949707+292758080+292463533+292203697
2548+292136220+292142995+291959220+291612345+291405307+291460937+291590733
2538+291583783+291399887+291129159+290898876+290784107+290765883+290770939
2528+290723214+290597866+290477469+290480526+290579137+290597275+290452277
2518+290281446+290256619+290377225+290523178+290615465+290644791+290634784
2508+290626306+290607716+290468938+290148505+289769924+289482326+289254857
2498+288984303+288700041+288510272+288425108+288348753+288205128+288013604
2488+287871873+287875678+288013361+288139161+288086867+287819180+287462801
2478+287209550+287175794+287312817+287430574+287340684+287028138+286698376
2468+286623149+286895476+287333283+287631756+287581982+287170860+286580515
2458+286095991+285876549+285796406+285626460+285351337+285174980+285231409
2448+285422133+285557401+285571873+285540758+285506932+285403908+285199650
2438+284984326+284828956+284714796+284676679+284803487+285025031+285126943
2428+285030712+284864085+284770182+284815336+285003801+285238775+285357747
2418+285309259+285219091+285243327+285420778+285658792+285803425+285754762
2408+285556654+285353508+285259640+285308025+285480768+285706586+285869496
2398+285919774+285938676+286032874+286235881+286544379+286936807+287302862
2388+287435386+287140648+286327074+284961706+282969144+280261949+276910987
2378+273179688+269307005+265340454+261242978+257065950+252973546+249182831
2368+245911629+243350057+241621275+240710166+240529849+241179141+243011573
2358+246328276+251151956+257491109+265567367+275041915+284059910+290067928
2348+291589412+289155951+285148938+282125271+280684659+279859896+278956415
2338+277917561+276735534+275324370+273811381+272614013+272085899+272144725
2328+272382531+272487831+272466965+272576991+273103002+274093072+275295044
2318+276383829+277199644+277785489+278298210+278893871+279657810+280621229
2308+281753708+282863723+283636435+283935882+283980861+284058763+284168250
2298+284131401+283973738+283977873+284340610+284904895+285293796+285281896
2288+284982328+284668479+284494989+284435555+284412935+284395996+284369467
2278+284275234+284051848+283736019+283455944+283293643+283198524+283051893
2268+282787263+282457935+282204180+282131230+282198742+282257134+282211529
2258+282114239+282059860+282027841+281900721+281633207+281334838+281168558
2248+281204051+281373163+281551205+281675650+281775633+281887535+281982862
2238+282009634+281985138+281999714+282105674+282250150+282358646+282414276
2228+282402983+282288528+282113926+281997282+281961058+281904126+281785501
2218+281699416+281732217+281846412+281928727+281904074+281803118+281726588
2208+281735883+281785119+281776797+281683815+281590295+281589061+281670525
2198+281762204+281843424+281938508+282016792+282004926+281909112+281843354
2188+281907514+282077911+282235140+282270234+282155535+281953570+281785831
2178+281745734+281806818+281860015+281852753+281821082+281799452+281797228
2168+281841930+281940749+282028119+282042557+282022004+282048828+282131404
2158+282207082+282262155+282378730+282607519+282850537+282966886+282961778
2148+282967633+283070934+283242861+283399689+283476966+283477748+283469009
2138+283515135+283625560+283761454+283868126+283929037+284002439+284152596
2128+284350791+284525010+284670824+284810836+284910385+284969419+285108562
2118+285396403+285688796+285812806+285803581+285802070+285860027+285978860
2108+286167361+286357164+286451744+286540661+286866584+287480574+288086676
2098+288347988+288264440+288142479+288259628+288648460+289111736+289353069
2088+289216653+288879820+288690173+288810153+289145145+289531649+289841919
2078+290013775+290107365+290233217+290381307+290446805+290448768+290606240
2068+291108641+291822875+292343309+292409710+292169958+291957552+291957240
2058+292127046+292307173+292375902+292351926+292343969+292443553+292695258
2048+293082995+293530531+293987241+294430607+294748817+294818970+294730992
2038+294709449+294829394+294989194+295086067+295088569+295026164+294984538
2028+295062127+295310461+295702403+296132322+296518600+296922530+297412318
2018+297794322+297738797+297260962+296795218+296669679+296776941+296857797
2008+296859291+296876039+296934795+296993378+297068431+297235944+297483653
1998+297705683+297994740+298715177+299935408+301024401+301294035+300817103
1988+300141907+299619978+299372826+299421436+299601806+299698366+299718276
1978+299819076+300053824+300320122+300481694+300570159+300886700+301663426
1968+302564788+302885360+302413188+301708770+301376697+301481111+301776040
1958+302116140+302441889+302626115+302571459+302384001+302329067+302599326
1948+303234563+304349373+306101992+308029769+308895480+308037552+306345392
1938+305090866+304646179+304733914+305082631+305527075+305927703+306194175
1928+306419541+307036328+308382551+309963278+310973987+311604256+312476639
1918+313014760+312104781+310200736+308943778+309137699+310210361+311085976
1908+311182224+310767176+310460085+310500878+310675236+310821624+311150917
1898+311991681+313224073+314211711+314712131+315384756+316589734+317371880
1888+316764926+315397230+314521164+314450107+314736524+315014948+315231836
1878+315506578+315936880+316522708+317606176+320116862+324448964+328840275
1868+330122355+327513302+323665289+321160684+320451437+320693238+321042129
1858+321124583+320975242+320852030+321009259+321656866+322993186+325115474
1848+328102500+331923967+335452311+336266389+333639685+330107762+328139783
1838+327964452+328473142+329046635+330471628+333779991+338157681+340983553
1828+341164131+340264785+339208662+337315285+334756336+333015323+332826649
1818+333501567+334192642+335021731+336666322+339059495+340950092+341183138
1808+340139489+339280414+339828611+342125084+345378408+347884577+348448271
1798+347848683+348200840+351042696+355833523+359291644+358116270+353738024
1788+350337756+349812145+351192175+352975232+354698560+356117854+356686239
1778+356834329+358330761+362623496+369010478+374034142+374490921+371335929
1768+367288818+364009017+362899002+364728966+367899942+369613957+369659649
1758+369729489+370053015+370467160+372542331+377679860+384209859+388149117
1748+387879483+385559244+383676951+383214890+384042068+385240235+385749551
1738+386373982+389764903+396598449+402046890+400624051+394855663+389326366
1728+385468659+383710655+384100963+385750836+388354573+393521289+402737201
1718+413586377+419061782+415777567+408447180+402275071+399421680+400406989
1708+404767480+410544242+415192712+418941176+424653414+432724981+438553654
1698+439071135+436124832+430626008+423987773+419935485+420196223+423497881
1688+428823458+437351422+448579996+455137862+451481719+443927113+439261755
1678+439259497+442882838+447266713+450201550+452927769+456781793+458996472
1668+456468379+452312824+451425916+454139592+456713029+456414521+455270628
1658+457118175+464502176+478144770+493311281+497583724+491813668+489078936
1648+492051091+494121572+489399995+481831698+477486913+477934831+482896786
1638+491906094+501999462+505875515+500795075+494106214+491834446+494192872
1628+498477268+502558708+506329514+509318000+510003481+509400315+510963530
1618+515766240+520017279+519483363+516304326+514678845+515487885+517333451
1608+518930996+520200220+521634421+523354864+525031353+526426568+527741797
1598+529396708+531565070+533907756+535827367+537094853+538019565+538938230
1588+539885562+540836924+541911741+543229054+544945814+547693263+552542152
1578+559564371+565541864+565875779+562638612+562135724+566080333+570560178
1568+571379120+569839776+569429141+572023566+579350652+593339218+610381733
1558+616218399+607948984+598503259+593374521+592001474+592990779+595131657
1548+598390680+604244093+613751320+626185601+639959503+651429705+652960988
1538+645009227+638580827+639029197+643748620+647365881+648895427+652101843
1528+658928926+667546153+675810981+684287763+693491791+701055363+705350321
1518+707691617+708386271+707117950+706275901+709308932+717618861+730548281
1508+744977018+752117515+745669518+734938654+729310190+730091850+735243243
1498+741305691+744455819+743916690+743303343+746236096+752629541+758304773
1488+758819857+754741439+749962739+747285652+747351879+749460928+752940106
1478+757965160+764908643+773093693+779808822+781038713+776519500+771688401
1468+771125854+774686130+778419722+778859267+778117010+781066579+789455035
1458+799071506+800691462+792533376+783268333+778024514+776730967+777779481
1448+779199644+779475463+778534872+777196016+776137912+776373633+779420702
1438+785184817+789682556+788679422+784473623+781813909+781558244+781643512
1428+781101951+781221688+782772429+784945273+787420066+790684092+793103220
1418+791301956+785974537+781277352+778919517+777757035+776478499+775254167
1408+775327274+777171346+779319173+780258929+781107580+783852006+788019306
1398+791329754+792809890+792936506+791868882+790135443+789300899+790094164
1388+791013490+790077764+788222712+788608608+792534488+798372335+804005802
1378+809154206+814925201+821319340+825981153+826818964+825102481+823658412
1368+823780025+825437091+828555112+832525677+835534038+836105897+834966278
1358+833928814+833611786+833190171+832210803+831620666+832181894+833022136
1348+832936729+832153749+831756665+832393431+834216933+836977551+839604046
1338+840690156+840081534+839103973+838864986+839159220+839266032+839201333
1328+839669926+841089394+843199417+845572123+848082844+850715524+853268358
1318+855611947+857927460+860284879+862382948+864116248+866012231+868653181
1308+871875165+874809238+876711128+877690079+878448528+879377860+880182870
1298+880441662+880271126+880073557+879731094+878891477+878132055+878421912
1288+879140054+878326289+875392772+871888438+869327127+867763182+866350107
1278+864329522+861765918+859679384+858981533+859337825+859707251+859871672
1268+860589189+862204976+864002001+865244748+866142044+867117034+867777081
1258+867552479+867029890+867597093+869546864+871465294+872118808+872149871
1248+872929655+874580883+876276170+877814749+879718307+882089416+884290544
1238+885768942+886722459+887840674+889647428+892098245+894498332+896143375
1228+897321494+898976058+901273434+903435089+905010987+906297515+907549852
1218+908734225+909900807+911139454+912637797+914840871+917841727+920854397
1208+922862472+923744063+924528155+926542485+930120552+934204598+937502816
1198+939723819+941510559+943543582+945776191+947536454+948641048+949942656
1188+952079503+954418644+956115043+957228463+958109776+958796022+959382684
1178+960060173+960738844+961612999+963663048+967443896+971892504+975380785
1168+977438549+978398250+978311036+977457590+976827008+977247095+978777544
1158+981152891+984195582+987678721+990904387+992502800+991612314+989600833
1148+989326822+992181047+996568779+999641351+1000171654+999342600+998932312
1138+999495207+1000766794+1002866740+1005824996+1008649339+1010145320
1130+1010286460+1010041288+1010286877+1011504051+1013677451+1016013535
1121+1017566361+1018007087+1017356630+1015973576+1015366484+1017417784
1113+1021910312+1026366355+1029145875+1030984179+1032744651+1033855708
1104+1033850357+1033664185+1034233265+1034796924+1033906786+1031728591
1095+1030104951+1030528721+1032787181+1035446616+1037442739+1038690281
1087+1039216137+1038677564+1037310841+1036727168+1038418910+1041643395
1078+1044017909+1044566766+1045017499+1047549901+1052363488+1057362899
1070+1059217047+1056217790+1051282660+1049280352+1051499270+1054825771
1061+1056093466+1055490821+1055084008+1056018066+1057880832+1059458049
1053+1060102043+1060817198+1063177882+1066856227+1069219552+1068289455
1044+1065380191+1063851271+1065814385+1070076334+1073263362+1073290604
1035+1070939023+1068721842+1069034631+1071823880+1073741823+1071704143
1027+1067117730+1063959542+1063730979+1064862328+1065324249+1064004921
1018+1061248195+1059227610+1060445409+1064686163+1068766040+1069745616
1010+1067070544+1062077110+1057568043+1056437319+1058743520+1061143885
1001+1060384672+1056689440+1053055293+1051805457+1052775513+1054039108
993+1054011241+1053511446+1054227296+1055384079+1054487965+1051286551
984+1047990836+1045598254+1042992815+1039883758+1038071097+1038706612
975+1040323789+1040570212+1038625792+1035064195+1030721634+1026379142
967+1022472095+1019377423+1018029672+1019009040+1021118089+1021946031
958+1020059569+1016211660+1012254439+1009271721+1007090468+1005171343
950+1003047005+999756015+994569876+988904928+985256882+984158403+983791409
940+982294873+979667821+977506096+977114710+977959956+978249951+976876487
930+973991546+970167891+966443541+964572228+965896352+969779771+973640675
920+974904548+973348317+971202992+970657262+972004666+973949711+974926994
910+974316913+972969718+972208976+972030656+970738500+967183713+963036984
900+961439961+963208910+965565355+965153400+961599169+957335066+954969517
890+955400653+957344378+958472253+957744798+956095099+954614407+953547825
880+953150254+953760127+954948669+955726368+955742073+955321083+954187441
870+951706324+948553279+946920466+948800605+954133236+960212571+963224199
860+961278597+956159449+951456357+949130211+948683370+949135423+950464203
850+952752545+954949295+955583629+954526220+952943582+951703267+950489012
840+948550777+945822890+943094031+941670601+942441698+944577294+946225742
830+947174047+948903594+951242318+951744198+949652939+946719770+944098694
820+942447327+943384582+947856331+954075834+959050436+961454415+961709455
810+960448987+958857593+958844806+960702290+961757892+959392065+954612531
800+950617852+949619721+952260741+957670023+962927463+964616009+962247819
790+958535353+956079880+955403224+955899058+957040484+958706932+961330578
780+964959236+967982468+968199704+965205103+960543081+956025883+952915437
770+951773594+952004589+952467136+953142680+954773060+957082667+959129798
760+960699580+961757892+961581032+960023897+958773228+960082133+964281955
750+968945019+971167898+970655316+969760939+970645379+973385149+975888711
740+975353891+971244966+966695593+964975984+965337418+964881681+963211134
730+962605084+964579108+968248558+970985687+970242735+966510880+963128854
720+961771374+960599718+957744312+954509959+953609813+955806910+959813194
710+964329905+968384000+970253506+968246404+962612728+956410389+953043165
700+952734685+952573808+949945436+945394534+941571574+939962041+939604012
690+938982396+938030269+936763755+933617589+927694752+921459335+918277449
680+918765083+921104781+922753021+921794709+918891213+916057975+912508818
670+905953315+900000874+902394776+909411714+911799292+909118105+906988347
660+908577726+911340429+911317287+908016846+903943988+900237081+896777709
650+894983186+896512245+900190590+901957455+899907406+896938239+896225030
640+897554504+899081965+900065711+901382885+904218208+908573000+912067606
630+910016583+900955433+890267933+884098256+882011097+878658536+872141671
620+867472422+869337690+873216245+870746525+862964398+857779509+857741635
610+859584178+862874821+870955283+883488384+894560737+899561677+899824639
600+898513372
##END=
