##TITLE=<SNM>
##JCAMP-DX=4.24
##DATA TYPE=INFRARED SPECTRUM
##DATE=3/5/2025
##SAMPLING PROCEDURE=Instrument type and / or accessory
##ORIGIN=Admin
##XUNITS=1/CM
##YUNITS=ABSORBANCE
##RESOLUTION=4
##FIRSTX=4497.3318
##LASTX=599.83466
##DELTAX=-1.4281778
##MAXY=1.7255372
##MINY=0.18408532
##XFACTOR=1
##YFACTOR=1.6070317e-09
##NPOINTS=2730
##FIRSTY=0.20701638
##XYDATA=(X++(Y..Y))
4497+128819098+128849456+128387873+128162839+128530020+128981432+128766616
4487+127686966+126473848+126296531+127508082+129109976+129789713+129260246
4477+128350653+127987459+128294638+128708988+128794192+128569391+128141123
4467+127574009+127119574+127079536+127451705+127997446+128447254+128418982
4457+127536641+125983742+124589941+123968064+123842784+123581467+123144084
4447+123035058+123445412+123966970+124149944+123923797+123471134+123073743
4437+123099604+123720526+124504412+124601717+123613457+122203086+121486407
4427+121766732+122264034+122212349+121739740+121371641+121170225+120804361
4417+120200630+119742106+119843306+120437894+120965201+120932117+120399663
4407+119761569+119170217+118543991+118093451+118266883+118966389+119318066
4397+118599273+117139137+116046728+116211444+117515340+118823102+119032159
4387+118309332+117762739+117845486+117875158+117256461+116353647+115795685
4377+115648095+115686520+115920224+116434605+117094610+117721170+118280133
4367+118665757+118565772+117789239+116568564+115378730+114630979+114549900
4357+115016704+115518809+115623801+115477073+115523501+115915578+116443942
4347+116763398+116549472+115868112+115397052+115767673+116732010+117415011
4337+117287144+116555574+115754079+115265911+115200503+115490611+115965445
4327+116377190+116505511+116285197+115819645+115344245+115159259+115426399
4317+115980782+116417822+116405851+116001543+115640037+115695718+116121798
4307+116581954+116793375+116735209+116737249+117303899+118561201+119918023
4297+120531982+120175418+119440556+118977470+118834961+118779206+118893118
4287+119391245+120016256+120135064+119524472+118662410+118055331+117690348
4277+117472593+117676004+118442949+119367442+120076360+120633042+121036432
4267+121100848+121066206+121489559+122361775+123025823+123046844+122615015
4257+122088088+121682826+121678097+122353587+123501983+124460831+124771811
4247+124425494+123619215+122808680+122633301+123215844+123961842+124411103
4237+124688934+124905391+124816004+124296996+123599845+123008270+122696697
4227+122983411+124184196+125917027+127033034+126778199+125718967+125019006
4217+125105593+125531709+125815836+125891871+125854503+125687311+125352324
4207+125031209+125168451+126071720+127375847+128186827+128059117+127569771
4197+127576930+128186289+128789964+128864765+128433132+127909645+127709962
4187+127935552+128375855+128803252+129078755+129000885+128496379+127983611
4177+128013747+128543706+129045226+129226197+129219651+129300293+129732456
4167+130554396+131360322+131674140+131453399+130888112+130119581+129471788
4157+129319738+129509110+129596521+129679222+130245539+131266030+132104345
4147+132292679+131957442+131536045+131380601+131588879+131996108+132279438
4137+132191599+131824474+131592551+131808210+132333005+132802275+133073486
4127+133189930+133040671+132483525+131782813+131524667+132022182+133043174
4117+134126589+134938830+135320550+135209827+134652486+133899663+133332299
4107+133115184+133105430+133317343+134050823+135137947+135668824+135112206
4097+134140349+133735559+134058176+134629815+134989921+134845614+134190448
4087+133505685+133430717+134183726+135413312+136427451+136692310+136430521
4077+136450966+137101792+137827474+138029021+137859659+137854272+138131185
4067+138304831+138097081+137680107+137306927+136982529+136718514+136755734
4057+137237977+137892094+138266220+138210826+138042067+138209074+138750169
4047+139174923+139038979+138504597+138123480+138206339+138629321+139123331
4037+139467608+139439411+138952096+138363201+138289142+138936768+139894411
4027+140691009+141270521+141794044+142243899+142435190+142351237+142287284
4017+142525021+142884441+142811801+141988423+140685835+139490901+138920254
4007+139274685+140455414+141865674+142885693+143450924+143809574+143919073
3997+143600786+143044401+142604162+142326776+142139491+142228766+142875966
3987+144073172+145384421+146091948+145684970+144394686+143056102+142407548
3977+142655365+143493467+144271835+144389355+143824299+143174030+143045059
3967+143507820+144181215+144719992+145117253+145544659+146029201+146394054
3957+146448994+146147490+145667788+145337669+145299939+145337178+145234012
3947+145149586+145328239+145663179+145874230+145927241+146008820+146176179
3937+146343028+146562146+146990988+147546354+147852846+147664059+147161537
3927+146750275+146717070+147012241+147314820+147438765+147510961+147678580
3917+147855239+147814857+147463810+147029089+146940704+147396770+148067875
3907+148413738+148235929+147833838+147709216+148047151+148581524+149077527
3897+149598427+150190613+150610629+150494046+149824722+149291628+149657103
3887+150715102+151430158+151187108+150604212+150484124+150816404+151163741
3878+151283402+151203196+151170250+151593029+152539285+153365184+153400438
3868+152882320+152460469+152350358+152425271+152593418+152746794+152632464
3858+152146049+151644241+151868440+153229547+154861632+155614863+155540785
3848+155314323+155378554+155721033+156108511+156545430+157333015+158518928
3838+159560431+159986816+160011815+160016544+160102073+160343491+160875231
3828+161528680+161936039+162136732+162471524+162837713+162847486+162866995
3818+163542161+164633717+165404983+165708397+165950557+166421153+167144202
3808+167926317+168547202+169179158+170094797+171034117+171596363+172112580
3798+173106904+174411300+175557378+176485757+177464356+178694294+180179522
3788+181775945+183339618+184851458+186402687+188135694+190228566+192862709
3778+196087361+199657653+203204504+206690862+210462349+214665840+219017672
3768+223463527+228384114+233907671+239808192+246136842+253244268+261058776
3758+268913211+276443313+284072186+292425462+301725754+311612901+321342213
3748+330743723+340708258+351765314+362382631+370870877+377853570+384891712
3738+393503356+404882166+418591594+432276320+443850149+452801796+459518703
3728+464500247+467918119+469757444+470510109+471288552+473214816+477017495
3718+482841870+490073028+497715328+504931353+511291232+517472523+524868138
3708+533398407+541578139+548736601+555740472+563541590+571580158+578011955
3698+581673841+583289514+584496456+586509139+589884840+594131930+597584332
3688+599581549+601437601+603533774+604636568+603929004+602223536+601349513
3678+602062492+602411805+600399344+598375496+599749084+604420556+609307781
3668+612349783+614686521+617854073+621318640+623424011+624172782+625331322
3658+627695878+630559144+633325160+636107941+638718996+640521861+642136756
3648+645201642+649570758+653830607+656945714+658302091+657636921+655922552
3638+655253598+656679334+659115695+661137392+663100486+666628032+671977508
3628+676590972+678331527+677777033+676470949+676200935+679027037+685183663
3618+691324490+694184121+694007795+692618927+691577665+692086613+694308446
3608+696692585+697703952+697975376+699428039+702981845+707066110+708954876
3598+708581010+708854882+711242656+713673157+714047171+713134537+712330725
3588+711035768+708683082+707375589+708950129+712486428+715882676+718251534
3578+719819991+720104026+718189297+714606709+710882884+707576319+704978988
3568+704514400+707247628+711543751+714199166+713803268+711886388+711254599
3558+713461670+717330295+719949435+719602941+717490152+716028662+716204394
3548+717146403+717450095+716751173+716123241+716349712+716508679+715421945
3538+713568266+712225835+711819478+712471592+714783406+718571397+721903554
3528+722661671+720837961+718878724+719242947+722011263+725111607+726138404
3518+724590494+722420438+722001174+723730009+725667511+725584504+723399760
3508+721145065+720624175+721769733+723209860+723736907+722809363+720436426
3498+717643853+716265221+717359077+720553926+725149291+730437198+734382673
3488+734305526+730364205+726220521+724788999+725186900+724658517+722313026
3478+719761612+718630741+719092955+720831952+723960411+727995866+730355229
3468+727971461+721482509+715132422+711815695+710822130+710921976+712780625
3458+717219248+722744827+725948949+724910283+721505505+719325286+719900254
3448+721658983+722051246+719855153+715761837+712302611+712766680+718082107
3438+724689895+727590325+726138701+724003361+723683498+724595835+725647037
3428+726401594+726025725+724066785+722156581+722609597+725181411+726622798
3418+724367139+720170343+718200721+719904631+722803206+724317068+724932315
3408+726473697+729074663+731222317+732125604+732721119+733433616+732763995
3398+730124307+728065447+729143205+732453330+735243010+736208683+735466217
3388+733055225+729491924+726885098+727267495+729194834+728392061+723683350
3378+719276476+719091843+721790800+723359184+722954533+722825015+723849661
3368+724472400+723418157+721800592+722259617+726261246+731973610+735386622
3358+734661737+732027316+730057397+728287245+725274135+722189517+721766989
3348+724225826+726408864+725949542+724388725+724193039+725355585+727043101
3338+729600004+732630620+733974906+732260537+728642343+725526718+724796417
3328+726492168+728368323+727957441+725505947+723442191+722996445+723044216
3318+722294852+721466783+722324895+724894038+727057863+727196208+726139368
3308+725963488+728177162+732901228+738137802+740649011+739142494+735756928
3298+733126512+731602562+730363166+729348312+728723867+728089630+727593886
3288+727966639+728653841+728520614+728487678+730098344+732469279+733628783
3278+733590507+733864749+735261852+737266264+738594008+738487634+737712307
3268+737263000+736635068+734819888+731974500+728907165+726323334+724845970
3258+724309946+723641735+722759514+723164907+725827665+729906144+733539323
3248+735045988+733841828+731176474+729327171+729741391+732393393+736013812
3238+738685843+739088194+737479679+735055780+732723271+730804165+729133339
3228+727222468+724887065+722594761+721033128+720647170+721216055+721548010
3218+720506377+718637491+717642518+718311990+720062708+722091822+724037558
3208+725915197+727925099+729758007+730256941+728867776+726811363+725760606
3198+726042415+726621834+726624949+726269851+726022980+725808082+725427168
3188+725035573+724600360+723468154+721205077+718559380+716806363+716349564
3178+716652440+716998414+716750135+715366014+712949607+710654929+709644303
3168+709772709+710135374+710405685+710622512+710315779+708905547+706578601
3158+704221686+702953805+703629138+705983605+708396748+709242917+708353723
3148+706752107+705335792+704178365+702883408+701392617+700100256+699022424
3138+697667604+696049001+694820806+694455025+695135403+696795027+698641437
3128+699673426+699966881+700168279+699993660+698755748+696898879+695500145
3118+694560509+692900810+689803284+686180492+683826767+683839155+685824651
3108+688249440+689603222+689609156+689258434+689199313+688506399+686157792
3098+683098321+681391518+681758485+683058561+683846498+683383468+681431204
3088+678442277+675949540+675614544+677555310+680002575+680926930+679948053
3078+678257867+677060530+676688370+676975372+677678522+678237986+678016931
3068+676900376+675183559+673305920+671860972+671120583+670352748+668541055
3058+666108848+664910844+665928368+667828187+668647206+668286247+667985745
3048+667893836+667005459+665208156+663586438+662746722+662145940+661009431
3038+659141362+656978575+655260720+654439327+654284662+654291857+654312850
3028+654345341+653944177+652605083+650689983+649148378+648373793+648129000
3018+648289747+648925097+649836396+650290599+649318176+646880628+644444712
3008+643158953+642088539+639860326+637169380+635786075+636027975+636667479
2998+636602275+635720574+634555580+633633229+633092606+632669188+631873684
2988+630473763+628948774+627885778+627016020+625869645+624949148+624934831
2978+625451939+625753999+625729074+625446227+624606734+622984051+620962726
2968+619459064+619201697+619821877+619998017+618886470+617046700+615724779
2958+615453837+615433401+614493765+612686894+611206376+610646689+610232469
2948+609005424+607088173+605400768+604509201+604186371+604026736+603974550
2938+603890727+603184016+601625276+599995323+599288835+599635885+600262222
2928+600255064+599314279+597974332+596863638+595661406+593582814+590923394
2918+588936710+588182079+588228738+588695960+589254163+589072311+587652732
2908+585725690+584264459+583237959+582079604+580795218+579885069+579440101
2898+578933713+577975681+576882048+576223517+575894900+574949516+572648347
2888+569534910+567037202+566133247+566758991+568118336+569037201+568486304
2878+566455262+564082472+562549955+561997872+561580202+560540387+559153447
2868+558264477+557966422+557457660+556343739+555287048+555007983+555171402
2858+554704366+553237052+551785205+551500355+552199610+552835109+552828618
2848+552049841+550217638+547399028+544537171+542689427+542007677+541671902
2838+540729300+539089703+537600284+536935633+536749294+536314934+535547025
2828+534776185+533992476+532986301+531858508+530798219+529664084+528208269
2818+526456031+524706426+523317558+522527728+522392128+522739549+523089492
2808+522827526+521782666+520427290+519248796+518278079+517428757+516789179
2798+516333010+515796690+514981158+513822914+512295886+510644941+509489516
2788+509208931+509266309+508666454+507172584+505510994+504279350+503214350
2778+501760018+499974955+498533865+497938015+497955818+497804751+496788451
2768+494853137+492673698+491150230+490677260+490800732+490611202+489632363
2758+488266453+487136064+486211154+485045084+483603251+482193835+480797957
2748+479133622+477235769+475478487+474104862+473047726+472227409+471785853
2738+471797129+471903094+471563054+470522571+468844810+466877821+465321677
2728+464701312+464647754+464297811+463342078+462133355+460981788+459857222
2718+458645236+457366710+456158136+455115056+454140223+452987135+451544820
2708+450121346+449277885+449224179+449503243+449378844+448405716+446651920
2698+444629853+442981541+441946733+441159388+440178769+439091960+438312405
2688+437897999+437396025+436394783+434978505+433559260+432492925+431929122
2678+431779983+431680731+431188029+430204738+429072532+428145841+427458231
2668+426876068+426329586+425782658+425196044+424587584+423962286+423222157
2658+422285006+421188592+419993259+418761651+417675622+416954483+416588703
2648+416297250+415795795+415030111+414137023+413261961+412470055+411777883
2638+411195534+410711956+410258718+409748435+409173801+408577025+407894200
2628+406990912+405910632+404877567+404023720+403335814+402811214+402432304
2618+402103910+401798141+401579422+401392340+401049185+400460160+399686984
2608+398828761+398004030+397344349+396887401+396549104+396218744+395799666
2598+395225069+394578258+394087225+393812018+393471829+392811407+391998099
2588+391389046+391025120+390602926+389858717+388816083+387753680+387043260
2578+386904469+387205009+387551206+387635660+387448170+387130199+386746986
2568+386308101+385918323+385740551+385782203+385816066+385590486+385095372
2558+384565172+384238707+384155440+384164861+384075957+383788102+383311645
2548+382701405+382006414+381303858+380785600+380717429+381138919+381646012
2538+381734471+381349664+380856108+380558759+380497263+380576413+380702742
2528+380861783+381065332+381194776+381059769+380641988+380110416+379656806
2518+379424957+379412644+379381154+379099642+378669102+378378466+378316860
2508+378334700+378318862+378310888+378323499+378206183+377842554+377367507
2498+377007030+376811937+376686425+376522413+376205257+375667936+375018121
2488+374508506+374351949+374566552+374951916+375243553+375313023+375154315
2478+374770361+374248617+373837883+373725724+373790705+373729099+373379563
2468+372841500+372362336+372188533+372410108+372847361+373184285+373269184
2458+373160288+372883004+372386333+371774127+371298931+371038894+370805042
2448+370450760+370056420+369728768+369454080+369231652+369123349+369089746
2438+368973098+368697928+368352621+368067993+367897268+367777913+367603591
2428+367388766+367268150+367271821+367274158+367212849+367147051+367072204
2418+366880857+366516152+366064137+365728585+365705070+365973304+366265832
2408+366358260+366299584+366249401+366238979+366224366+366234899+366300993
2398+366309413+366123518+365839261+365691310+365679144+365575700+365323860
2388+365020168+364420053+362888945+359974829+355720395+350384457+344142227
2378+337078307+329333602+321254124+313308466+305727309+298388016+291240996
2368+284657094+279152341+274940060+271942640+270169038+269946276+271807892
2358+276238484+283400581+293120212+305232363+319091746+332283807+341171251
2348+343301807+339225404+332504195+327040853+323701872+320904811+317601845
2338+314119771+311064991+308373191+305513913+302550077+300511357+300265247
2328+301407208+302726941+303495684+304017836+305141196+307462208+310918523
2318+314907857+318703748+321894073+324549710+327009364+329561853+332309028
2308+335137800+337759203+339909490+341547936+342801612+343811941+344714227
2298+345632054+346586673+347500977+348316695+348992695+349438775+349644513
2288+349840199+350302710+350970069+351437031+351400015+350978748+350542126
2278+350322702+350292362+350323963+350311760+350140813+349720176+349127035
2268+348629548+348506484+348827200+349357178+349720844+349754448+349630493
2258+349579865+349665283+349870799+350162436+350406970+350461937+350380340
2248+350359718+350491572+350669604+350737886+350674759+350615527+350710996
2238+351008457+351448009+351896018+352204569+352319993+352313539+352280937
2228+352259870+352226452+352141628+352050869+352105613+352394803+352810952
2218+353168907+353392188+353552119+353798025+354227675+354772377+355266118
2208+355640726+355959884+356280897+356608958+356975777+357432613+357942896
2198+358377033+358669598+358920586+359265781+359695802+360103420+360485446
2188+360960085+361563426+362193472+362792437+363389362+363936475+364357928
2178+364774559+365374005+366055236+366546825+366887681+367433385+368344498
2168+369396145+370384628+371443137+372811012+374525827+376512584+378771285
2158+381293435+383974850+386761822+389710394+392817267+395962119+399016547
2148+401824734+404187583+406140330+408117332+410527731+413277391+415990220
2138+418555877+421160070+423916888+426784271+429740966+432792389+435882757
2128+438980987+442160593+445418904+448475742+450920337+452521768+453231594
2118+452972632+451704195+449679309+447364269+445053049+442704108+440128475
2108+437207015+433947851+430475235+427018901+423800425+420839094+417961956
2098+415030519+411993412+408774751+405386366+402060737+398996370+396118750
2088+393313048+390662344+388287255+386189747+384340148+382727702+381309050
2078+380038536+378926210+378000594+377264100+376705044+376287671+375925563
2068+375537343+375127425+374727596+374291678+373780579+373291660+372941272
2058+372701449+372498122+372329994+372191203+372051152+371949822+371940290
2048+371960022+371899602+371750315+371635226+371750538+372226550+372997797
2038+373915438+374968866+376239825+377693638+379186655+380626373+381980897
2028+383172855+384063791+384525746+384485244+383923925+382890230+381520129
2018+380002225+378475159+376956068+375404895+373856317+372459178+371372110
2008+370624452+370066397+369449555+368598193+367528669+366380959+365270784
1998+364287346+363556934+363135816+362876780+362563147+362140731+361704776
1988+361344410+361115232+361051771+361092422+361063417+360821369+360387973
1978+359907733+359501005+359206920+359028072+358918917+358743222+358386528
1968+357927986+357569623+357389329+357296975+357212336+357138861+357066462
1958+356928895+356701682+356478846+356390276+356454256+356543457+356487785
1948+356208387+355784004+355391704+355145205+354993989+354829050+354661923
1938+354597313+354652280+354718077+354713293+354681136+354705281+354812212
1928+354963019+355065647+355016206+354817033+354613781+354523170+354491050
1918+354413532+354317952+354320177+354464716+354699384+354928971+355035382
1908+354938317+354697530+354481444+354408117+354484077+354662368+354853419
1898+354930195+354853159+354740888+354697493+354649572+354495167+354328708
1888+354341207+354526471+354694340+354753461+354798414+354916991+355051367
1878+355084266+354970919+354753610+354499915+354262094+354090368+354043783
1868+354142034+354324405+354514120+354694859+354897444+355134597+355360920
1858+355517921+355617396+355719023+355814529+355822578+355737493+355696620
1848+355816754+356010364+356078461+356020081+356102161+356492199+357080890
1838+357657712+358070411+358287201+358367835+358387715+358426066+358579804
1828+358882717+359268007+359682820+360122669+360557697+360962718+361375492
1818+361827395+362288163+362715068+363084038+363422335+363867377+364547457
1808+365359726+366073892+366630685+367153468+367749280+368447423+369248824
1798+370112055+370960746+371759773+372527349+373330345+374332514+375670458
1788+377239101+378786381+380203660+381629766+383199263+384838599+386397970
1778+387825449+389171552+390509459+391859754+393182120+394500926+395953552
1768+397611470+399389523+401183450+402999446+404870668+406706618+408379150
1758+409926429+411494776+413140974+414794479+416392719+417984062+419691421
1748+421533713+423359464+425039562+426634539+428312041+430133118+431983384
1738+433746304+435497949+437471391+439819404+442387620+444981873+447605464
1728+450192299+452565126+454710220+456844929+459179367+461735084+464447580
1718+467334286+470384819+473371929+476182490+479017753+481986799+484902882
1708+487622424+490279730+493004836+495706947+498342406+501119068+504302234
1698+507918277+511969384+516548837+521404943+526133349+530731680+535358645
1688+539884021+544061642+548030557+552384800+557408256+562699464+567934073
1678+573135189+578447242+583824573+588969127+593853830+598922350+604489099
1668+610232692+615692733+620932052+626231939+631566505+636595154+641151054
1658+645357197+649373366+653511931+658541618+664747426+670710740+675657939
1648+680217252+684865729+689299678+693233803+696955997+700723960+704435917
1638+707726756+710035750+711160539+712007523+713321470+714604410+715107794
1628+714803657+714185220+713319096+711831495+709886204+708253210+707141329
1618+705867439+703675426+700667954+697472660+694309559+691132067+687971414
1608+684939612+682095262+679403128+676943994+675060050+674027689+673670588
1598+673468374+672957646+672053246+671034238+670131025+669262157+668230983
1588+666937065+665480322+664250347+663611807+663422574+663221102+662749764
1578+662008708+661341164+661637883+663343796+665829783+668440689+671096475
1568+674071901+677517255+681263632+684934197+688271472+691637157+696375615
1558+703667340+712401270+721438669+730770117+740009285+748741434+757224858
1548+765514970+772872419+778607927+782834395+786257496+789483798+792624422
1538+795471072+797890743+799998042+802264384+805160289+808223914+810494410
1528+811974000+813879901+817251893+821535702+825213388+827492859+829118954
1518+831354659+834765743+839024924+843195609+846450100+848562666+849761560
1508+850620414+852423131+856092212+860253180+863226825+864769691+865562747
1498+866236967+866882183+867691262+868996753+870468702+871629245+872948755
1488+875065550+877086208+877820440+877732091+878059150+879172070+880742233
1478+882657185+884818858+886622392+887548082+888084253+889094879+890484044
1468+891690133+892679469+893702112+894557257+894865103+894608737+893665764
1458+891807337+890068043+890367878+892452776+894670752+896292915+897590172
1448+898767999+899608456+900130311+900579692+900789917+900367463+899302612
1438+898085099+897603227+898371211+899434801+899531457+898846778+898650127
1428+899456758+900416200+900698009+900394613+900065181+900064736+900395132
1418+900819663+901000069+900691629+899981803+899375457+899370042+899860296
1408+900142921+899517289+898052609+896703204+896159095+896032099+895692578
1398+895136378+894541159+893770580+892901934+892306419+891754224+890193482
1388+886590049+881269652+876528005+875081276+877949067+883681905+889363632
1378+893081746+895289263+897319490+899480570+901294117+902717331+904102120
1368+905617613+907281021+909112075+911071015+913096420+915187771+917264435
1358+919075460+920367746+921094708+921420877+921445134+921147673+920858594
1348+921432597+923491384+926540173+929215987+930623919+931162316+931857010
1338+933167471+934744162+936065156+936842264+937085648+937194024+937773739
1328+938910693+939744548+939307184+937825368+936650212+936805990+938147754
1318+939918574+941536435+942758399+943547524+944042971+944479593+944990544
1308+945610390+946368507+947062089+947052816+945841831+943898246+942384904
1298+942009703+942464425+942845115+942324967+940536195+937775000+934933617
1288+932899904+931777786+930772873+929090623+926780738+924376645+922080187
1278+919805760+917543202+915212250+912607946+909744235+906947508+904636362
1268+903122130+902272030+901280172+899195497+895836710+891940787+888446621
1258+885918203+884480747+883851257+883334298+882250309+880615905+879033279
1248+877995578+877775042+878544583+879952144+881109349+881551832+881663101
1238+881908933+882181692+881983410+881177075+880685115+881958485+885266904
1228+889079894+891667805+892601877+892296776+891322276+890635741+891310926
1218+893381729+895671808+897268083+898666076+900962756+904242097+907304387
1208+908995538+909511459+910208230+912190536+915253717+918261708+920396454
1198+921777237+923000981+924450306+926056373+927475284+928302018+928395929
1188+928474115+929953186+933505434+938075058+941978918+944673499+946757803
1178+948810061+950875524+952577134+953547183+954103532+955178249+957262775
1168+959776729+961825129+963248862+964490261+965807324+967167410+968685500
1158+970593701+972814496+975031507+976781854+977582996+977769632+978594882
1148+980815529+983875890+986626700+988258136+988860254+989397390+990600957
1138+991969426+992700393+993169507+994357051+996352413+998228346+998992769
1128+998447028+997465926+997454503+999188752+1002081542+1004752756+1006204010
1118+1006363051+1006024866+1006545459+1009016685+1013208215+1017888218
1110+1021900900+1023861695+1022275286+1017849496+1013849499+1012700825
1101+1013938144+1016073632+1018983260+1023299857+1028351501+1032116497
1093+1033551208+1033668042+1033492458+1032634494+1030945791+1029397288
1084+1029008437+1030281140+1033004058+1036258623+1039275960+1041648823
1075+1042195751+1039848331+1036187410+1034432835+1035728089+1038637049
1067+1041977143+1046045979+1051001783+1055539658+1057862450+1057950131
1058+1058261834+1061130441+1065587535+1067909511+1065657931+1060424917
1050+1055859967+1054382676+1056517348+1061539098+1067767456+1072661617
1041+1073741823+1070747185+1066254485+1063152508+1061967486+1061465660
1033+1061311663+1061771058+1061670693+1059582680+1056566381+1055158893
1024+1055746694+1056395100+1056245998+1056498358+1057556162+1057698365
1015+1055636166+1052649688+1051147324+1052182429+1054569980+1055752925
1007+1054090408+1050898822+1049177554+1049861862+1050283129+1047503909
998+1042653663+1039482551+1039208976+1039596862+1038567469+1035964203
990+1032667059+1030677928+1032283624+1036605932+1039015960+1036605339
981+1031757689+1028284665+1027175677+1026534838+1024050408+1019585971
973+1015534567+1014129454+1014907971+1015252758+1012644374+1006421950+998495319
963+992111109+988705440+986265815+981902930+975712478+970181113+966370571
953+963234917+960244581+958096408+956763693+955096206+952579582+949960887
943+947874728+946255532+945368045+945746139+947034049+947894905+947277284
933+945597928+944250748+944104614+944829573+945594738+945915417+945730487
923+944954195+943508876+941978028+941479688+942582964+944276860+944518834
913+942474810+939624822+937930704+937712615+937984187+938056364+938181877
903+938972411+940238734+940403710+937963046+933864983+931117809+931737878
893+934976419+938104804+938716490+936816968+934187146+931805084+929184460
883+926308139+924365592+923922294+924114123+924337256+925097673+926528601
873+927731278+928306246+929026828+930469255+932237033+933622564+933751414
863+931542859+927292134+923565563+922935035+925085359+927312533+928154103
853+928670988+929757129+930367554+929090326+926381948+924301649+924249872
843+925403961+925673902+924284959+922420598+921070229+919881275+918694176
833+918693657+920854663+924044097+925850820+925241730+923546351+922888821
823+924569142+928469812+932995819+936243336+937841317+938668719+939002305
813+938561677+937921209+937861791+937623896+935797441+932843824+930880878
803+931113580+932800281+934594096+935748631+936023541+935653384+935359187
793+935501019+935399837+934362136+933130529+933078974+933987306+933849331
783+931960714+930820644+933045148+937819953+941973280+943478314+942330011
773+939162904+934900830+930910105+928274794+927541749+928720318+930718202
763+931857233+931779863+932007521+933799928+936287473+937476278+936648358
753+935179301+934889703+935873550+936611935+936287028+936164038+937918983
743+941133342+943811604+944907759+945304769+946500548+948572983+949904881
733+949600076+948803385+948315653+947066910+944773790+943449458+943922429
723+943413704+939417638+934345149+932443031+933725674+934488984+932904577
713+931048599+930962773+931626756+931088953+929272364+927381001+926247163
703+926101622+926700847+926661160+923969547+918536173+912872990+909335059
693+908190242+908550682+909834438+911938251+914123514+914375354+910996019
683+904666109+897643359+891782264+888697423+889409253+891859486+890816221
673+882293036+867526435+853032370+849357948+861336131+877284936+885672668
663+886035778+881769624+875341202+867896740+860277585+854290608+852332928
653+854675007+858281777+860139833+860147251+859306052+857913252+856261639
643+855145010+855143453+856179967+857988025+860424090+862478945+861600656
633+856570895+850029127+844963240+841428498+837229551+831035092+825037804
623+822910550+825931893+831549678+835841498+837048255+835468448+832117747
613+828020945+823499760+819368613+817769668+819368761+821179268+820407649
603+818458724+818378313+820356540
##END=
