##TITLE=<SNM>
##JCAMP-DX=4.24
##DATA TYPE=INFRARED SPECTRUM
##DATE=3/5/2025
##SAMPLING PROCEDURE=Instrument type and / or accessory
##ORIGIN=Admin
##XUNITS=1/CM
##YUNITS=ABSORBANCE
##RESOLUTION=4
##FIRSTX=4497.3318
##LASTX=599.83466
##DELTAX=-1.4281778
##MAXY=1.7156944
##MINY=0.18102069
##XFACTOR=1
##YFACTOR=1.597865e-09
##NPOINTS=2730
##FIRSTY=0.20064002
##XYDATA=(X++(Y..Y))
4497+125567572+125531500+125604856+125535324+125216880+124988905+125210819
4487+125774024+126315351+126749573+127275093+127964903+128598620+128865502
4477+128613756+127982389+127406809+127363706+127836890+128080449+127329126
4467+125780971+124437105+123995236+124387716+125271687+126352225+127239180
4457+127460553+126719488+125136568+123411869+122529726+122841268+123653283
4447+124180621+124544574+125200187+125848200+125740060+124839638+123933351
4437+123599492+123670647+123763810+123762458+123596219+123102555+122448565
4427+122161166+122317073+122269390+121582937+120694667+120223842+120088527
4417+119793537+119287078+119017902+119231954+119639850+119815061+119630039
4407+119245169+118892397+118763069+118920374+119187844+119160520+118427727
4397+116980467+115476274+114817490+115291747+116345576+117247806+117667247
4387+117582159+117033269+116128353+115100990+114240436+113728420+113518835
4377+113519543+113875504+114710963+115621726+115980597+115737766+115344120
4367+115029323+114780896+114730948+114904191+114911950+114444090+113747034
4357+113289106+113290701+113782238+114761937+116012192+116960585+117069080
4347+116456635+115793496+115431082+115152711+114886071+114889997+115073629
4337+114958709+114480376+114143375+114312934+114826489+115262315+115393630
4327+115457660+115788637+116136718+115943956+115327977+114963633+114992346
4317+114994249+114976940+115383549+116180260+116786605+116863300+116547337
4307+116060611+115668551+115832198+116796164+118087760+118909566+118997274
4297+118722139+118498425+118400282+118279617+118148274+118339609+119047399
4287+119796185+119852531+119139826+118270459+117790336+117823545+118241475
4277+118800362+119255595+119512098+119595227+119537519+119390090+119279385
4267+119402810+119929281+120770074+121500871+121758372+121657925+121551062
4257+121473827+121151215+120481995+119746293+119388150+119749566+120808776
4247+122058267+122918793+123327751+123586035+123734052+123537131+122984604
4237+122384562+122030010+121977432+122064767+122113484+122157688+122380319
4227+122875811+123594307+124268255+124353435+123617668+122794528+122886657
4217+123832811+124659672+124816557+124563888+124219584+123822926+123484768
4207+123530930+124226214+125443634+126608466+127132242+126995230+126700147
4197+126617148+126628376+126454751+126042044+125506815+124952526+124548491
4187+124624075+125392697+126559739+127430132+127535550+127026154+126421085
4177+126133706+126233882+126508057+126742830+127037242+127711003+128818557
4167+129971349+130734506+130956355+130672062+130038261+129442761+129311931
4157+129632081+129907562+129770036+129390285+129166684+129290454+129732827
4147+130367905+130936295+131114667+130812320+130281260+129853352+129683195
4137+129763060+130006992+130225119+130170975+129823733+129564097+129821150
4127+130583300+131449748+131978411+131840568+131061138+130300937+130363764
4117+131280450+132415458+133423405+134430568+135318922+135574911+134981761
4107+133984418+133274035+133289749+134062194+135225469+136199209+136617195
4097+136548166+136218168+135751931+135234608+134688963+133974468+133093742
4087+132515495+132734741+133617593+134596471+135347523+135853040+135987059
4077+135590550+134916071+134485459+134469624+134570341+134508549+134359832
4067+134446487+135030749+135982807+136769623+136981847+136729373+136357363
4057+136120519+136227018+136715926+137221797+137322337+137082238+136892610
4047+136950550+137130797+137187954+136994875+136663021+136372797+136131514
4037+135890249+135792451+136051481+136714751+137705025+138845592+139774550
4027+140201479+140319514+140614280+141161584+141441737+141044165+140265443
4017+139707535+139508945+139371727+139138278+138915478+138831435+139051661
4007+139751496+140708935+141322443+141365854+141298355+141573350+142049659
3997+142283985+142058788+141498250+140945938+140827306+141397384+142459214
3987+143422985+143766608+143405770+142603781+141699051+141000446+140778243
3977+141190942+142165940+143283883+143903537+143734304+143232312+143041677
3967+143227491+143506254+143888028+144511384+145155237+145458182+145432200
3957+145392063+145495139+145561948+145365018+145022235+144919531+145175222
3947+145456708+145494561+145445862+145587827+145932513+146296475+146558741
3937+146688667+146713016+146799381+147098875+147363528+147138565+146497975
3927+146012313+145981622+146234907+146608223+147147144+147814751+148344104
3917+148458007+148166160+147777634+147579175+147592473+147667582+147736648
3907+147937765+148425843+149040190+149356536+149271504+149220530+149504170
3897+149831427+149917531+150008046+150388533+150716405+150479878+150011645
3887+149967059+150229745+150320670+150488756+151209360+152120049+152580028
3878+152649625+152605282+152527897+152756227+153657320+154723272+154978469
3868+154472486+154027512+153915203+153891376+153874683+153931793+154019343
3858+154257819+155109672+156787714+158220081+157985746+156658722+155519134
3848+155093594+155236548+155548911+155952759+156883638+158607805+160511063
3838+161476214+161220093+160595068+160408965+160760767+161285914+161597112
3828+161453962+161002339+161029477+162248957+164144661+165378018+165965628
3818+166897934+167792508+167527603+166403972+165633224+165851016+166971756
3808+168329742+169251696+170043557+171401020+172956244+173677044+173749597
3798+174085900+174775328+175431463+175981118+176597191+177416040+178512795
3788+179915917+181604758+183541719+185745057+188308423+191206319+194166510
3778+197007930+199907803+203154666+207037483+211779456+217063623+221994272
3768+226195095+230266365+234901093+240414988+246913544+254243800+261825141
3758+269193539+276760052+285401423+295522274+306656397+317698419+327918123
3748+337826535+348415087+359670425+369803399+377804041+385154347+393601129
3738+403998803+416206031+428888531+440168526+448958903+455267756+459560324
3728+462205271+463534925+464632370+467312679+472330300+478315701+483367417
3718+487121223+490727832+495740753+503338078+513533907+524525030+533826677
3708+540669555+546645183+553976130+563115809+572068042+578639505+582727282
3698+585550685+588022696+590366013+592941912+596803150+602142693+606689703
3688+608196508+607655582+607288635+608305730+610708433+613427835+615610154
3678+617414037+618481453+617381733+614485963+612135186+611787487+613555821
3668+616366391+618704076+620070137+621243195+623455430+627355574+632356670
3658+636767488+639153293+640121521+641281560+642874907+643892449+643657517
3648+642969357+643096634+644350750+646433732+648911003+651273978+653379565
3638+655586839+657595589+658091192+656686522+655258053+656529105+661662924
3628+668812654+675396204+680744513+684253128+684399728+681224225+678121090
3618+678411603+681156409+683472532+684924576+687202353+691143903+696398284
3608+702856870+709956763+715570891+717621196+716392147+714225458+712921133
3598+712230287+711470282+711521387+713304903+715301939+715342002+713714486
3588+712207607+711690741+712401357+714857515+718794664+722148697+722706148
3578+720736119+718763852+718660299+719789675+720259540+718985355+715820596
3568+711349646+707335952+705285871+704780121+705126514+706735229+709387450
3558+711594202+712845558+714702336+718291376+722207859+724795173+726422241
3548+727618016+727809453+726859428+725335390+723534790+722017615+721849828
3538+722788438+723039336+722162424+721791636+722897063+724048224+722524932
3528+717743250+713264094+712977311+715930489+717637534+716336492+714822003
3518+715994799+719464993+722713161+723945119+723476672+722778068+722857597
3508+723672287+724486680+724726014+724691024+725141342+726024221+726686792
3498+727466343+729488148+732320018+733237963+730557019+726665081+725426334
3488+727740891+731440645+733883747+733401722+730382592+727342274+726038769
3478+725336062+723468093+720974707+719570261+719827351+721313788+723470032
3468+725671487+727108983+727103686+725833008+724805021+725778844+728332735
3458+729580286+727698589+724776074+724180574+726265346+728670623+729770604
3448+729900492+729748372+729623035+730099539+730922362+730497186+728780442
3438+727597201+727138079+725907166+724171845+724171323+726460812+728671593
3428+728438824+726194023+723971231+722955778+723317688+724828596+726323613
3418+725985054+723527628+720799981+719397997+719427317+720947476+724250852
3408+728389659+731479589+732800701+733128368+732873441+731523905+728657194
3398+724600677+721124664+720888687+724353509+728038790+728310428+725899705
3388+723698399+722610877+722521798+724464895+728615415+732307186+733090095
3378+732058079+731492869+731190568+729469571+726089277+722293580+719230359
3368+717598367+717494740+718254073+719744987+722862670+727509092+731590527
3358+733419701+733503558+732963639+732307932+732376271+734096894+736499187
3348+736858337+734009681+730209507+728345642+728942559+730427504+730977047
3338+730084991+728972774+729579764+732492879+735751417+736515973+733831374
3328+729509784+726722304+727481413+730868198+733945595+734797215+733999609
3318+732947897+732206768+731733919+731409535+731140657+731114172+731683784
3308+732785257+734306610+736668392+739528985+740846516+739427373+737124827
3298+736412943+737267995+737928626+737244793+735150993+732316214+730046420
3288+729508068+730790609+732786153+734096297+734422174+734605106+735474930
3278+736586102+736225758+733747741+731186614+730888342+732403427+733386726
3268+732528391+730458466+729192338+730658333+734570862+738545836+740917018
3258+742131146+742808413+742329372+740161489+737087226+734597571+734048326
3248+735793420+738264574+738918490+737100655+734999843+734707092+736035440
3238+737860884+739429238+739953415+738637750+735606907+731793603+727993952
3228+724955201+723583955+724441170+727030797+729679063+730622970+729398398
3218+726865248+724350301+723317464+724786966+728299237+732050842+734157922
3208+733508556+730304555+726326075+723801952+723584999+724977434+726755354
3198+728049458+728662715+728791782+728642123+727993877+726432910+724097687
3188+721614970+719386060+717724226+717452289+718957602+720596681+720065118
3178+717640146+715850363+716047620+717241529+717769437+716727648+714311926
3168+711659855+710081429+709892901+710163793+709652150+707890120+705680832
3158+704383818+704723048+706413755+708109013+707893105+705212012+702126633
3148+701262255+702718253+704195439+704211479+703831589+704723198+706720607
3138+707960921+707115493+704832867+702613209+700967265+699409505+697655459
3128+695869705+693958539+691666364+689650304+689489081+691790358+694906923
3118+696443868+695654618+693468009+691045797+689380531+689079050+689635830
3108+689868002+689323085+688331430+687075449+685759112+684967101+684742465
3098+684365260+683782144+683948067+685087589+685648920+684046098+681041890
3088+679093198+679503154+681172524+682136052+681739748+680888576+680535245
3078+680609253+680457431+679702350+678273807+676135095+673599259+671422125
3068+670151148+669783195+670052446+670621088+671228301+671851255+672242113
3058+671703835+670021559+668042503+666723405+665891854+664531425+662257230
3048+659976022+658895587+659052333+659292786+658954078+658634170+658804195
3038+658862686+658276064+657571416+657395049+657351778+656568646+655198071
3028+654526399+655233434+656180623+655731872+653912770+652069197+650810530
3018+649650789+648413086+647626820+647365478+646855177+645671190+644381711
3008+643462648+642453386+640932258+639393149+638186482+636803299+634978526
2998+633335418+632572951+632847424+633822367+634624449+634165850+632331453
2988+630421929+629752272+630221465+630740270+630556965+629575606+627972486
2978+626381303+625829074+626563489+627483299+627418094+626455311+625407852
2968+624581747+623725352+622771411+622057810+621820677+621828250+621563177
2958+620453310+618149086+615019541+612050024+609963722+608847701+608653615
2948+609336291+610285570+610416614+609172047+606956305+604537973+602514675
2938+601336433+601176964+601494708+601254404+600061838+598648961+597818156
2928+597390779+596716683+595797060+595167875+594769147+593780738+592026057
2918+590647910+590573603+591056150+590615232+588975556+587235162+586362727
2908+586142940+585546395+584028847+582247234+581214845+580982076+580568129
2898+579286744+577665607+576550481+575722249+574258828+572047115+569960962
2888+568637911+567937963+567541734+567315755+567038633+566393334+565429470
2878+564563600+563940646+563261513+562317979+561202965+560050834+559069214
2868+558584466+558568426+558535413+558294773+558148285+558013623+557207512
2858+555492969+553533384+552012107+550976883+550174241+549369920+548231816
2848+546569049+544789897+543452373+542439605+541338989+540371992+540030523
2838+540094385+539946741+539435769+538611678+537299482+535598331+534060565
2828+532966589+532140708+531572886+531391707+531149389+529978719+527713700
2818+525260676+523680945+523362753+524043863+525038203+525466550+524922453
2808+523860222+522818992+521673539+520178634+518626022+517376344+516336010
2798+515349093+514591923+514249820+514109488+513672860+512621708+511103600
2788+509487798+507916907+506325500+504814070+503680143+503053197+502696621
2778+502217356+501363871+500122512+498667633+497302318+496298465+495647645
2768+495046960+494185380+493004900+491734147+490679488+489878115+489039140
2758+487937070+486681797+485480651+484369292+483257411+482019559+480601013
2748+479181683+477972367+476789649+475273668+473569010+472280240+471699996
2738+471517773+471236846+470528991+469361566+468058509+466986616+466042709
2728+464797695+463161226+461498758+460128481+459068003+458238690+457608200
2718+457129346+456727782+456288655+455586955+454441054+453025007+451743548
2708+450670536+449472374+448048904+446813178+446084022+445576333+444811143
2698+443802105+442960930+442375651+441631164+440538345+439540946+439010091
2688+438633782+437943832+436981124+436055570+435258635+434451667+433452104
2678+432222943+431028810+430216992+429803342+429517790+429145771+428573361
2668+427736587+426748663+425811769+424923928+423922015+422767870+421599327
2658+420592005+419839797+419243028+418575049+417773377+417030084+416544105
2648+416337672+416263812+416029663+415303045+413997824+412458864+411247460
2638+410667627+410485292+410183065+409528515+408793093+408369073+408281263
2628+408137722+407505069+406300341+404863255+403667257+402892592+402287394
2618+401552755+400751195+400099852+399574519+399052804+398577567+398156607
2608+397642576+397048269+396599033+396342838+396058704+395562839+394877962
2598+394177903+393670400+393423158+393280661+393002868+392451460+391685412
2588+390960621+390550478+390482886+390502955+390279922+389648127+388753832
2578+387960218+387496023+387239716+386959424+386653840+386475161+386407083
2568+386256194+385926550+385473658+384934485+384349281+383892994+383735913
2558+383811302+383898664+383903327+383912578+383943614+383742888+383006049
2548+381808968+380644976+380035524+380224761+381086751+382101384+382613438
2538+382367315+381680647+381043405+380737785+380804519+381093652+381315081
2528+381266140+381056946+380949328+380980140+380921612+380612858+380156310
2518+379768139+379565958+379498851+379392836+379091021+378607466+378124657
2508+377819111+377694110+377585484+377366219+377133525+377085778+377199998
2498+377201864+376923063+376498447+376102479+375696999+375198672+374714521
2488+374432214+374391517+374470748+374507901+374398791+374143976+373799673
2478+373402063+373015533+372783660+372782802+372877961+372864606+372712710
2468+372559359+372500943+372511275+372524816+372444765+372090277+371351087
2458+370425757+369714992+369465325+369647996+370087161+370542030+370760474
2448+370612345+370172136+369662358+369315592+369216628+369246731+369204169
2438+368948869+368455280+367854483+367406366+367266332+367273494+367133087
2428+366806987+366537027+366473725+366513303+366540310+366567951+366536804
2418+366243716+365648179+365077411+364947598+365317491+365809662+366009605
2408+365892363+365776762+365911984+366233234+366495584+366550009+366462347
2398+366361593+366218649+365910790+365475207+365098375+364867136+364688717
2388+364373584+363663602+362288327+360053337+356789800+352314448+346590464
2378+339857032+332542498+325127696+318027802+311430991+305253704+299338898
2368+293728426+288776644+284923651+282292021+280781151+280654210+282600272
2358+287050202+293794806+302543031+313449942+326133115+338242199+346360493
2348+348417997+345093246+339569055+335117875+332257469+329501211+326029040
2338+322209768+318527397+314971258+311391935+308170979+306205650+305986497
2328+306937510+307993101+308668280+309348643+310697359+313012494+316083624
2318+319390730+322396095+324874709+327042629+329245688+331553418+333802173
2308+335945622+338114325+340309924+342275029+343777245+344865401+345720006
2298+346394103+346852403+347165261+347504603+347981406+348590559+349294162
2288+350040850+350689655+351057982+351115018+351030527+350984347+350995463
2278+350933801+350653136+350149960+349595605+349157895+348857348+348655764
2268+348549377+348514685+348526659+348638344+348849962+348983543+348915801
2258+348805273+348846679+348955454+348940645+348840673+348846866+349004731
2248+349190647+349315723+349406704+349536331+349762199+350089903+350441891
2238+350719050+350926863+351180036+351530122+351846822+351963430+351930454
2228+352012110+352386144+352935911+353377985+353521414+353381864+353122797
2218+352944528+353005107+353370002+353962742+354576520+355033440+355331079
2208+355571830+355827204+356155281+356634621+357264551+357920668+358485505
2198+358958205+359402442+359844666+360252720+360609967+360987806+361480575
2188+362053656+362559480+362939482+363286845+363675800+364064307+364417340
2178+364793426+365255867+365802463+366397030+366987718+367546587+368173421
2168+369057010+370234991+371543345+372914741+374535095+376568501+378920174
2158+381417365+384094615+387148511+390640154+394318758+397776977+400776486
2148+403353355+405626767+407675169+409636171+411744220+414172139+416912058
2138+419826330+422760111+425632604+428486558+431454135+434650266+438084202
2128+441667049+445270600+448716808+451759737+454189372+455891419+456734012
2118+456592672+455578785+453984431+451971094+449599278+447076087+444606724
2108+442080624+439229841+436058703+432868056+429865824+426985349+424140907
2098+421385135+418631414+415521041+411853330+407905252+404088852+400550394
2088+397278054+394324614+391710965+389271108+386803461+384377780+382351275
2078+381006998+380248299+379694615+379022757+378185647+377333766+376574209
2068+375879521+375226687+374666400+374197916+373731595+373224913+372747737
2058+372402165+372232438+372175962+372094008+371903279+371678232+371593145
2048+371739222+371982659+372082817+372034547+372182639+372879490+374140283
2038+375740233+377526994+379487735+381543075+383460507+385111375+386666747
2028+388270240+389622574+390203265+389835013+388787554+387430258+385965308
2018+384401878+382690729+380914935+379291560+377930721+376689549+375342735
2008+373850740+372377881+371052480+369828392+368648359+367585233+366673742
1998+365777246+364824760+364022752+363617123+363550724+363498127+363174527
1988+362544223+361814359+361257430+360955092+360735379+360425617+360064789
1978+359760100+359458956+359039898+358575143+358321634+358429849+358745952
1968+358914449+358689961+358176639+357694203+357418462+357292603+357246422
1958+357284918+357333822+357200652+356761599+356106751+355490324+355158703
1948+355176161+355394829+355611110+355721861+355720183+355612751+355404043
1938+355146318+354925412+354759602+354589688+354406905+354271794+354195249
1928+354157201+354192713+354279628+354286380+354230873+354356994+354746359
1918+355130912+355248229+355127816+354921383+354733415+354625237+354573573
1908+354505831+354448012+354462299+354466813+354341103+354150710+354072635
1898+354156081+354285484+354331777+354276830+354188348+354116914+354078753
1888+354091361+354128291+354124785+354115683+354230090+354481547+354718718
1878+354818316+354793920+354751581+354827679+355077570+355377782+355535535
1868+355509199+355395053+355232861+355034112+354897137+354904075+354994123
1858+355081524+355186232+355334958+355480103+355591974+355693922+355834254
1848+356139428+356728474+357427601+357807193+357743219+357555437+357497245
1838+357605721+357884783+358348492+358976408+359677997+360216909+360331503
1828+360106232+359915988+359953477+360160731+360511003+361036785+361627883
1818+362081633+362390573+362794748+363479476+364341429+365089758+365547798
1808+365832939+366201937+366793334+367575198+368453303+369344353+370202687
1798+371069005+372059018+373230993+374448366+375408948+376000419+376566226
1788+377526472+378981313+380753004+382606052+384389456+386013726+387441971
1778+388789904+390313867+392188924+394288617+396194038+397591471+398601889
1768+399520318+400604931+402078461+403973736+406017177+407843105+409390719
1758+410888496+412534664+414395732+416444954+418577623+420642214+422529021
1748+424203986+425653941+426958528+428383229+430180995+432247787+434197785
1738+435983165+438097668+440905963+443941244+446316232+448041704+449687610
1728+451554162+453721634+456127508+458593178+461132334+464056826+467513256
1718+471062568+473996088+476302625+478606364+481213411+483949973+486614055
1708+489322528+492314763+495568303+498984743+502745002+506931445+511048989
1698+514764336+518455250+522191076+525620983+528931185+532684954+537025718
1688+541694223+546670251+552119725+557567483+562307012+566628714+571067397
1678+575762723+580786051+586128130+591433429+596453922+601462814+606749872
1668+612093071+617152098+622067397+627198605+632563998+637797191+642810746
1658+647991641+653707530+660038019+666458929+671629006+675533627+679823211
1648+685209718+690745809+694813591+697478569+699975835+702709300+705315937
1638+707566781+709678709+711909260+714126159+715991293+717178712+717324789
1628+716349548+714796189+713260513+711739235+710146037+708939669+708385202
1618+707720915+705747977+702563149+699353775+696353595+693055665+689395452
1608+685876914+682867557+680339480+678316257+677038491+676517298+676303181
1598+675904192+675181489+674266678+673267713+672119984+670777237+669459855
1588+668426273+667554658+666477058+665079700+663706141+662975605+663383025
1578+664839098+666428639+667162458+667503703+668662548+670961661+673779132
1568+676487680+679342603+682968871+687533526+692819763+698745816+705362938
1558+712205891+718929849+726320554+735099740+745092008+755443950+765038050
1548+772933460+779223364+784966186+790794133+796234729+800455825+803091782
1538+804682144+806080099+807547811+809047304+810800679+813105164+815756713
1528+818322093+820827789+823793650+827413427+831094978+834089040+836435976
1518+838720467+841157152+843554148+845739712+847802998+850015494+852481276
1508+854871333+856697076+858136511+859888096+862097758+864513031+866694343
1498+868218008+869310156+870679537+872358680+873712991+874427338+874854230
1488+875369902+875891020+876575301+878096728+880750888+883978614+887139420
1478+890113637+892626196+893788622+893045851+891445865+890985848+892234294
1468+894117333+895584821+896517089+897453461+898628869+899782790+900591139
1458+900561148+899357614+898036651+898095813+899777866+902240290+904128776
1448+904490761+903574383+902325266+901477525+901542059+902673225+904099531
1438+904575960+903777459+902747681+902393082+902739102+903653838+904878858
1428+905865738+906305760+906352239+906281439+906347241+906688187+907158873
1418+907380674+907002127+905933181+904446819+902959710+901712756+900886800
1408+900668057+900679845+900034508+898602832+897283510+896669284+896656452
1398+897099235+897769042+897893111+896715540+894534750+892264584+890129080
1388+887632785+884800019+882793061+882757548+884811136+888308486+892254438
1378+895732017+898637821+901550489+904517022+906806138+908098079+908879123
1368+909795277+911375418+913785470+916409639+918266492+919197343+919920045
1358+920811952+921551216+921755187+921541741+921570017+922503255+924376297
1348+926606177+928753170+931024306+933730914+936600386+939038638+940713155
1338+941503077+941277694+940190321+938955602+938410685+938849439+939935842
1328+941234274+942609624+943974081+944939698+945178435+944996846+944987147
1318+945238194+945362785+945054143+944318161+943678718+944042793+945623755
1308+947301704+947818943+947244631+946441429+945741034+945049890+944611882
1298+944817718+945530125+946104586+945985068+944950068+942898272+939961581
1288+936916116+934810230+933827677+932857211+930602637+927080816+923549596
1278+920850672+918549395+916031688+913486750+911297456+909428218+907784737
1268+906313146+904692121+902648009+900374410+898143710+895808935+893112250
1258+890236064+887599063+885196845+882745686+880631892+879793850+880234395
1248+880744174+880614286+880398079+880555870+880638607+880165161+879495056
1238+879448428+880417477+882068792+883815751+885375749+886732970+887853617
1228+888749552+889601546+890516730+891350743+892126564+893412611+895667633
1218+898274046+900091805+901111362+902418224+904370497+906104848+907006752
1208+907561891+908562498+910270961+912512479+915134633+918106388+921290396
1198+924473807+927483909+929865909+930907400+930780571+930954998+932670921
1188+935775325+939119361+941351852+941939667+942008603+943468630+946925842
1178+951144626+954542527+956341934+956873198+957592693+959967157+963817018
1168+967256549+968405620+967055040+964966239+964651255+967295269+971423855
1158+974168437+974604505+974834663+976850574+979842324+982020875+983613252
1148+985841191+988467375+990429943+991468450+991810888+991601919+991453753
1138+992445407+995097628+998668912+1001570538+1002798244+1002842261+1002896723
1128+1003565634+1004751188+1006229717+1007694444+1008785100+1009443194
1120+1010004599+1011000804+1012955092+1015876414+1018870625+1020982778
1111+1022235551+1023181174+1024145150+1025037952+1025691122+1026361227
1103+1027252761+1027888026+1027809168+1027626758+1028258516+1029164151
1094+1028808134+1027584531+1028474275+1033537517+1040512820+1044696315
1085+1044708998+1043785757+1044629245+1046451108+1047786171+1049151598
1077+1051305082+1052894773+1052131858+1049433681+1046743635+1045823751
1068+1047604357+1051389535+1054755803+1055808858+1054930604+1053723265
1060+1053726846+1056024169+1060260560+1064219046+1066121706+1066497344
1051+1066841200+1068143735+1070695910+1073418633+1073741823+1070792300
1043+1067427673+1065828507+1064407126+1061309586+1057825366+1056545213
1034+1057778365+1059409313+1059454747+1057743524+1055965604+1056068559
1025+1058090066+1060360083+1061614349+1061681270+1060621501+1058913486
1017+1057718308+1057595656+1057845584+1057743524+1057276942+1056100789
1008+1053443794+1049658243+1046218563+1044312918+1044064557+1044773830
1000+1045644102+1046318161+1046464388+1045506455+1043798440+1042939881
991+1043393109+1043252403+1041197025+1038901941+1038423795+1039057344
983+1038671559+1036424222+1032754981+1028584915+1024986624+1022469290
974+1020892654+1019997166+1019287520+1017869048+1015066647+1011006400
965+1006029029+1000347010+994531597+989607718+986198700+983570055+980140670
955+975357721+970421756+966631803+963890504+961537302+959725585+959009075
945+959140828+959154481+958608445+958012572+957576205+956363868+953757977
935+951003920+950001373+951172678+953309226+954836323+954657046+952479092
925+949289414+947007386+946755294+947900412+949249053+950452810+951695064
915+952690151+952759384+951932160+951155817+951075765+951140000+950412673
905+948761358+946739776+945063767+944436783+944952008+945607267+945097862
895+942992573+939862654+936690211+934418552+933656757+934362673+935589781
885+935790097+934179069+931579296+929314725+927979960+927681017+928511971
875+929993708+930928513+930494683+929138731+928018904+927690715+927833137
865+928250405+929245864+930605696+931030648+929628142+927448472+926306562
855+926730246+927953923+929398880+931082573+932469039+932309160+930395458
845+928417222+928102835+929261083+930232221+929643137+927565826+925477920
835+925047074+926432869+928041435+928700200+929256532+930783182+932420322
825+932656672+931927404+932070274+933615574+935058890+935065604+934703768
815+936308455+940145483+943754741+945018108+944245271+942721233+940952191
805+938583247+935007487+930624347+927701011+928582324+932847736+937332861
795+939378988+939326988+939275212+940471583+942563144+944408732+944976404
785+944207223+943257795+943058748+943041663+942207351+940566257+939081238
776+938579666+938736263+938270054+936411186+933988601+932433826+932186360
766+933082967+935230482+938441571+941768299+943835912+943889479+942743615
756+941797171+941135123+940074608+939167407+939486643+940458080+940768736
746+940860352+942250175+944992892+947625864+948908032+948465547+946669722
736+944764823+944114264+944685145+944991773+943993404+942444074+942183105
726+944159102+947010370+948297014+947321847+945292656+943060464+941196747
716+941279037+944003102+946862278+946227461+941618641+936312260+933795373
706+933932423+933422794+930603159+927623123+927060971+929150817+932359892
696+934302242+932896677+928305314+922136943+915108969+908204765+903688828
686+902220669+901821232+901040039+900179840+899029723+896672642+893080170
676+888932186+884625070+879432537+871044134+858891070+850266467+854448843
666+866193144+874501421+876726899+875169437+871828087+867926973+864563316
656+861859020+859842587+860007763+862432736+863222210+859133015+852711135
646+848007939+844812069+840949078+837167929+836128751+837583779+838046407
636+836169336+835311151+838689655+843872638+844981945+840516516+834957223
626+833140881+835199019+837104365+835941939+832776135+829973660+828152692
616+826261073+823588485+821787064+822777077+824682200+825102377+826055535
606+830971282+839799036+848422371+850483792+842640307
##END=
