##TITLE=<SNM>
##JCAMP-DX=4.24
##DATA TYPE=INFRARED SPECTRUM
##DATE=2/5/2025
##SAMPLING PROCEDURE=Instrument type and / or accessory
##ORIGIN=Admin
##XUNITS=1/CM
##YUNITS=ABSORBANCE
##RESOLUTION=4
##FIRSTX=4497.3318
##LASTX=599.83466
##DELTAX=-1.4281778
##MAXY=1.7642727
##MINY=0.31690818
##XFACTOR=1
##YFACTOR=1.643107e-09
##NPOINTS=2730
##FIRSTY=0.33524483
##XYDATA=(X++(Y..Y))
4497+204031044+204226896+203988965+203750525+203632721+203415593+203192317
4487+203508114+204436351+205229952+205356645+205144505+205023562+204861048
4477+204356654+203572013+202760003+202051632+201644366+201958458+203172565
4467+204682935+205446898+205061035+204294024+204213728+204907807+205414559
4457+204954802+203892490+203187438+203206156+203550702+203870162+204245342
4447+204707765+204913919+204549731+203780435+203162498+203255019+204148378
4437+205172292+205409153+204668007+203502600+202366685+201456223+201129978
4427+201560986+202092079+201792751+200692005+199779965+199743544+200326583
4417+201062959+201887194+202663328+202981139+202824682+202546920+202117290
4407+201356755+200679436+200659811+201235994+201910901+202209757+201824782
4397+200945009+200249461+200081469+200087618+199988658+200090883+200719720
4387+201601071+202105882+201950350+201426839+200912905+200441305+199861530
4377+199082186+197995080+196618186+195510439+195493625+196624969+197948357
4367+198538107+198308990+197707124+197206684+197095935+197251612+197267591
4357+196965742+196460913+195961689+195854785+196407951+197205959+197587832
4347+197531460+197328026+196860779+196071440+195562494+195881502+196647025
4337+197021226+196704268+195997130+195185972+194405848+194003769+194442196
4327+195615964+196608682+196504462+195384871+194260582+193977614+194408641
4317+194927690+195330984+195744833+195938672+195440372+194323466+193340362
4307+193122527+193603613+194379113+195274430+196329777+197492228+198455253
4297+198593880+197422433+195525747+194308357+194383955+195042575+195521739
4287+195719422+195530717+194739837+193665427+192959903+192871300+193246136
4277+193845698+194303369+194286102+194010734+194151193+194942273+195750257
4267+195838406+195254079+194634094+194398466+194464233+194612999+194831142
4257+195235742+195884313+196679764+197308129+197414707+197053057+196678004
4247+196513440+196374722+196203157+196166410+196247014+196298380+196321869
4237+196317788+196255884+196286500+196489662+196572987+196267456+195737941
4227+195332054+195211129+195245954+195108723+194688833+194409076+194759172
4217+195631091+196499293+197062797+197351460+197399634+197186080+196828947
4207+196606614+196774080+197418897+198341203+199057936+199242633+199097984
4197+198865458+198216578+196782913+195029642+193951514+194049712+194922230
4187+195715885+195934518+195851157+195970050+196264753+196339209+196026948
4177+195470155+194998554+195065120+195844355+196897091+197590952+197678720
4167+197283498+196702690+196334384+196415931+196833463+197370197+197899167
4157+198208598+198076301+197657717+197353437+197230010+197017145+196693839
4147+196639842+197115977+197874536+198393676+198347442+197828792+197253770
4137+197067767+197361146+197680335+197437651+196657962+196061610+196228332
4127+196950126+197525166+197454828+196830198+196175279+195832620+195554659
4117+194989957+194448417+194686548+195887578+197293202+198005473+197822807
4107+197091836+196125146+195199938+194821765+195374260+196575199+197674331
4097+198093405+197697892+196686094+195441152+194400588+193920299+194134162
4087+194858295+195730849+196480756+196901915+196727557+195945619+195088971
4077+194753640+194943959+195204944+195207665+194931608+194493870+194103491
4067+194118110+194851203+196125963+197160306+197218674+196435593+195696097
4057+195629495+196015485+196325932+196490641+196757248+197115306+197352857
4047+197489888+197632106+197567155+197110373+196662406+196718579+197001582
4037+196817774+196198677+195951858+196573240+197714397+198712193+199168921
4027+199022313+198493125+198055188+198101276+198498730+198726558+198491765
4017+197982637+197527850+197250469+197063069+196865132+196769999+197086322
4007+197908961+198867815+199520885+199860188+200145223+200331245+200057727
3997+199297772+198567472+198253579+198241373+198396741+198779013+199264725
3987+199619209+199867298+200019637+199840726+199408467+199334283+200009807
3977+201130069+202129987+202655112+202588583+201987642+201103515+200348602
3967+200144824+200733813+202038790+203585889+204646713+204755576+204116401
3957+203331615+202873691+202984349+203894830+205756365+208057814+209458940
3947+209160156+208231375+208239138+208994631+208919450+207307363+205004100
3937+203353127+203546330+206100058+209949114+212572581+212276754+210260848
3927+209188052+210143986+211734942+212234438+211979621+212476524+213895098
3917+214465803+212520943+208767310+205509020+204118741+204387506+206085385
3907+210041000+216946526+225440288+232279086+235133012+233848113+229027507
3897+222267101+216866575+215743774+218681841+221720174+221339825+219823451
3887+221468041+225932058+229086146+229688557+229762250+228605658+224549795
3878+220587977+220906313+225510463+231615714+237246082+240501760+239149969
3868+235238846+233484977+234407029+234122429+230492079+226064700+224226508
3858+226904679+235520199+249561367+260000533+255331577+241252864+228621892
3848+221798729+221425616+226321676+233902563+241560191+247951384+251823239
3838+251323525+247046780+242477020+239498632+237205454+234846997+233319306
3828+233115546+233608096+235639945+241458184+249568223+253261439+250620631
3818+247033123+244169547+239069837+232072116+227277773+227453274+232612730
3808+239892567+245282572+248923424+254060045+259566877+260165550+255981472
3798+251714213+248294479+244343724+240757920+239606243+241210512+244572170
3788+249025758+254093763+258850144+263237185+268833707+276228664+283047401
3778+287107907+290122679+295585599+305606997+320188181+336831087+351765957
3768+363848334+374314344+382951268+389332903+395328130+402339146+408695533
3758+412629038+416224346+423653656+437438881+455884465+471824858+479957224
3748+485009686+493765521+506681692+517032708+521569875+526189896+536382642
3738+552624304+569883931+579932228+579497755+574061280+570367847+570161983
3728+571616198+572649979+572099715+569671501+565580451+560243480+554542919
3718+549893950+548161792+551347186+559611958+568059233+568760404+560632499
3708+550188254+543156815+541861560+545412829+549787191+550974926+549355730
3698+548363303+550484698+556453190+566180884+578817262+590948284+596014385
3688+591347606+582781347+576240209+573271162+573937363+578644481+587863845
3678+600661613+611279871+611647996+604664658+599376224+595845051+587904728
3668+575641335+565201407+559537992+557141810+555536180+554491444+555666119
3658+558986568+561520779+562451900+565740099+574451714+585488956+589680344
3648+581950782+568679799+557644408+551200488+547696848+544627173+541721753
3638+540933195+543177311+546876694+550501820+555261828+562959686+570407714
3628+570304981+563291172+557308532+557533513+564355207+573899963+580241150
3618+581758920+582908058+586824405+591557025+593989193+594180510+593697574
3608+592513865+590294054+588643262+589851601+594049447+598649153+601382227
3598+602946611+605033327+607478990+609080991+610354409+613572342+619571234
3588+625398034+626714764+622994632+617365897+613296576+613042211+616221765
3578+619691959+620798074+620143445+620015319+622075917+627380131+635768639
3568+643550910+644799660+638939995+631681906+627053723+624520382+622220366
3558+620404121+620691133+622825370+623991122+622154127+619288357+619125770
3548+622249677+625210199+624503115+620129442+614449631+609535016+606450323
3538+605293024+605091731+604799168+604941622+607188531+611749422+616136372
3528+617819631+617115958+615362687+612280424+607631891+603377927+601710267
3518+602354267+603055873+601969528+599099695+595989718+594494330+595268922
3508+597070186+597850328+596790211+595033131+594031200+593614756+592679391
3498+591170545+590181927+590121637+590084128+589269306+587843240+586465168
3488+585784638+586073101+586719750+586483559+584707435+581961882+579343040
3478+577513372+576310765+574964796+573059530+571324288+570830215+571508097
3468+572288674+572699205+573244935+574143807+574851725+574829343+573841958
3458+571878035+569656410+568355967+568189390+568291578+568184601+568159462
3448+568282836+568190805+567672934+566620762+564818083+562469131+560411254
3438+559226567+558734597+558642204+559005612+559759926+560412052+560639174
3428+560619730+560297567+559151730+557336646+556036566+555786482+555401888
3418+553605703+550782629+548141768+546151001+544706000+543920525+543783476
3408+543862665+544089206+545024318+546599367+547460404+546662196+545150956
3398+544451091+544755588+545188791+545189118+544678176+543489063+541650037
3388+539815871+538634956+538063253+537721211+537463546+537259278+536919956
3378+536331711+535783007+535953611+537458539+540002183+542132393+542602089
3368+541854631+541191042+540948685+540711551+540710354+541485092+542445524
3358+542400832+541491041+541153605+542132030+543588168+544241817+543633222
3348+542056686+539971675+538114619+537462820+538216264+539329416+539793743
3338+539797879+539902135+539882147+539288751+538306445+537244876+535925389
3328+534365322+533362701+533517017+534236180+534589831+534736167+535309901
3318+535827844+535177495+533496449+532269972+532657504+534406023+536143078
3308+536567249+535578485+534083497+532793973+531724025+530789638+530372070
3298+530962745+532350721+533411129+533242738+532520273+532837540+534635284
3288+536444347+536469486+534606010+532519983+532011291+533551951+536157734
3278+538471499+540002255+541275999+542718243+543539994+542368873+539130408
3268+535439042+533025266+532330987+532630914+533102170+533576437+534397208
3258+535622669+536556584+536405024+535286068+534170413+533871684+534353822
3248+534775090+534138236+532315171+530264477+528907626+528328958+528280058
3238+528633890+529072353+529158181+528845268+528348837+527782176+527355466
3228+527367147+527591403+527284403+526057889+524302043+522651504+521359114
3218+520333350+519536194+518923645+518126381+516832540+515407744+514485438
3208+514144193+513936407+513408634+512471527+511634903+511592461+512145337
3198+512054902+510453698+507983150+506184063+506021114+507082065+508183174
3188+508682942+508735832+508352581+507166370+505272857+503419647+502247874
3178+501877790+501951430+501728661+500666186+499122371+497938372+497272933
3168+496476938+495160933+493622087+492058283+490213380+488124742+486552595
3158+486239355+487074782+488215685+488781438+488341670+487030816+485424425
3148+484228999+483823801+484009278+484310946+484403122+484044574+482949487
3138+481125153+479128400+477667474+476940911+476430949+475449803+473960292
3128+472671602+472243333+472633694+473187550+473214539+472608483+471872560
3118+471454920+471357846+471409321+471318524+470548647+468947008+467294329
3108+466447041+466291237+466149073+465667696+464803612+463562698+462195725
3098+461145257+460536807+460039433+459329483+458492425+457917239+457884664
3088+458265122+458568168+458314892+457440397+456307801+455255011+454270855
3078+453275453+452417899+451857224+451532593+451330321+451234517+451236512
3068+451299632+451383428+451362280+450973043+449992296+448587090+447408750
3058+447020420+447161786+446982295+446136058+445104272+444354529+443921870
3048+443884941+444408652+445082724+445037053+444092873+443075198+442621209
3038+442408054+441955843+441414031+441014528+440454578+439391922+438068190
3028+437008399+436412718+436000337+435300545+434137768+432840263+431856506
3018+431287524+430958033+430740452+430563427+430276705+429745848+428990808
3008+428157921+427492845+427253354+427362761+427245699+426389306+425001511
2998+423767525+423059970+422693659+422327748+421830156+421264728+420678225
2988+419987683+419114058+418161716+417320739+416662846+416185459+415954130
2978+415998241+416074202+415746126+414838583+413689772+412842738+412545786
2968+412581989+412522932+412113526+411384460+410454644+409483547+408773199
2958+408488690+408339452+407982392+407503518+407073688+406554295+405794177
2948+404867299+403842369+402750656+401765085+401078715+400752090+400821703
2938+401242354+401630503+401428049+400515138+399462094+398926123+398854152
2928+398583971+397750468+396677110+395785275+395084467+394373430+393557991
2918+392696011+391990306+391662592+391627151+391504757+391150454+390849693
2908+390796803+390759113+390463685+389935512+389265865+388439254+387529608
2898+386738655+386166698+385746228+385376653+385020717+384688287+384307249
2888+383691725+382843820+382113919+381740172+381474743+381026160+380552219
2878+380330793+380324118+380395327+380511518+380452353+379811762+378597401
2868+377401251+376703853+376344906+375892803+375280726+374813569+374618443
2858+374389580+373819509+373043285+372419200+372065005+371847751+371679613
2848+371604559+371608187+371425902+370682761+369386707+368119493+367467512
2838+367393800+367385166+367061769+366445810+365766514+365161691+364542068
2828+363741757+362817092+362093866+361833952+361903964+361859744+361365235
2818+360494585+359641710+359146585+358979536+358827070+358514773+358190905
2808+357991643+357745731+357210195+356419750+355620200+354990493+354546915
2798+354238754+354050157+353959867+353830799+353482372+352903632+352247987
2788+351561581+350690024+349607597+348703319+348426573+348619088+348562679
2778+347848921+346815212+345932700+345220139+344508993+343844243+343309287
2768+342781877+342160258+341620405+341417226+341533308+341646270+341400938
2758+340710433+339835684+339110680+338586570+338042945+337312101+336483857
2748+335830715+335562857+335595577+335595940+335325288+334833971+334256138
2738+333556382+332596530+331401831+330258135+329458875+328983774+328569108
2728+328088420+327678361+327481276+327448700+327410357+327202788+326765885
2718+326199914+325639601+325058576+324372931+323703937+323254519+322952380
2708+322546021+322009904+321512421+321082773+320649897+320272159+320014929
2698+319737167+319277374+318730048+318303447+318003485+317658432+317173645
2688+316588883+315957470+315341184+314884148+314726168+314813701+314874100
2678+314623617+314032761+313386185+313019511+312984614+313015956+312813829
2668+312322114+311715840+311170908+310744054+310438940+310209062+309899885
2658+309387420+308769574+308257762+307935599+307733653+307535770+307209870
2648+306622351+305745534+304776106+304055183+303766067+303763600+303771834
2638+303620656+303248251+302694124+302159694+301891653+301939211+302106133
2628+302125304+301857174+301370156+300866723+300520800+300340691+300161418
2618+299818378+299342388+298881706+298477723+298074284+297686190+297389583
2608+297189233+297000001+296733721+296368226+295942949+295502002+295087227
2598+294777325+294641436+294647658+294681793+294638589+294471413+294200851
2588+293882950+293538822+293141550+292695851+292281547+291970121+291715267
2578+291401103+291011539+290647550+290360919+290104705+289847475+289589555
2568+289278819+288843476+288294916+287730831+287283318+287071015+287102829
2558+287218294+287234509+287160742+287143312+287203693+287200228+287054364
2548+286831360+286589584+286324391+286052542+285817621+285636733+285496020
2538+285330368+285023150+284557027+284150940+284097561+284441417+284918441
2528+285227654+285263802+285091711+284845055+284652142+284516417+284306871
2518+283983256+283711335+283623040+283607042+283470410+283203640+283000497
2508+283046857+283286167+283383639+283010799+282213426+281411046+280992988
2498+281030098+281390460+281910325+282348298+282418201+282062610+281552847
2488+281206742+281086416+281002039+280771599+280451703+280240597+280174902
2478+280103276+279952732+279806433+279717431+279621899+279438036+279163539
2468+278888878+278736140+278776605+278986024+279214615+279228635+278931992
2458+278535826+278345071+278393953+278440095+278293197+278006947+277733247
2448+277517680+277301677+277054386+276850989+276832942+277047675+277305214
2438+277331405+277129132+277002875+277138782+277355728+277373666+277168981
2428+276952506+276886703+276935965+276974090+276952035+276947555+277059392
2418+277231828+277266671+277115456+277003982+277093727+277228165+277215631
2408+277126049+277119374+277200541+277293189+277379542+277467202+277524935
2398+277520310+277479010+277475618+277576446+277782800+277995266+278053071
2388+277880472+277536706+277012053+276061325+274384432+271898195+268738393
2378+265108768+261225432+257311026+253555887+250111232+247072445+244349945
2368+241663812+238944232+236679168+235518694+235605320+236714174+238967322
2358+242859582+248522162+255538910+263536766+272085014+279912956+285286638
2348+287281032+286434905+284469494+282933768+281829594+280272356+277930097
2338+275144532+272351984+269747271+267293265+265016211+263233249+262260102
2328+261946264+261765557+261371477+260911939+260773565+261135197+261867782
2318+262751219+263609898+264321353+264905099+265573077+266501279+267580658
2308+268565087+269382919+270085613+270600654+270804142+270770605+270738120
2298+270870218+271173318+271574181+271986490+272325340+272511524+272522225
2288+272452195+272431935+272468719+272468719+272374547+272164439+271814072
2278+271397102+271100477+271011221+271013688+270988784+270959818+270939667
2268+270806082+270489487+270159507+270047977+270160522+270313097+270401519
2258+270498847+270695424+270950006+271134794+271182496+271130821+271013651
2248+270780418+270404439+270048776+269981013+270251320+270588683+270746536
2238+270803852+270945181+271127829+271197097+271160132+271126142+271118669
2228+271098699+271044739+270942533+270813954+270756367+270853477+271065816
2218+271253560+271280621+271122569+270907618+270796234+270810744+270848597
2208+270832056+270766306+270697383+270684541+270777225+270971680+271185416
2198+271286988+271211879+271068137+271026293+271093730+271135211+271100060
2188+271066178+271092605+271166770+271245198+271280857+271289273+271373668
2178+271579677+271796224+271906574+271929809+271913993+271810063+271564768
2168+271267453+271106354+271187647+271446582+271739145+271965196+272089022
2158+272118188+272106489+272107432+272106725+272081260+272102100+272251954
2148+272470823+272636620+272769933+272994316+273313015+273578624+273681774
2138+273654223+273598431+273592010+273649035+273733775+273817553+273913158
2128+274035642+274172111+274308652+274438464+274544951+274645036+274822967
2118+275120717+275435317+275649996+275829379+276134656+276571849+276978716
2108+277247427+277415782+277531211+277562172+277479572+277334089+277211550
2098+277169725+277254482+277533333+278036983+278646013+279104700+279226150
2088+279066846+278850589+278759465+278842518+279049452+279270425+279389844
2078+279386398+279377728+279519311+279840205+280187743+280378335+280438788
2068+280624338+281081084+281553464+281621880+281231011+280767100+280595880
2058+280711653+280858460+280859222+280792203+280892541+281289269+281854987
2048+282342258+282638158+282851168+283144438+283491994+283672048+283567466
2038+283346058+283229577+283237159+283277406+283343845+283500320+283761087
2028+284053377+284272046+284369519+284414682+284596277+285147865+286108044
2018+287081136+287476267+287152943+286586536+286294482+286397142+286762727
2008+287255404+287757947+288174228+288513513+288899920+289445269+290095128
1998+290693058+291338818+292474352+294228566+295851553+296364200+295696348
1988+294587730+293641917+293025088+292728317+292684805+292791672+292971382
1978+293144743+293229700+293214845+293124592+293051369+293331417+294278481
1968+295519215+296114533+295683525+294846702+294302768+294124092+294109274
1958+294213820+294394454+294452459+294264969+293966856+293823186+294039135
1948+294744096+296108148+298178794+300259724+300889214+299367128+296871604
1938+295112547+294638516+294904180+295219923+295286235+295182740+295106272
1928+295269548+296097193+297886431+299983794+301302212+301909519+302558689
1918+302776995+301455766+299145375+297645543+297819575+299020660+299966309
1908+299838601+298890630+297988456+297622182+297662412+297885434+298350160
1898+299246276+300414548+301261910+301690161+302583918+304324148+305569489
1888+304948814+303162876+301775608+301226686+301063591+300958700+300902074
1878+300995719+301308741+301882367+303180778+306260030+311516397+316890913
1868+318607654+315527532+310646037+307112470+305651254+305430190+305599235
1858+305796429+305937976+306041688+306235544+306853535+308283627+310692941
1848+314259628+319116020+323797528+324810342+321038952+316146901+313598034
1838+313435955+313803971+313903910+315218283+319440578+325402831+329233966
1828+329240387+327710066+326205500+323895508+320734527+318382456+317785831
1818+318239639+318775211+319518607+321303800+324079534+326255198+326330760
1808+324816726+323596706+324205556+327131870+331514213+335162302+336196554
1798+335262023+335104333+337980660+343423120+347308016+345439207+339664136
1788+335219508+334397068+335962831+338073380+340193723+342059449+342966991
1778+343321911+345190284+350376820+358141244+364221392+364437740+359911746
1768+354252575+349733727+348088158+350169360+353962661+355972509+355886898
1758+355799583+355992497+356256800+358615547+364933808+373140793+378059616
1748+377492556+374186872+371382879+370497610+371544414+373267069+373919920
1738+374302374+377999144+386195900+392925889+391146500+383945763+376943489
1728+371759529+368974653+368902791+370667960+373941613+380593900+392270498
1718+405753403+412146029+407441051+397905945+390071763+386546540+387978228
1708+393824725+401523780+407525900+411899355+418532126+428511100+436312379
1698+437457273+433591276+425853516+416598456+411017387+411332694+415757770
1688+422742523+433685702+448150840+456724970+451840573+441578613+434925419
1678+434407839+438874704+444571602+448336861+451652013+456428453+459165844
1668+455589726+449596203+447716548+450688316+453783747+453171197+451225267
1658+452977196+461831119+478803879+497975663+503320941+495880278+492558669
1648+496753177+499755851+493446150+482852269+476164904+475772402+481548090
1638+492756733+505099025+508856956+501079655+491714427+488123073+490214070
1628+494540294+498653944+502733132+506249686+506939720+505801574+507366429
1618+513180243+518180467+516546507+511231410+508144903+508742253+511130238
1608+513004306+513675658+513953384+514555014+515257491+515651697+516134453
1598+517503130+519778443+522035327+523466399+524137279+524501450+524738220
1588+524880348+525180165+525995640+527365660+529073477+531580047+536448374
1578+544403316+551779518+552330290+548038092+546816839+550926281+555518006
1568+555583883+553030590+552068308+554755058+563370216+580945223+603549910
1558+612080183+601424597+588749187+581470457+578798689+578863622+580100147
1548+582689860+589006163+600770621+616901424+634740372+649092149+650146679
1538+639158301+630630059+631081037+636659132+640154646+640746663+643881526
1528+652081909+662802138+673285996+684231061+695655835+703462991+705772294
1518+706026223+705919790+704684099+703745432+706386657+714738817+729113302
1508+746212156+754034112+743637243+727977079+719658002+720155340+726473892
1498+733506564+735878188+733358124+731728916+735633909+744089889+750868125
1488+750444209+744664422+738952761+736269312+736554292+738549159+741763900
1478+746886591+754422406+763576183+771471852+773288024+767956313+761779817
1468+760627342+764434391+768332128+768274813+767054285+770572435+781043524
1458+793551704+796347752+786358040+774253825+766744347+764183872+764796711
1448+765506116+763666800+760006304+757283678+756724816+758093348+761657713
1438+767314381+771731657+770880487+766822194+764344500+764315262+764163340
1428+762477686+760945261+761100521+762573236+765269890+770057032+775191694
1418+775390629+769439041+762442499+758062877+755828664+753861803+751739392
1408+750784111+751913732+754010097+755401193+756563390+759195690+763395821
1398+767794669+771368176+772955522+771085009+767097526+764964594+766419680
1388+768875101+768653385+766209790+765557120+768997567+775396143+782546493
1378+789704969+797293456+804629247+809521516+811195053+811680783+812716596
1368+813959615+815199223+817652831+821529238+824327681+823693076+820577730
1358+817319313+814832695+812867502+811267459+810163521+809487635+808875593
1348+808065995+807295212+807302902+808871821+812080395+815785364+818069274
1338+817797062+815743212+813815093+813505154+814950881+817066617+818844048
1328+820433861+822501423+824996530+827354007+829653805+832686878+836720649
1318+840784964+843605535+845068674+846277231+848261069+851042172+853927676
1308+856421985+858702340+861246781+864190689+867143375+869369752+870137633
1298+869484745+868711423+869167407+870487112+870986046+869821528+867727774
1288+865538544+863094804+859874984+855908540+851645943+847479403+843891096
1278+841550887+840646247+840596114+840852509+841296522+841681769+841676183
1268+841553861+841847041+842393858+842657509+842731729+843187713+844318713
1258+846029614+847983706+849620025+850543456+851233998+852783400+855450162
1248+858034506+859300959+859514187+859847052+860921099+862685760+864987663
1238+867391645+869028689+869502085+869675047+871002588+874145431+878222007
1228+881432758+882848521+883422763+884672457+886855448+889185065+891231152
1218+893127059+894869157+896374085+897875241+899501257+900876174+901864901
1208+903230604+905696327+908696897+910956139+912392652+914525511+918350189
1198+922707756+925663054+927023098+928235137+930138589+932246925+934004187
1188+935632452+937708793+940549533+943858010+946772027+948654221+950085655
1178+952369275+955838018+959393241+961846703+963198113+964260988+965816484
1168+968284747+971410467+974088620+975056308+974469441+973907750+974256939
1158+975096864+976364550+978793997+982337105+985559246+987265722+988059286
1148+989663392+992915497+996814105+999755328+1001287826+1001907123+1001835370
1138+1000949157+999619005+998843578+999171292+1000057141+1000742604+1001481610
1128+1003345522+1006716538+1010598532+1013522633+1014676414+1014457817
1120+1014442799+1016250266+1019903289+1023732973+1026108153+1026745805
1111+1026293230+1025612483+1025902905+1028231289+1031897081+1034493831
1103+1034940529+1034995232+1036283015+1037765525+1037374329+1034637918
1094+1031116866+1029404296+1031547529+1036913847+1041566770+1042523211
1085+1042525751+1046431614+1053496136+1057840862+1057353173+1056312427
1077+1057915081+1060169463+1059948690+1057451189+1055322757+1055395453
1068+1056917068+1057374430+1055419250+1052093868+1049046792+1047447910
1060+1048421111+1052388135+1057599484+1061673013+1064470730+1067475944
1051+1071104807+1073691980+1073647869+1071696896+1070144229+1070533321
1043+1072272009+1073255585+1072083376+1069296107+1066285307+1064312786
1034+1064583765+1067555242+1071638565+1073741823+1072073364+1067843270
1025+1063720914+1061511442+1061559180+1063522704+1066693697+1069464715
1017+1069881377+1067594492+1064368288+1062279831+1062072770+1063215305
1008+1064742434+1065651935+1065129422+1062911171+1059362549+1055477000
1000+1052246153+1049976971+1048689551+1048409939+1048476976+1047994946
991+1047229677+1046920173+1046633887+1045330941+1043139896+1041149963
983+1039681383+1037838294+1034842440+1031201460+1028265098+1026580751
974+1025331710+1023416287+1020730372+1018150816+1015989445+1013361860
965+1009580930+1005341694+1001799674+999231944+997011081+994439216+991537025
955+989370575+988949126+989271108+987767703+983338093+977359951+971452547
945+966233653+962097875+959404051+958016511+957469258+957332644+957647806
935+958827197+960518727+961379909+960694809+959209324+957963403+957376247
925+957377480+957329524+956168343+953623031+950767926+948825587+948254900
915+949042878+950824153+952514522+952733917+951110585+948732939+947050696
905+946558436+946622209+946601532+946687650+947270453+948231683+949033591
895+949082853+947905929+945800785+944147417+943965966+944644827+944777668
885+943823621+942168149+940188664+938205406+936651142+935460578+934020511
875+932301992+931204801+931265599+931847459+932313672+933151711+934910568
865+936811698+937705020+937927317+938757592+940325713+941326701+940618021
855+938111960+934506676+931189275+929806885+930895370+933172678+934534390
845+934050619+932990792+933248059+934796735+935592113+934355697+932215075
835+930929179+930775588+930925043+931124487+931997422+933804889+936021253
825+938411161+941148878+943406234+943791481+942576322+941383508+941004937
815+941228031+941978863+943073370+943973584+944958248+946899572+949116952
805+949823093+949297750+949593758+950880743+951135543+949463384+947114396
795+945599093+945651765+947233234+949502634+951394042+952553700+953259477
785+953461460+952885912+951949494+951176607+950076877+948083171+946252633
776+946553358+949261257+952287727+953824433+954044046+953792221+953057495
766+951122846+947993643+945277328+944715347+945958874+947236354+947697562
756+947477224+946301097+944076534+942254848+942746382+945711982+949224183
746+951044926+950680792+949459902+948892769+949591654+951240524+953149200
736+954928952+956688680+958218058+958438831+956419588+953072078+950767999
726+950902291+952995682+955992479+959484075+963135502+965690245+965991478
716+964226961+961248882+958364466+957650490+960098946+963135647+962539639
706+957252185+950446815+945531838+943257504+942828074+943316851+943638108
696+942152260+937535396+930594936+924240979+920896879+920081912+919516159
686+918779402+919886605+923800666+928491098+930466738+927650956+920616759
676+912187695+905826991+901825796+896776599+888758827+882299091+883850380
666+890176694+894445458+895467704+895345310+895489759+894709690+891258867
656+886430588+883528760+883194009+882067725+877115965+870146847+865178037
646+863275238+863057222+863915212+866678104+871507544+875740540+875589126
636+871574581+868981386+870794656+873896363+873699314+870508732+867981196
626+867218393+866209497+863753786+860670652+857696781+855044166+853674328
616+854859741+858470103+861710818+860360278+853613095+845106691+838659434
606+837026598+842844038+855444068+867404704+870346000
##END=
