##TITLE=<SNM>
##JCAMP-DX=4.24
##DATA TYPE=INFRARED SPECTRUM
##DATE=2/5/2025
##SAMPLING PROCEDURE=Instrument type and / or accessory
##ORIGIN=Admin
##XUNITS=1/CM
##YUNITS=ABSORBANCE
##RESOLUTION=4
##FIRSTX=4497.3318
##LASTX=599.83466
##DELTAX=-1.4281778
##MAXY=1.8672487
##MINY=0.38136896
##XFACTOR=1
##YFACTOR=1.7390108e-09
##NPOINTS=2730
##FIRSTY=0.40004763
##XYDATA=(X++(Y..Y))
4497+230043209+231133017+231935790+232026156+231469050+230586159+229651308
4487+228854996+228251944+227885407+227874850+228117775+228252081+228215150
4477+228400201+229053243+229952825+230764629+231296252+231400962+231121467
4467+230942362+231387389+232279894+232771055+232354888+231458630+230691932
4457+230150164+229892381+230313690+231387287+232271188+232274170+231537360
4447+230433978+229163574+228180721+228103105+228940187+229982576+230464329
4437+230081408+229188149+228587291+228664136+228874687+228630512+228360767
4427+228878303+229995618+230722111+230720620+230695497+231248061+231964649
4417+231843813+230483351+228737313+227983776+228688420+229919818+230387604
4407+229583700+227822204+225873754+224751281+225141331+226722061+228374220
4397+229224601+229302302+229090174+228686243+227837970+226710596+225929348
4387+225767742+225995345+226444759+226916709+226771794+225532683+223771718
4377+222756972+223188066+224490945+225375481+225224808+224752618+224883771
4367+225432994+225521733+224789447+223545452+222192222+221018422+220246651
4357+220016512+220404145+221347531+222492368+223439765+224174210+224795736
4347+225001917+224501742+223714599+223278912+223093364+222615416+221848084
4337+221306281+221254234+221478907+221622520+221535153+221408472+221484991
4327+221653659+221614705+221328320+220958355+220585237+220282520+220169670
4317+220188727+220148282+219993239+219767247+219484221+219302237+219541631
4307+220311226+221337231+222229736+222772138+222966409+222892838+222567465
4297+222025491+221504579+221275725+221353135+221655355+222166876+222615347
4287+222487604+221796071+221232007+221183988+221295245+221235795+221228374
4277+221527646+221956204+222279538+222588201+222939281+223000050+222445480
4267+221487956+220746690+220743742+221558751+222746689+223644215+223924276
4257+223744418+223418874+223260917+223530199+224080742+224320667+223918415
4247+223290240+223062328+223332672+223663203+223608398+223188494+222886000
4237+223101881+223598955+223698849+223114854+222266325+221685003+221513028
4227+221693966+222131435+222550413+222732465+222865641+223224911+223737237
4217+224194878+224536874+224678567+224484485+224031283+223559590+223226300
4207+223101281+223203027+223402422+223465145+223291456+223029355+222905108
4197+222986015+223128582+223189557+223251560+223538939+224074487+224539770
4187+224606075+224345893+224150234+224186600+224212341+224127493+224344745
4177+225160234+226063278+226269442+225763371+225242665+225166849+225326313
4167+225286023+224946323+224596187+224504278+224626126+224823002+225131134
4157+225525211+225657941+225221672+224417443+223738574+223420725+223359115
4147+223399166+223419559+223282425+223010264+222880687+223107074+223580104
4137+224064084+224510156+225095163+225918672+226678001+226862623+226375883
4127+225672217+225161982+224820123+224433055+223940763+223511434+223390408
4117+223665328+224202110+224822402+225387169+225666116+225405026+224647239
4107+223813242+223319065+223220010+223373836+223705756+224015842+223941757
4097+223566822+223562658+224232957+224986339+225158400+224737640+224084992
4087+223588518+223618577+224242520+224992320+225242254+224775565+223928698
4077+223308920+223303281+223692868+223911989+223804040+223776551+224063484
4067+224343786+224363322+224385190+224655003+224946426+224990058+224905382
4057+224895905+224825692+224465102+224078445+224308876+225253171+226121528
4047+226232802+225875451+225710691+225830996+225866368+225579914+225011977
4037+224371034+224007428+224277103+225237078+226450346+227183420+226945483
4027+225891783+224715035+224116508+224289888+224936761+225747965+226624977
4017+227403226+227719996+227383329+226686449+226184663+226177431+226479600
4007+226740278+226908037+227215622+227726628+228140807+228151570+227820233
3997+227418598+227039551+226674933+226605320+227193651+228226529+229049421
3987+229436318+229688959+229862356+229585808+228755427+227894661+227671839
3977+228296382+229406773+230386764+230801355+230643519+230221816+229875775
3967+229872964+230444758+231630022+233045307+234084080+234499048+234607237
3957+234790214+234996139+234989849+235052178+235905472+237562396+238817924
3947+238758697+238193433+238308769+238671587+237832500+235538078+233158432
3937+232210607+233441492+236653885+240479903+242719571+242179876+240205686
3927+239283962+240364002+242020566+242519661+242348372+243275580+245320702
3917+246131530+243909325+239816184+236381587+235000166+235637784+238003584
3907+242384721+248930223+256144808+261182654+262507435+260605531+256251986
3897+250690880+246316135+245143312+246968115+249119558+249225108+248771101
3887+250684624+254583049+257344742+258305608+259157189+258824789+255326800
3878+251164886+250275929+252915123+256850616+260730704+263587339+263809784
3868+262154557+261462870+262057044+261215215+257651504+253786480+252849075
3858+256761415+266252822+279368281+287250150+281635146+269047419+258473059
3848+253082043+253177773+257525115+263743307+269821624+275119892+278873607
3838+279140541+275566889+270919933+267543620+265331115+263429674+262054440
3828+261845293+263056744+266613224+273717546+282092221+285388176+282393447
3818+278480010+275273375+270339365+264247681+260509561+261097001+265584322
3808+271467270+275835828+279138467+283631889+287897828+288013026+284746822
3798+281724741+279172845+275967427+273084538+272107014+273256050+276210077
3788+280877120+286543416+291669006+295798325+300340691+306022120+311190348
3778+314462311+317410752+322685267+331717491+344342355+358447935+371017821
3768+381514069+391492078+400948969+409030644+416315698+422993296+427214060
3758+428289062+429160231+433447625+442647249+454868044+464495248+468218990
3748+470632021+477165252+487032073+493711042+495045815+496879563+504518473
3738+519389859+538584457+554313131+559374284+555566637+550756068+550228541
3728+554693823+561976238+568382550+571253118+570886443+569131973+567449858
3718+566454579+566777176+569495357+574356276+577653979+575726831+570930452
3708+567130620+564972938+564283839+564879402+565117133+563461135+561043478
3698+559893071+560764685+564000179+570415162+579791370+588243249+589165727
3688+581710908+573051802+568610341+568970469+572758511+578273877+584744386
3678+592804227+601227178+605160032+603791978+601321503+598262936+591195426
3668+580192593+569738881+562294585+557477675+554449922+553623517+556420976
3658+562507501+568395848+571931420+575939679+583340960+591708797+593709499
3648+586134101+574181747+563638852+556633344+552468209+549825912+548615113
3638+549246493+550867462+552075451+553263389+556546423+562496773+567204963
3628+565663683+559847622+554856150+553037791+555103718+560499122+566355216
3618+569545022+570373483+570760003+571449068+573122066+576745211+581079151
3608+582605212+580207194+577012556+576127712+577728082+580431285+583881546
3598+588609855+593534011+595968086+595574198+596071185+600933441+608900671
3588+614024308+612113338+606093204+600657596+597283767+595623759+595694366
3578+597567976+599891137+600532697+599294752+598832382+602321100+610285999
3568+618897463+622454800+619535664+613502162+607784882+603968358+602198532
3558+601873674+602275377+602945591+603466366+603812063+604969325+607729631
3548+611088789+613208562+613567696+612876437+611330359+608386957+604244340
3538+600319986+598048786+597522733+597459187+596548362+594994333+594514962
3528+596281771+599144559+600682616+599963458+598233597+596895774+595997151
3518+594799650+593157260+591485735+589729208+587716305+586079809+585656718
3508+586501255+588272451+590627626+592553814+592623597+590488675+587094830
3498+583701191+581515541+581259164+582194872+582392433+580673198+577934349
3488+576237118+576877444+579408586+582128310+583369066+582764591+581156407
3478+579096272+576346661+573042480+570145006+568439035+568029791+568552280
3468+569202991+569178176+568247369+566326151+563196567+559664868+557716675
3458+558538727+561191512+563505282+564107700+563622399+563603000+564220499
3448+563916891+561785395+559015047+557242926+556595676+555950928+554638332
3438+553280904+552986618+553880854+554754319+554420411+553086804+551761492
3428+550711750+549490771+548314384+548164773+549263905+550306654+549819400
3418+547946270+546231970+545820567+546384871+546724605+545961060+544193600
3408+542341309+541170508+540419679+539386390+538245614+537937379+538985612
3398+541022748+542867945+542994659+540922871+538057376+536261570+535981200
3388+536325253+536373615+535855617+534950379+533986154+533256541+532848394
3378+532660670+532551470+532325357+531818293+531196955+530985341+531484557
3368+532372760+533187271+533628185+533187820+531505841+529422125+528584512
3358+529595248+531260946+531911966+530899893+528698408+526411064+525273236
3348+525654409+526517831+526704801+526385358+526369214+526845877+527462793
3338+527811473+527536862+526710217+526083703+526297374+527079050+527659806
3328+527659840+527405588+527438801+527634580+527159494+525729265+524264008
3318+523702583+523819255+523733567+523286792+523279698+524083344+524819606
3308+524573751+523684383+523013038+522736815+522718067+523264994+524599835
3298+526036164+526396154+525257264+523460670+522208055+521968266+522538877
3288+523621694+524734021+525167121+524809975+524486521+524933468+526119418
3278+527711356+529255857+529921581+529119340+527408536+525994760+525389497
3268+525103883+524654400+524405906+524954615+526014365+526622644+526201438
3258+524823136+523034597+521968335+522595705+524323406+525329001+524583143
3248+522638789+520508493+518808280+517947908+518242331+519447030+520606108
3238+520849598+520277342+519600136+519066303+518528973+518294977+518708026
3228+519004676+517956443+515798144+514085833+513471178+513035783+512058876
3218+511014550+510335082+509648348+508756066+508060420+507589824+506765304
3208+505506450+504529166+504194402+503906972+503008212+501680397+500647965
3198+500330990+500471826+500535680+500435768+500532595+500700474+500064673
3188+498376662+496831269+496513163+496911404+496860540+496040167+494773842
3178+493249152+491632810+490373374+489887526+490045019+490081865+489186944
3168+487381199+485668098+485127307+485871384+486870055+486812542+485230269
3158+482831086+480791619+479750995+479391655+478932404+477952790+476583571
3148+475164962+474110593+473688188+473526033+472916520+471851458+470972063
3138+470373655+469421529+467898964+466451084+465648329+465251253+464711284
3128+463995793+463472036+463163938+462678740+461894356+461197716+460871007
3118+460706075+460460495+460218033+459972967+459328802+458006848+456353764
3108+455047988+454479434+454524951+454725700+454600836+453928805+452921600
3098+452175466+452186640+452709711+452888695+452252174+451207094+450385419
3088+449913657+449456051+448727330+447831484+447119420+446807003+446853034
3078+447090492+447239006+447008540+446476660+446034512+445772514+445331326
3068+444423860+443157569+441915340+441129927+440998037+441314156+441706022
3058+441893301+441659888+440990188+440269281+439830870+439398044+438527870
3048+437449132+436798558+436628931+436295812+435388003+434336822+433868797
3038+434128122+434598170+434715253+434272043+433352581+432183083+430984416
3028+429834660+428787935+428045195+427681503+427322644+426540830+425500892
3018+424791947+424727476+425128699+425582466+425657734+425126128+424181474
3008+423287479+422704255+422243804+421502607+420267438+418744358+417443347
2998+416721652+416417221+416053117+415414539+414797486+414591664+414775961
2988+414910833+414465738+413218847+411551092+410206586+409528146+409174770
2978+408758089+408289481+407810110+407208858+406654288+406590776+407049410
2968+407385682+406938016+405752923+404467815+403561823+402941582+402306158
2958+401630254+401073216+400686834+400446909+400337983+400250410+399997700
2948+399538072+399078170+398883625+398907343+398672422+397772908+396468469
2938+395466096+395048489+394744229+393972733+392734856+391519532+390708962
2928+390273600+389967799+389582102+389001517+388233756+387384524+386532241
2918+385775928+385418577+385780761+386631022+387149089+386784882+385817401
2908+384806699+383984990+383436795+383295342+383445192+383478987+383152929
2898+382549963+381768664+380816572+379831782+379092675+378714621+378503110
2888+378193950+377715916+377162374+376693217+376509332+376648317+376762761
2878+376444792+375759977+375085239+374501158+373762120+372843789+372124973
2868+371928097+372106705+372188416+371848614+371212195+370723947+370665954
2858+370747597+370352509+369318362+368181528+367497022+367257645+367105567
2848+366762474+366169584+365524631+365165394+365149148+365100957+364723007
2838+364199010+363807589+363443554+362893200+362299111+361927844+361669444
2828+361158781+360306841+359424259+358847718+358613620+358494857+358279027
2818+357986558+357818508+357895695+358060901+357969798+357420541+356548927
2808+355636834+354818312+354076909+353456325+353087869+352955670+352764792
2798+352189074+351242467+350279338+349611764+349221440+348844414+348302903
2788+347760158+347552143+347716835+347893214+347770166+347363870+346773209
2778+346001335+345124957+344303213+343522085+342633231+341742183+341270079
2768+341433399+341863791+341997772+341694849+341166945+340464513+339443288
2758+338181076+337076769+336487410+336405493+336488438+336377044+336002178
2748+335521026+334975470+334246646+333392272+332704544+332286902+331869158
2738+331215842+330442460+329748905+329127979+328560864+328244643+328331633
2728+328587873+328587804+328216366+327759617+327467902+327226949+326790936
2718+326193317+325677169+325248046+324614712+323676570+322755771+322181459
2708+321928303+321791820+321652595+321492119+321366364+321343160+321316940
2698+321024094+320331396+319345749+318280241+317418327+317049013+317160647
2688+317358722+317318998+317138780+317050761+317010317+316796818+316376914
2678+315916738+315501290+315085328+314687807+314395406+314171556+313877785
2668+313494967+313139398+312832465+312415441+311775286+311053214+310493880
2658+310151267+309922138+309776538+309711518+309587443+309279687+308872191
2648+308490847+308116255+307730010+307445596+307341983+307312917+307190418
2638+306914367+306531995+306139066+305868362+305828226+305989524+306184583
2628+306198602+305833813+305033080+304024640+303174688+302649389+302374297
2618+302251181+302231233+302251113+302219305+302025206+301599750+301021222
2608+300442865+299926683+299512812+299318576+299345721+299342602+299071487
2598+298612304+298280728+298282716+298467390+298461768+298123097+297727220
2588+297571543+297592657+297553891+297385224+297132960+296782635+296346074
2578+295961028+295724359+295548014+295312647+295068438+294970206+295045748
2568+295096578+294861211+294289058+293625185+293214262+293221048+293493397
2558+293666486+293472387+292983933+292505831+292248117+292171615+292115713
2548+292012888+291953523+292015321+292100323+292061387+291905195+291717848
2538+291512678+291296437+291125473+290976514+290727677+290337490+289893457
2528+289493605+289236747+289260534+289592694+290005948+290195866+290076657
2518+289784737+289472457+289218993+289048715+288916482+288733556+288489963
2508+288314201+288358553+288609309+288853381+288914185+288880870+288963198
2498+289167409+289293473+289224203+289050326+288890673+288709083+288395912
2488+288010593+287792843+287843639+287959283+287905163+287684774+287426049
2478+287192893+286997628+286841986+286702726+286579473+286525781+286562267
2468+286642436+286736041+286828361+286844556+286725502+286537006+286349402
2458+286103496+285759923+285445364+285290304+285257331+285234932+285176408
2448+285108560+285104190+285218840+285389273+285467300+285386736+285220434
2438+285072366+284975385+284889646+284770026+284622883+284504034+284491661
2428+284651811+284958898+285246860+285331228+285206792+285061346+285079238
2418+285262438+285447026+285489184+285426170+285412751+285494531+285533142
2408+285423976+285303020+285394654+285674287+285844000+285711715+285464129
2398+285432459+285671922+285946019+286079212+286111807+286108946+286036317
2388+285863005+285610072+285237160+284539389+283176494+280864952+277632680
2378+273849848+269960283+266223997+262669145+259177685+255697159+252461493
2368+249845246+247944542+246523876+245443081+244949093+245495008+247426097
2358+250858964+255685265+261730181+269016829+277322851+285244461+290620259
2348+292111565+290204811+287025477+284680911+283485192+282594247+281554634
2338+280361760+278971685+277341273+275669646+274416105+273970410+274202915
2328+274505512+274406611+274018978+273843078+274211638+274994479+275872794
2318+276731521+277609904+278444604+279106180+279613776+280149341+280874943
2308+281782632+282679900+283323037+283612027+283657596+283678897+283839339
2298+284112854+284308204+284309249+284242413+284289507+284426573+284497317
2288+284472142+284481344+284606928+284739401+284680637+284359462+283884616
2278+283402898+283012865+282793865+282761766+282801508+282770952+282621599
2268+282346559+281959251+281592508+281425640+281451792+281481525+281380226
2258+281168714+280943322+280806753+280798030+280832716+280793334+280687647
2248+280637194+280726618+280931531+281172330+281381459+281508089+281507454
2238+281381854+281205646+281057235+280971427+280985360+281133754+281376507
2228+281616329+281762101+281743352+281575370+281405880+281348281+281329550
2218+281249415+281169588+281212552+281383173+281567624+281655283+281656277
2208+281688598+281813479+281958342+282038752+282039643+281972669+281874471
2198+281795725+281719394+281595541+281467078+281420756+281454277+281520102
2188+281612576+281699480+281676002+281487146+281229724+281078383+281133017
2178+281332926+281496983+281475407+281303724+281189605+281288094+281497926
2168+281585482+281523735+281550058+281829108+282238335+282551506+282665025
2158+282602610+282458826+282341760+282263579+282163941+282086617+282151876
2148+282323646+282438484+282481791+282599920+282844815+283116393+283334879
2138+283493350+283577272+283574050+283528944+283497548+283483787+283473521
2128+283460411+283426890+283397722+283503187+283856733+284373378+284817342
2118+285028065+285047705+285038811+285114747+285276131+285505294+285817608
2108+286154257+286360644+286380078+286354835+286448234+286668880+286927108
2098+287177538+287439125+287726590+288041680+288405132+288799055+289107736
2088+289234005+289238495+289241409+289255976+289227733+289159115+289109896
2078+289143862+289311433+289611853+289951930+290186851+290240937+290221812
2068+290376426+290828754+291382741+291718259+291747153+291615503+291448549
2058+291299624+291265041+291426579+291703795+291927029+292059913+292227381
2048+292509121+292829387+293108455+293378542+293641637+293789362+293813012
2038+293891708+294109868+294302185+294327652+294298724+294400452+294628655
2028+294831323+294935793+295013495+295140141+295356280+295782318+296503122
2018+297235888+297442840+296969194+296259015+295813303+295762336+295990128
2008+296338328+296633470+296762858+296785103+296847860+296996134+297132823
1998+297223069+297534800+298469789+299947934+301161304+301327675+300550694
1988+299531663+298761332+298357504+298298448+298479077+298725515+298919580
1978+299044204+299121803+299154398+299122591+299135547+299548390+300599810
1968+301851089+302422282+302030279+301325481+300992225+301057965+301240205
1958+301466557+301772839+302015815+301992713+301750903+301616545+301897909
1948+302676089+303970554+305794534+307635480+308333285+307335676+305589192
1938+304354194+303935730+303981522+304209999+304507095+304782803+304976971
1928+305202878+305914153+307490085+309442151+310830186+311640757+312449613
1918+312828866+311834171+309952300+308758809+309017277+310140916+310971263
1908+310824702+310038810+309441088+309356977+309475363+309556321+309843888
1898+310692675+311936242+312920175+313497366+314416760+315935623+316877707
1888+316242488+314820485+313870656+313549979+313466896+313546997+313816741
1878+314121412+314365758+314761738+315976513+318952923+323830122+328603879
1868+329973681+327144894+322921011+320112173+319285596+319537757+319935039
1858+320113646+320142952+320207937+320409406+320884800+321930120+323843901
1848+326902501+331155998+335264854+336309660+333369925+329387612+327169949
1838+326853865+327126214+327440345+328879553+332606551+337544760+340614363
1828+340621458+339468241+338304329+336392297+333800590+331971812+331614975
1818+332052187+332496323+333130719+334691604+337155739+339214057+339557596
1808+338488352+337574065+338259395+341047908+345059903+348221054+348964754
1798+348045155+347869393+350318206+355036438+358588668+357276620+352479555
1788+348755813+348273598+349963631+352003989+353761407+355082264+355586758
1778+355821816+357615668+362435149+369501768+375027931+375384048+371569958
1768+366723126+362814539+361399186+363355502+367048327+369302939+369505059
1758+369360829+369322784+369413441+371385421+376784629+383812106+387992049
1748+387432166+384655889+382653850+382572756+384067832+385778568+386275761
1738+386511985+389688423+396781640+402625087+401151637+394930172+388797855
1728+384276190+381965231+382105930+383842303+386847777+392767897+403007048
1718+414662477+420045335+415922804+407782279+401092307+397914361+398789163
1708+403429282+409880699+415201588+419230344+424918045+433000885+439102285
1698+439993676+437055106+430906852+423365077+418861853+419347290+423308181
1688+429395117+438694584+450580272+456972325+452061913+443185469+437867219
1678+437937517+442064299+446853000+449748315+452275001+456159493+458461781
1668+455655821+451085623+450191217+453336087+456191814+455548986+453792836
1658+455420729+463324893+478201352+494592630+498690895+491904337+488725774
1648+491797159+493846531+488614585+480409589+475685908+476183136+481725510
1638+491696527+502509922+506064722+499864644+492249212+489518418+491626298
1628+495628010+499474388+503283235+506423753+506924031+505915386+507537828
1618+513145429+518175735+517288902+513037942+510828128+511966505+514528837
1608+516376638+517215828+518063895+519446001+520857995+521827190+522828570
1598+524676782+527352873+529941049+531695108+532730934+533507023+534157289
1588+534661098+535248126+536231100+537602101+539236882+541702765+546373492
1578+553744062+560680060+561961089+559087265+558586130+562453278+566670855
1568+566887850+564624807+563680804+566113063+573874060+589215563+608332665
1558+615131117+605936430+595305824+589448222+587651868+588166404+589539256
1548+592087536+598159152+609265563+623906553+638849094+649450703+649070867
1538+640042002+633415816+633635656+637477681+639676699+640106850+643185433
1528+650966550+661409329+671804465+681916969+691433705+697613972+699772339
1518+700578762+700782013+699708588+699088895+702065407+710358113+723661965
1508+738197113+743629020+734473611+722545490+717218945+718713542+724245052
1498+729927577+731793990+729801377+728850450+732959821+741090131+747432177
1488+747217821+742636689+738659484+737555348+738773140+740841775+743438039
1478+747734209+754565701+762961438+769844344+770993380+765912587+760165556
1468+758914586+762660709+767783455+770271616+771153650+774922120+783659031
1458+793529553+795271684+786789026+776918435+771298907+770214582+771802545
1448+773138654+772061527+769230272+766877017+766354803+768135459+772593544
1438+778774291+782660119+781077710+777350575+775983618+776796005+776881213
1428+775548257+775080197+776647183+778936686+781006486+783598295+786257352
1418+786092009+782248133+777445105+773899765+771994142+771262713+771122528
1408+771279987+771494892+771235910+770782862+771929499+775760076+780759843
1398+784580069+786753654+787606828+786554174+784082190+782565932+783278372
1388+784586650+784055250+782236617+782240319+785713750+791524053+797651674
1378+803249609+808706810+814029242+817935978+819519416+819937228+820834000
1368+822512586+824704953+827533603+830505522+831856301+830448900+827470605
1358+825077043+824362752+824827247+825287355+825322041+825414652+825761310
1348+825862490+825399845+824905120+825494513+828046357+832274319+836317196
1338+837768401+835965808+832898879+831233249+831783432+833263085+834378943
1328+835317393+836709097+838359371+839835390+841365153+843403352+845820907
1318+848090462+850101721+852289702+854947799+857752319+860019132+861435856
1308+862558226+864241815+866363577+867681109+867490882+866799075+867106454
1298+868581582+870046840+870493512+870199089+870097498+870285257+869795124
1288+867993286+865425606+862895561+860566024+858266307+855933411+853575358
1278+851334731+849623310+848771233+848529320+848215977+847471661+846779031
1268+847069135+848772193+851360917+853829062+855480364+856200825+856241270
1258+855995243+855855744+856057555+856584843+857284327+858143328+859435085
1248+861501527+864332507+867268300+869267357+869960946+870306781+871627672
1238+874121866+876800254+878745910+879726039+879950198+880068172+881026982
1228+883222023+886199221+889578259+893294426+896530948+897932385+897594434
1218+897391388+898672246+900707703+901951612+902124290+902378131+903945117
1208+907270274+911896512+916479563+919539020+921142338+923095603+926453733
1198+929927713+931919298+932824090+933805384+935122025+936972602+939803514
1188+942708734+943863939+943590013+944385057+947214597+950221820+951603515
1178+952015363+953234046+955644129+957967359+959076019+959366603+960170969
1168+962194635+964788090+966650938+967263981+967478679+968404859+970273465
1158+972786030+975575949+977899659+979286975+980655028+983065728+985777089
1148+987311307+987744475+988207462+988776565+988391793+986813223+985452573
1138+986086181+989588198+995524015+1001976015+1006170456+1006248672+1002709158
1128+998138652+995672084+997150228+1002161786+1008767681+1014785896+1018765706
1118+1020557399+1020437025+1018160958+1014690885+1013193821+1015674236
1110+1019821446+1021886311+1021435183+1020490289+1019695108+1018048330
1101+1015318461+1013047946+1013104637+1015651614+1018984724+1021707738
1093+1023983874+1025703657+1026007129+1025327592+1025233953+1026209900
1084+1027995149+1030857251+1034205715+1035951068+1035598995+1035326851
1075+1036077680+1036219716+1035852356+1037569878+1041836639+1045291562
1067+1044958546+1042489715+1041696111+1043272968+1044015571+1041185962
1058+1036466085+1033953451+1035437148+1039764028+1045686547+1052534355
1050+1058021376+1059459762+1058537695+1060272560+1066078132+1071908109
1041+1073741823+1071023333+1065148319+1058395316+1053286212+1051189334
1033+1051798470+1053500294+1053814802+1051396561+1048185677+1047062073
1024+1047712133+1047286094+1044762287+1042728749+1044004329+1048074831
1015+1051508709+1050710924+1044922762+1037315900+1032303314+1031285483
1007+1031982020+1032317230+1032580805+1033743414+1036484662+1041508284
998+1047863011+1051772284+1050478950+1046109433+1042682478+1040993610
990+1038983928+1035725539+1032194320+1028638148+1024661560+1021699512
981+1021599223+1023477563+1025073477+1025769808+1026250481+1026716622
973+1026659519+1025207355+1021789449+1017525636+1014572157+1013646594
964+1013915516+1014341554+1013095177+1008212082+1000966067+995109836+992057988
954+990097182+988072076+986891301+987251600+988073104+987614436+985134363
944+981146532+976475326+971772175+967984785+966265618+966740258+967780780
934+967168902+964242774+960476428+957845203+957252519+958605355+961278464
924+963746129+964042471+961815691+958918491+957218381+956832444+956845743
914+956802282+956909015+957332106+957784810+957697752+956506078+953957592
904+950838016+948978322+949510065+951361670+952236163+950955991+948302075
894+945506604+942926997+940882423+940608428+942726077+945252695+945334955
884+943039762+941087388+941179313+942470934+943196879+942614203+941314357
874+940308042+940232980+941091569+942350902+943384637+943940030+943600707
864+941233536+936721983+932679449+932132351+934775161+937527172+938663458
854+939072153+939373431+938633090+936612577+935063826+935692087+938048769
844+939823256+939079968+936267359+933564088+932569015+932953786+932999715
834+931694590+930311730+931110270+934440980+938086609+939638308+938630142
824+936126900+933522820+932015473+931795839+931811331+931643589+932736483
814+936505365+942351314+948183415+952039904+952859352+951273241+949829988
804+949554896+948159628+944386633+941081287+941229561+943600433+944711286
794+943948667+943930707+946021415+948602325+949623515+949270619+949353633
784+950703795+952239111+952549643+951798128+951481153+952299572+952993367
774+951934269+949290225+946679153+945084267+944363052+944336181+945037859
764+946150289+947316806+948861101+951236155+954094075+956316948+956822025
754+956011420+955487081+955604233+954956435+953216840+952427418+953626495
744+954392337+951963540+947645023+945514967+947253191+950429938+952045046
734+951608862+950159096+948934518+948896747+950297705+952601192+954439568
724+954325226+952752208+952409252+954824888+957897164+957984085+954238236
714+950064086+950125370+955517243+961800884+963230016+958997255+953006803
704+948824770+946396110+943506108+939631796+936519760+934910822+932774322
694+928033195+921926208+917845765+917374141+918819176+919785595+919872516
684+919344064+917758296+915317502+913184019+911607710+909581782+906555023
674+902925709+898220981+890510471+879974327+873476810+878948064+891006431
664+899160665+900645734+899139758+900318750+906402225+913418323+915102666
654+910889032+905870756+902675021+899926918+896435732+892178225+886577549
644+879682030+874280423+873499706+875651081+874829029+868668641+861675712
634+859537636+863109711+868578086+872466245+874108430+873013412+867904650
624+860378814+855599504+856572024+861047314+866224626+871782253+876086785
614+874964621+867851456+860766944+859481562+862948207+865600135+864007991
604+859489308+853774839+846295890+838122324
##END=
