##TITLE=<SNM>
##JCAMP-DX=4.24
##DATA TYPE=INFRARED SPECTRUM
##DATE=2/5/2025
##SAMPLING PROCEDURE=Instrument type and / or accessory
##ORIGIN=Admin
##XUNITS=1/CM
##YUNITS=ABSORBANCE
##RESOLUTION=4
##FIRSTX=4497.3318
##LASTX=599.83466
##DELTAX=-1.4281778
##MAXY=1.8139879
##MINY=0.27877748
##XFACTOR=1
##YFACTOR=1.6894078e-09
##NPOINTS=2730
##FIRSTY=0.29695341
##XYDATA=(X++(Y..Y))
4497+175773667+176127292+177169539+177635606+177079148+175903996+174307460
4487+172454359+171200017+171494688+173295467+175608409+177343706+178014317
4477+177888697+177500637+177068141+176631445+176435245+176625271+176854247
4467+176724853+176355351+176108469+176093263+176234036+176491643+176808364
4457+177025203+176878856+176058317+174581544+173206311+172998574+174260342
4447+176112844+177210307+176751737+174997088+173042552+171962325+172000552
4437+172613460+173263731+173987088+175070614+176347942+177140679+177026067
4427+176320704+175556386+174854234+174072628+173230302+172422235+171571583
4417+170715128+170329714+170900390+172279434+173865155+175165574+175810765
4407+175543808+174719230+174186145+174238397+174352409+174144778+173779528
4397+173335617+172653399+171952816+171885817+172709249+173763845+174054352
4387+173270523+172002528+171021035+170696376+170991240+171485373+171404702
4377+170285171+168730568+167887731+168135618+168861938+169429474+169683976
4367+169629167+169374717+169319414+169698918+170073730+169874919+169248304
4357+168757664+168529146+168282847+167951819+167710424+167549259+167258769
4347+166813095+166476087+166530226+167104590+168105946+169146447+169712995
4337+169483402+168451386+166954997+165632703+165014909+165085701+165477113
4327+165970505+166509675+166946935+167182509+167409421+167863140+168403562
4317+168650708+168495946+168174004+167859999+167547230+167328679+167369729
4307+167538427+167505863+167257676+167128758+167366519+167943087+168592759
4297+168844085+168391372+167556280+166964540+166786140+166780336+166932064
4287+167408239+167986113+168122634+167634834+166893960+166307372+165988922
4277+166012472+166551466+167444155+167993381+167734151+167157441+167088343
4267+167555539+167903007+167814345+167573532+167477690+167586869+167901437
4257+168328554+168654325+168768795+168726581+168583691+168446041+168541565
4247+168913237+169188079+168984929+168433798+168020018+168022752+168327160
4237+168660164+168844085+168937422+169164776+169564373+169784669+169504553
4227+169023738+169049017+169793278+170600657+170676512+170023048+169375635
4217+169289989+169675085+170188218+170615934+170771472+170413807+169550436
4207+168730462+168709699+169668206+170930662+171639588+171558459+171037494
4197+170418305+169754574+169118522+168882542+169317967+169973054+170015657
4187+169345557+168736213+168735454+169067028+169234456+169158266+169090155
4177+169315868+170027670+171167347+172327469+173082897+173470674+173826681
4167+174148341+174044014+173363913+172516913+172086303+172268232+172614660
4157+172396145+171469479+170593372+170515012+170985577+171158315+170802361
4147+170566540+171007187+171870505+172540128+172767587+172643273+172215521
4137+171580951+171090081+171016607+171172692+171208238+171132118+171189574
4127+171378629+171495693+171559623+171765313+172095141+172345110+172438359
4117+172438182+172404471+172391346+172393110+172230763+171697855+170870084
4107+170164332+170068085+170769426+171940362+172881899+173070284+172669099
4097+172305912+172318843+172475845+172394945+171945725+171316411+170963879
4087+171340102+172431761+173690107+174474465+174447351+173678217+172583736
4077+171694539+171341372+171506807+171878990+172068345+171951723+171774998
4067+171763161+171750442+171417668+170811940+170347143+170265431+170387258
4057+170503916+170685527+171027174+171433510+171808357+172118533+172223619
4047+172055397+171930025+172223142+172769175+173005278+172675661+172054885
4037+171539883+171324490+171447005+171881954+172467766+172878053+172871720
4027+172619634+172580384+172934591+173341333+173398894+173136736+172883768
4017+172819733+172855155+172917991+173136313+173605714+174131900+174429164
4007+174466174+174401838+174315699+174208073+174169493+174360806+174815565
3997+175359534+175737874+175765040+175384725+174718206+174097572+173898073
3987+174294212+175234602+176515299+177732101+178338023+178044870+177229129
3977+176723706+176987011+177553454+177568078+176807235+175799598+175066487
3967+174787922+175145129+176307827+177902827+179074699+179360196+179062280
3957+178610396+178134873+177880036+178486240+180360335+182775063+184127434
3947+183729089+182789422+182661457+182956392+182420573+181007148+179841557
3937+179776357+181022037+183341929+185862872+187294661+187098814+186149745
3927+185755422+186323841+187119630+187341744+187233889+187618632+188579732
3917+189030770+187836618+185292654+182839892+181599434+181920442+184080492
3907+188573735+195172535+201953123+206202131+206783850+204344601+199751688
3897+194444892+190966571+191264610+194610326+197382967+196872586+195387011
3887+196408565+199363081+201183230+201505138+201807922+200954007+197782387
3878+195288964+196584302+200676625+204830355+208059784+209797392+208855502
3868+206651615+206112851+207095808+206624502+203365207+199447316+197741496
3858+200199215+207902111+219388142+226506637+221415181+210303256+201584150
3848+197867680+198764727+202610839+207522131+212659047+217976798+222205448
3838+222766405+219466484+215231219+211885344+209094534+206805389+205957031
3828+206650239+208034434+210620577+215918518+222398720+225209411+223718561
3818+221823369+219784757+215050596+208845465+205131482+205978852+210763502
3808+216402508+219741414+222001345+226237881+230951544+231670896+229037582
3798+226803706+224999081+222211164+219744554+219830394+222532119+226395853
3788+230516013+234751843+238947488+243554407+250031222+258771832+267497324
3778+274050100+279818906+287698738+299010285+313257860+328362596+341288989
3768+350316048+355432131+357225660+357904297+360258906+363899239+365531709
3758+364591672+365281599+371601942+383991246+398820011+409759886+414983683
3748+420030614+429037457+439766067+446718440+450366006+456538907+468588029
3738+485763394+503744022+517011621+523860760+527421816+531599308+538659925
3728+548961771+560295068+568437870+570795761+568680395+565201721+562776408
3718+562255231+563873024+568396732+575295054+579733593+576221649+566726688
3708+557342934+551878130+551793560+555903771+559938762+560453023+558508490
3698+556460476+555308433+556341895+561480205+570844696+581030502+586387627
3688+584270426+578218787+573130471+571513737+573532467+578291961+585803191
3678+596111846+604652269+604325211+598401185+595451449+594881867+589870217
3668+579797911+570920163+566928145+566988970+568263827+568613325+567872768
3658+566584363+565142730+565204967+569365312+578313376+588502111+592388814
3648+586336010+575979936+567883071+563863780+562319549+561308067+560746599
3638+561605948+563889077+566669638+569768190+574357240+580718191+585028411
3628+582645330+576440817+572624465+573886233+580053066+588958722+596172742
3618+598606452+598431103+598670311+599061864+598708979+598766982+600360571
3608+602690554+604500560+605877027+607573427+609520606+611159921+612798811
3598+615131546+617660233+619401299+620738604+622605483+624620615+625578716
3588+624994456+623733853+622720571+621411773+619063726+616737343+616432794
3578+618263615+620267880+621285395+622372626+625166912+629889254+634635165
3568+636314559+633648556+628970104+625295054+623096812+620934839+618370730
3558+617172080+618750640+621453193+621824989+618529072+614136893+612345587
3548+613888371+615763083+615154338+613074641+612006674+612311152+612772280
3538+612656275+612148928+611678486+611226602+610266455+608562293+606628027
3528+605333341+605271387+606009474+605912379+603631367+599875452+596799057
3518+595723892+595956679+595754234+594477542+593286019+593310575+594058470
3508+594287164+593595578+592355296+590767070+588723854+586535526+585146040
3498+585147239+586084242+587274460+588647540+589946107+590098346+588641013
3488+586846355+586061874+585639979+583796703+580279326+576812612+574779558
3478+573974648+573677967+573574804+573549437+573317709+572553973+571212998
3468+569725641+568948533+569461877+570723716+571379315+570748378+569553256
3458+568729683+568139778+567016666+565114858+563051920+561861668+561956081
3448+562322407+561601256+559881571+558060487+556315928+554788280+554223495
3438+554617447+554886115+554647789+554586717+554646766+553679350+551316345
3428+548850282+547845821+548496374+549539045+549628695+548611885+547217530
3418+545852987+544360549+542797020+541817503+542052230+543292688+544496912
3408+544581552+543256454+541167831+539348405+538575920+538769720+538595712
3398+536576171+533251359+530876781+530463248+530677547+530233354+529602347
3388+529582060+530057124+530857411+532187872+533514664+533343055+531022423
3378+527912192+525869753+525103371+524363167+523082241+522313989+523199834
3368+525323244+527074577+527245727+525872717+523818529+522040135+521210811
3358+521619863+523099459+524930880+526134081+526246170+525617420+524659778
3348+523321802+521780288+520901993+521323711+522460725+523016653+522479177
3338+521676137+521630024+522233795+522511001+522086036+521762647+522273733
3328+522933883+522350999+520488107+518889578+518592438+518960564+518777772
3318+517585649+515767917+514096673+513415742+514004377+515049094+515403425
3308+514985376+514741299+515073509+515237885+514617356+513511143+512307095
3298+511053371+510140360+510287765+511649697+513589468+515132781+515377599
3288+514111985+512251457+511049843+510877212+511235106+511731056+512453478
3278+513490645+514621695+515575527+516191188+516174429+515161289+513374534
3268+511879379+511725129+512849017+514074940+514243338+513174030+511578111
3258+510418906+510242676+510555692+510136902+508563600+506861943+506157974
3248+506406425+506719018+506338967+505156900+503709269+502663635+502188748
3238+502084209+502260757+502515277+502293639+501426493+500520538+499993646
3228+499399895+498148147+496356594+494838683+494500264+495511323+496899363
3218+497453139+496989154+496094735+495037987+493706327+492183336+490737222
3208+489545452+488676825+488073090+487502696+486795586+486030086+485348732
3198+484811255+484483033+484470543+484800177+485163540+484800883+483117255
3188+480558120+478312283+477025607+476339984+475706083+475031891+474417042
3178+473735477+472708965+471337260+470147572+469680234+469625513+469039701
3168+467512370+465441600+463334349+461512912+460204890+459429370+458995973
3158+458747698+458554885+458227862+457685623+457000423+456278531+455689367
3148+455336306+454968180+454181617+452865657+451158743+449308658+447785808
3138+447020519+446871561+446762824+446315809+445510017+444399995+443047589
3128+441660677+440547832+439895832+439696669+439886130+440338825+440635824
3118+440118105+438531960+436525790+435128682+434772164+435014582+435061154
3108+434451597+433400494+432435866+431653960+430724613+429741427+429324013
3098+429582167+429740580+429119381+427862234+426487495+425359867+424758425
3088+424888296+425543930+426057874+425934918+425447577+425232184+425318870
3078+425016226+423865418+422246920+420829596+419807636+419010206+418486419
3068+418422877+418521206+418107073+417001319+415744526+414892128+414566234
3058+414590190+414611676+414240798+413348603+412134112+410913587+409996801
3048+409578857+409578998+409731908+409767048+409360854+408304317+406988181
3038+406222822+406292114+406640236+406624183+406114261+405285572+404244912
3028+402959153+401445405+399998939+398976237+398287474+397513224+396558192
3018+395644899+394783856+393947970+393476505+393566437+393738540+393433179
3008+392753272+392200342+391994757+391857372+391321341+390292360+389249830
2998+388662607+388386495+387980477+387341178+386608278+385764841+384782537
2988+383879192+383242575+382769381+382381286+382210242+382161589+381826310
2978+381171487+380698152+380563236+380197968+379148488+377741502+376631126
2968+376047184+375633827+374897046+373806111+372848151+372358163+372059153
2958+371523793+370831467+370428447+370467398+370573595+370282982+369517588
2948+368552819+367718520+367234000+367095592+366993840+366583165+365927249
2938+365347329+364829998+364069613+363106714+362395265+362179413+362207180
2928+362053917+361446337+360366197+359073769+357930229+357080654+356451093
2918+356046133+355961704+356028104+355759613+354873344+353639519+352550312
2908+351855834+351577852+351722082+352194253+352623909+352543962+351786576
2898+350630899+349574751+348949706+348679909+348399740+347832944+347024083
2888+346206896+345571090+345202576+345079303+345001366+344678401+344058718
2878+343419667+343004193+342771054+342575207+342345066+342066485+341819092
2868+341720833+341635558+341173936+340180730+338957948+337896296+337154611
2858+336714193+336469129+336261921+335986514+335662808+335392694+335250051
2848+335143783+334829814+334208686+333523451+333081163+332863477+332573782
2838+332036376+331424279+331049132+331001749+331085472+331060669+330832328
2828+330381749+329646027+328585045+327373800+326430199+326093332+326235269
2818+326327848+325957393+325183073+324368884+323775910+323376948+323007870
2808+322594090+322157236+321656240+320962855+320042928+319088567+318389219
2798+318048789+317890940+317682145+317298919+316624480+315584843+314443279
2788+313735781+313702229+314009741+314148044+313880788+313264422+312488126
2778+311812205+311450112+311336365+311110705+310485343+309549998+308612430
2768+307878048+307383015+307054863+306731897+306251330+305552017+304662503
2758+303723242+303023013+302751946+302687593+302355277+301530681+300456539
2748+299579056+299131088+298955034+298717343+298256956+297679189+297157624
2738+296718335+296247152+295703607+295209739+294822578+294403559+293884746
2728+293416104+293056057+292610118+291965245+291298339+290806252+290463352
2718+290132024+289754796+289380566+289066103+288777078+288394293+287831026
2708+287131996+286462178+286008601+285822950+285724745+285445034+284920717
2698+284354645+283929963+283582706+283142641+282589323+282041527+281565599
2688+281130332+280725602+280414826+280251861+280203014+280161523+280008226
2678+279677763+279223056+278777682+278375350+277901874+277333738+276856275
2668+276602426+276488925+276426795+276429282+276409119+276151741+275606167
2658+275002380+274595268+274391976+274185439+273824458+273378854+273003883
2648+272722108+272408281+271946677+271374148+270854683+270474190+270144786
2638+269808501+269562890+269448490+269343704+269180510+269008002+268826550
2628+268611757+268423319+268273285+268043003+267690613+267350624+267142675
2618+267051508+266998868+266881117+266599730+266199639+265893873+265818001
2608+265841392+265741493+265499092+265289732+265198812+265080655+264795440
2598+264485387+264400183+264479531+264409003+264098774+263763865+263523158
2588+263285238+263028919+262872675+262873099+262950788+262982947+262904640
2578+262772088+262693940+262670178+262600709+262450745+262281783+262154399
2568+262113014+262182519+262271075+262185077+261879310+261601064+261627789
2558+261931492+262253787+262420580+262423614+262320434+262196137+262073323
2548+261797140+261217008+260496404+259998107+259862538+259898984+259858022
2538+259636720+259248148+258765270+258319772+258015099+257808227+257607035
2528+257473689+257543017+257755958+257885493+257800677+257530033+257143226
2518+256726835+256392209+256194545+256100343+256063968+256077587+256156917
2508+256311361+256501740+256621802+256580823+256413624+256250607+256172018
2498+256153654+256158840+256194262+256221359+256076846+255607868+254935458
2488+254469144+254513775+254894867+255113876+254868176+254317716+253862639
2478+253747534+253866556+253914485+253725695+253423598+253205806+253068226
2468+252848599+252504253+252199193+252082976+252107761+252098623+251904946
2458+251509600+251100125+250941852+251069571+251229713+251207221+251052336
2448+250918796+250834403+250722402+250564818+250435159+250350678+250185966
2438+249818246+249316933+248918042+248814438+248984282+249229576+249376047
2428+249379099+249246829+249007039+248774411+248688501+248763950+248899078
2418+248998695+249046219+249116305+249288249+249490870+249534284+249352779
2408+249101082+248987546+249101311+249386490+249706263+249928853+249988638
2398+249923808+249902463+250186319+251029368+252665595+255457287+260000171
2388+266978458+276901682+290060315+306717044+327140202+351316769+378744481
2378+408626895+440139909+472256693+503386551+531699331+556167499+577051996
2368+594968588+609486313+619098585+622962390+622004077+617769323+610574955
2358+598863935+580865102+556540706+527722343+498738546+476048524+464704960
2348+466382413+479667547+499529837+518146694+530346502+536580369+539448005
2338+540700176+540979323+540731859+540542010+540242577+538833791+535858936
2328+531702259+526334656+519042629+509539130+498637006+487609810+477057819
2318+466646071+455978674+445317804+435123108+425241992+415018435+404038551
2308+392456908+380785615+369589244+359194220+349540881+340395664+331685855
2298+323517792+315964189+308998938+302584924+296690040+291237725+286141453
2288+281402105+277111906+273367811+270245673+267808841+266011713+264604550
2278+263261265+261842089+260466732+259313190+258405153+257628486+256888600
2268+256169442+255482161+254852017+254328671+253929550+253593866+253230520
2258+252786398+252264975+251710281+251172769+250688338+250273976+249901987
2248+249495122+249013337+248537938+248205728+248057723+247998468+247907424
2238+247741866+247519435+247261528+246994024+246757833+246596880+246550449
2228+246611239+246674604+246629762+246516156+246477964+246586930+246813860
2218+247102779+247370847+247532577+247609385+247723767+247942847+248215960
2208+248471485+248677352+248811880+248888441+249001465+249223720+249488559
2198+249716618+250004550+250509214+251188469+251830396+252308971+252660232
2188+252930329+253096151+253148103+253124764+253041324+252903003+252810196
2178+252910412+253205894+253520057+253682792+253662770+253516794+253304894
2168+253087578+252926360+252832335+252763906+252694349+252608245+252462727
2158+252264428+252123990+252123814+252222937+252357253+252525052+252763871
2148+253124518+253670638+254548950+256081715+258580095+261962416+265781537
2138+269708161+273787571+278225140+283137155+288525540+294357693+300620068
2128+307301551+314345443+321624945+328981855+336366389+343871410+351431681
2118+358619804+365012649+370532528+375158446+378629005+380658390+381184400
2108+380353347+378428713+375647234+372107630+367856505+363005527+357710532
2098+352102803+346275836+340349587+334503462+328863274+323425037+318139286
2088+312933553+307699489+302453677+297384236+292604738+288091526+283898351
2078+280152280+276876738+274020993+271560610+269469747+267714375+266291265
2068+265197789+264368535+263650524+262879855+262035695+261243187+260615796
2058+260194942+259954535+259757047+259467369+259162538+259051472+259216801
2048+259559277+259919059+260238356+260640846+261238442+261938548+262655025
2038+263522047+264680070+266093072+267674877+269355012+271055998+272773919
2028+274545203+276293043+277869609+279205080+280362151+281523244+282769964
2018+283746182+283857724+282978124+281615363+280322177+279273579+278357251
2008+277392340+276268064+274996981+273657753+272325881+271066071+269891977
1998+268776821+267866050+267512601+267773771+268041433+267618674+266527985
1988+265300811+264291322+263596879+263244030+263127513+263052946+262982718
1978+263036416+263268003+263588164+263850428+264018844+264309686+264952566
1968+265693986+265901529+265393283+264725654+264436152+264504598+264712494
1958+265030696+265438249+265777515+265990650+266219309+266590398+267103319
1948+267782750+268825897+270373497+271950857+272505657+271598202+270109716
1938+269157383+268992108+269241124+269573933+269898945+270249042+270651762
1928+271201304+272258370+274078307+276127803+277602053+278655573+279856163
1918+280678572+280164310+278835155+278254282+279133406+280831728+282189744
1908+282604336+282474677+282583820+283193182+283977540+284630598+285243454
1898+286129934+287311913+288324242+288952532+289777288+291109001+291985479
1888+291427804+290016707+288910424+288371730+288083975+287905328+287819894
1878+287752119+287643734+287579469+288074785+290048901+293715784+297266044
1868+297800874+294791160+290763244+288040050+286993446+286851561+286848139
1858+286671027+286433512+286397614+286663300+287240221+288275483+290039940
1848+292901454+296956943+300808577+301574641+298537091+294691879+292680557
1838+292495895+292814556+293117535+294423352+297800592+302253420+304988468
1828+304929583+303750762+302473858+300552540+298194261+296685453+296538647
1818+297055061+297519928+298131249+299576480+301830043+303713963+304106963
1808+303320576+302666741+303276756+305580631+308975335+311787861+312600215
1798+312023399+312300887+315140121+319921701+323216242+321912771+317737431
1788+314802831+314790553+316640180+318815030+320808040+322426433+323256039
1778+323770653+325686397+330412374+337200900+342484640+342967395+339656696
1768+335459164+332230988+331394325+333571327+337087294+339208446+339739748
1758+340297476+341063259+341863511+344291470+349822215+356816325+361186877
1748+361244174+359286304+358021220+358534987+360583566+362952464+364325121
1738+365532309+369370394+376457154+381880961+380501176+375133255+370085795
1728+366452236+364662446+364999278+366761583+369712094+375413813+385138138
1718+396121479+401307208+397871683+390913242+385476486+383464566+385247863
1708+390235663+396316409+401018535+404978694+411287288+420056299+426272455
1698+426972791+424255031+418961271+412512504+408760717+409431875+413271724
1688+419401653+428997942+441143770+447831144+443720334+436017985+431878279
1678+432949845+437768118+442985846+446427616+449790884+454522682+457637534
1668+456087129+453316870+454283827+459039440+463401454+464455520+464571702
1658+467963372+477218984+492915636+510109277+516111240+511866607+510782305
1648+515611303+519695123+517038364+511444360+508988211+511488391+518914028
1638+530670702+543363145+549562930+546996174+543336190+544656525+551291401
1628+560635322+570496786+580800679+591174323+599435494+605423168+612644067
1618+623493445+634956437+641454986+643567776+645670899+649227827+653041039
1608+655822905+657638768+659505435+661999335+664641840+666911421+669241897
1598+672369027+676357799+680762821+685210674+689510417+693486276+696989082
1588+700063995+702889399+705502621+707830416+710080098+713114297+718319924
1578+726235866+734100581+737110788+736560610+738694922+746098932+756111154
1568+764862912+772599978+781653111+792686587+806458887+825767682+850380186
1558+867652540+869403978+866063960+864259388+863465628+862050774+859505928
1548+857156540+857554161+862118373+870072913+878907301+882557019+873698711
1538+858198682+847951557+844613515+842917468+838407096+833070575+831029618
1528+832256493+834109753+836143019+840145763+845047970+846749167+844993072
1518+843007012+840762622+836654105+832230878+830946777+834875782+843788424
1508+853743631+855324731+844708774+832523290+826141170+825231405+827370021
1498+829518516+828945123+826275310+825339860+828526756+834332873+837977087
1488+835699744+829335617+823407498+820280721+819470943+819693427+820913740
1478+824057311+829536792+836618330+842549483+842613484+835991239+828679878
1468+825742985+826981079+828543762+827471773+826168267+829253341+837924376
1458+847397145+848561854+840333036+831119303+825452901+823172807+822819358
1448+822576481+821192463+818893810+816631779+815162945+815454087+818598011
1438+823902284+827354921+825700153+821932313+820280015+820644825+820266891
1428+818126722+816082730+815824330+817292741+819867153+823003033+824833431
1418+822565896+816672847+810712410+806866528+804943622+803802057+802953681
1408+802976261+804089248+805120099+805156510+805309701+806882757+809186561
1398+810755453+811360388+811088016+809342716+806710302+805341172+806158289
1388+807344449+806516325+804440509+804276380+807414095+812481701+817696995
1378+822760014+828110366+833087157+836018970+836632301+836790997+837964809
1368+839895265+842028871+844480151+846964807+848214544+847493534+845863675
1358+844931471+845022214+845108230+844402814+843438504+843033332+843075458
1348+843039542+842991841+843636291+845672803+848998567+852331882+854053613
1338+853800222+852827021+852567420+853288148+854338263+855477923+857320952
1328+860121940+863056928+865338928+867211099+869452314+872550654+876357092
1318+880171786+883393541+886057073+888571789+891415892+894987991+899063061
1308+902681167+905207596+907138123+909386535+912237553+915307457+918093769
1298+920173747+921079209+920601781+919297640+918003378+916755052+914853315
1288+911948034+908547755+905673875+904252035+904354845+904831003+904205676
1278+902167823+899768336+898118226+897393899+897219186+897540670+898669815
1268+900510233+902287356+903286031+903627414+904121000+905413287+907464335
1258+909703150+911428127+912372540+913175685+914747964+916929271+918434093
1248+918376866+917227681+915975898+914976658+914018345+913059398+912328508
1238+911828148+911212488+910129631+908413192+906278880+904509872+903760072
1228+903591991+903264580+903151045+904120930+905917458+907194220+907099455
1218+906187854+905696173+906491556+908913271+912788013+916817782+918936994
1208+918534151+917330703+917204960+918293885+919689475+921002084+922677949
1198+925197816+928341529+931323934+933573546+934966808+935566097+935836988
1188+936466902+937340398+937809782+938396934+940786119+945815692+952460799
1178+958567019+962102919+962576748+961872955+962585286+965029368+966879736
1168+966286868+964410321+964087779+966718782+971018101+974546380+976106594
1158+976297043+976005407+975555498+975390382+976158740+977846671+979569391
1148+980467302+980638064+981144987+983128788+986424422+989342193+990431541
1138+990093122+990217312+992522739+997262722+1003131921+1008048523+1010127867
1128+1008645202+1005048194+1002354249+1002545192+1005033094+1008070115
1120+1010745220+1012798950+1013941643+1014378638+1014584611+1014474110
1111+1014199268+1014816974+1016747995+1019286349+1022400425+1026244402
1103+1028881262+1028398754+1026577247+1026883772+1030406618+1035632920
1094+1040226414+1042013205+1040617332+1038469543+1038199922+1039561008
1085+1040248783+1039201631+1038197312+1039870919+1044210882+1047870126
1077+1047863352+1044883628+1042032680+1041801375+1044503859+1048144333
1068+1050488710+1051506225+1052588164+1054527229+1056843170+1057831683
1060+1055649036+1051186082+1048783632+1052172197+1060277459+1068069706
1051+1071881718+1072663483+1073077898+1073741823+1073520750+1071797537
1043+1068934946+1065097037+1060532544+1056608337+1054928872+1055889302
1034+1058767840+1062013939+1063019528+1060043403+1055646496+1054764461
1025+1058442827+1062904158+1065120747+1065602902+1065557742+1064956618
1017+1063074567+1059362260+1054409389+1050495837+1049820834+1052162106
1008+1055494715+1058031729+1058344675+1055856279+1051966859+1048649915
1000+1046517508+1045140688+1044385313+1044453900+1045144428+1046100341
991+1047226100+1047927846+1046895443+1044085210+1041941795+1042901308
983+1046503678+1049907838+1050627437+1048439779+1044537023+1039721044
974+1034600586+1030214828+1027102093+1024311900+1020286435+1014904613
965+1009935583+1007473154+1008077877+1009930926+1010122716+1007278401
957+1002438289+997580396+994331615+993566786+994896400+996263553+995064480
947+990414676+984158793+979278249+977482497+978198145+979458537+979654772
937+978744512+977719306+977025109+976319129+975609056+975003909+973693841
927+971010904+967993781+966168675+965697598+965899196+966204168+966327441
917+966509281+967275028+968761998+970600722+971894138+971316229+968491813
907+965022736+962649427+961286084+960057516+958864723+957934282+957178273
897+956654768+956610101+956875700+956931444+956633528+956656461+957746656
887+959249431+959328461+957150612+953979733+951796451+951398688+951681927
877+950787403+948325680+945962745+945596877+947568471+950875536+954476142
867+957699802+959689319+959424780+957017460+954156493+952150394+950400790
857+947811771+945014875+944079848+946089405+949575770+951666545+951137183
847+949559188+948655773+948132267+947157019+946380829+946783813+947308024
837+945839119+942546731+939932168+939442039+939913822+939642014+938616526
827+938239862+939446908+941501837+942841189+942946469+943023029+944402390
817+946796655+949093615+951313307+954489196+958633207+962239246+964152485
807+964302290+962498211+958689375+954324009+951231807+949970851+950443621
797+952637771+955682554+957552538+956876899+954725299+953782581+955269621
787+957425243+958031447+957488537+957750819+959381242+961369913+962413677
777+961406112+958603641+956351771+956828140+959750003+962782650+963534637
767+961395809+958312358+957503003+959876734+962467658+962571526+961739097
757+962818778+965524507+967385459+967480719+966776361+965771336+964142253
747+962192675+961494174+963698061+968751978+974372937+977496539+976451434
737+972021645+966573141+962245456+960319163+961449296+964952949+968095744
727+967991664+965128086+962914602+963131936+963780831+961660279+956693224
717+952399621+951528736+953393357+955737946+957074475+956593449+954054600
707+951091317+950749370+954362607+959734127+962972605+961682859+956088290
697+948356375+941692004+938723640+939664594+941818805+941766730+938893202
687+935609282+934327368+935669966+937865314+937219171+931852379+924717637
677+920853690+922074214+925390735+926016627+921123452+911346627+903079988
667+904300583+911355660+916347411+918317453+919291854+919201463+917044641
657+914145006+912367812+911250168+909169202+905670559+902053723+899886388
647+898805225+896855717+893231895+889096917+885864014+884245727+884191958
637+884978945+886320696+888931024+892309569+892952679+888318822+882053907
627+880989185+887671832+898286447+906542291+907913396+901755172+892255024
617+886990195+888469050+890090794+884487334+873349001+865356992+865414712
607+870497560+875047094+877105904+877075068+873821066+867321601
##END=
