##TITLE=<SNM>
##JCAMP-DX=4.24
##DATA TYPE=INFRARED SPECTRUM
##DATE=3/5/2025
##SAMPLING PROCEDURE=Instrument type and / or accessory
##ORIGIN=Admin
##XUNITS=1/CM
##YUNITS=ABSORBANCE
##RESOLUTION=4
##FIRSTX=4497.3318
##LASTX=599.83466
##DELTAX=-1.4281778
##MAXY=1.7243291
##MINY=0.17947929
##XFACTOR=1
##YFACTOR=1.6059066e-09
##NPOINTS=2730
##FIRSTY=0.20112215
##XYDATA=(X++(Y..Y))
4497+125239006+125690697+125824036+125228613+124394090+124157755+124538675
4487+124781812+124573954+124511395+125148944+126216536+127066536+127404272
4477+127316270+127023556+126802837+126817628+126932891+126880001+126534452
4467+125943372+125332538+125122007+125589268+126453781+127031211+126922063
4457+126504138+126527994+127103513+127466478+127095524+126459905+126129564
4447+125931709+125573754+125174907+124668228+123630904+122137055+121001160
4437+120866012+121505296+122129214+122142121+121609499+121074594+120945839
4427+121170882+121508813+121901545+122380433+122697616+122428563+121589716
4417+120790546+120542102+120700782+120743103+120310545+119388429+118222535
4407+117230651+116845258+117165958+117686035+117626482+116774793+115781247
4397+115405078+115659619+115943472+115912164+115841208+116027725+116331778
4387+116545593+116721625+116849470+116688963+116178582+115595074+115176184
4377+114955094+114916206+114963250+114852441+114486219+114145291+114147870
4367+114453334+114786588+114911427+114704710+114281348+114018345+114081971
4357+114134917+113931791+113799222+114022938+114297187+114317777+114356499
4347+114739182+115231004+115376694+115118451+114711531+114238136+113566570
4337+112754252+112131327+111885054+111862794+111916120+112188383+112845233
4327+113663851+114098803+113765372+112828957+111954229+111761968+112191947
4317+112626008+112754401+112809434+112844936+112576922+112129276+112077741
4307+112557983+113127369+113579320+114144307+114879257+115488644+115727364
4297+115563192+115063166+114417545+113967608+113985887+114478266+115272027
4287+116109658+116605294+116395645+115534575+114593855+114195026+114470778
4277+115052338+115512334+115692476+115652372+115520685+115430660+115484840
4267+115770122+116351598+117109727+117697485+117888112+117842552+117850894
4257+118029830+118435098+119106190+119782869+119970619+119573396+119105337
4247+118973993+118936450+118672965+118487905+118855037+119556443+119888640
4237+119563337+118946518+118539524+118528556+118748848+118938204+119021743
4227+119175486+119649456+120459955+121179010+121265491+120747817+120293964
4217+120491689+121357705+122488320+123339832+123489344+122878946+121739683
4207+120411241+119467198+119596092+120847167+122276054+122835687+122482205
4197+122017263+121938086+121884927+121312442+120319768+119535222+119414317
4187+119948034+120888876+121940786+122735075+122948102+122643325+122335495
4177+122521937+123210428+124009273+124592456+124958744+125233141+125313553
4167+124938785+124184952+123594039+123623342+124205996+124990979+125699902
4157+126073139+125837258+125038246+124176174+123712030+123606686+123592508
4147+123632018+123769699+123850825+123807743+123916223+124365057+124900379
4137+125258835+125565830+125928118+126052994+125740729+125380352+125400655
4127+125501805+125019493+123950964+123139639+123394875+124613900+125821799
4117+126172275+125842649+125654008+125956521+126337181+126364953+126134269
4107+125995687+126123217+126504964+127106788+127779375+128159942+127998794
4097+127480944+126966472+126601400+126414521+126498580+126831407+127162889
4087+127266173+127160987+126980214+126746987+126436596+126183791+126220934
4077+126573906+126963076+127058900+126797298+126415524+126140996+125953106
4067+125780480+125701832+125712011+125628871+125484268+125557033+125839337
4057+125987568+125884924+125800114+126005653+126504314+127012644+127157990
4047+126857221+126390572+126016416+125730439+125448989+125191247+125057602
4037+125168987+125567704+126182863+126955671+127818782+128459133+128441791
4027+127777927+127074813+126911550+127276807+127777751+128146274+128356898
4017+128448249+128412451+128249985+128061242+127987205+128023402+127983271
4007+127711749+127284991+127010760+127259307+128124376+129134568+129538658
3997+129075489+128270659+127832877+127990666+128554558+129285277+129955516
3987+130341744+130404182+130286181+130056638+129699556+129389842+129454322
3977+129927030+130412431+130563725+130481791+130458752+130527778+130467242
3967+130190970+129991017+130295553+131150629+132097594+132710675+133006451
3957+133109225+132931282+132545759+132510295+133342749+134697191+135476662
3947+135165148+134630698+134909475+135744137+136092173+135656442+135012574
3937+134676768+134894453+135827444+137295878+138523569+138736939+138180962
3927+137930532+138499333+139109369+138858076+138252503+138553169+139968695
3917+141231878+140948146+139130943+137060090+135904803+135989362+137303190
3907+140136709+144604293+149604897+153069702+153844403+152308372+149197532
3897+145426716+142589049+142215310+144250467+146399820+146446057+145561400
3887+146185522+148082552+149261547+149752479+150755545+151100806+149263338
3878+147173927+147566985+150364826+153802954+156705138+157992206+156791414
3868+154797929+154420071+155095348+154439594+152126541+150176862+150231441
3858+153112859+159587650+168718678+174133514+169735504+160408134+152824988
3848+149144734+149274399+152191280+156425822+160910795+165218984+168383595
3838+168595675+165726321+162048897+159089685+156691238+154855561+154337145
3828+155133995+156436493+158769876+163593772+169412893+171615591+169795762
3818+168029491+166885060+163715827+158906444+155599177+155664984+158893639
3808+163175921+166129511+168388736+171929758+175425406+175725804+173663757
3798+171986100+170586720+168613287+167123752+167419770+169390048+172482803
3788+176544265+181076244+184998057+188255254+192400041+198222706+204077143
3778+208193759+211452533+216039778+223303190+233119580+243419071+251378703
3768+256759912+261617750+267140260+273859998+282982989+295125321+308789423
3758+321854548+334537751+349234639+368120611+390451494+410404400+422788041
3748+431144125+441393194+453821968+463497782+469427341+476313043+486939209
3738+500457408+514273870+525802732+533596771+538154045+541249287+544074437
3728+546332530+546585289+543983317+539998556+536889395+534958998+532939968
3718+530587341+529751825+532782708+539547523+545771523+547197627+545561113
3708+544724187+545800102+548510638+551973031+554312148+554875604+555563918
3698+557680081+560620067+564228696+569884006+578395346+587273169+591304733
3688+589039217+585391245+584236236+585472752+587894303+591228052+596243707
3678+602838049+607264898+605831000+602909980+603554423+604398772+598942329
3668+588757879+580579097+576988951+576611817+577493208+579267013+582721314
3658+587151800+589768396+589961250+591324331+597027335+605714864+611135713
3648+608846257+602477208+597224086+594754618+594522681+595865348+598856034
3638+603259723+607363292+609359644+610173892+613008915+619067378+624299121
3628+623775491+620212551+618946343+621485737+626738749+632782625+637599896
3618+640704194+643922438+648179778+651610325+652409356+651823371+652275442
3608+654074746+656040700+658368311+662334960+667315466+670420730+670558801
3598+670385470+672235622+675450303+678941201+683182952+688110309+691585469
3588+691352975+687858366+683686021+680489304+677853928+674609703+671081838
3578+669273923+670102869+672227383+674680891+678781454+685590289+692466971
3568+694023760+688233682+679617972+673310201+670608610+670345533+670578843
3558+669720130+667994687+667429041+669353054+672205558+673403436+672662381
3548+671460643+670579066+669870004+669385790+669410064+670377007+672615615
3538+675279867+676483535+675600994+674049401+673020401+672161316+670656341
3528+668650599+667319772+667260832+667533634+667116377+666059762+664604300
3518+662945071+662026973+662568864+663746329+664403131+664286884+663232125
3508+661189341+659580368+660201613+662684592+664904047+665593067+664725149
3498+662312988+658950140+656516377+656601373+658461398+659753847+659587271
3488+659393823+660258104+660984387+659746350+656882340+654590805+653919008
3478+653875211+653689631+653795857+654148458+653975721+653730979+654829015
3468+656973125+658067302+657221727+655632796+654258469+652629602+650026368
3458+646445947+642565778+639610834+638824349+640366514+642915929+644739952
3448+645154388+644747673+644328263+644249577+644677375+645488580+645639567
3438+643658247+639718322+636320140+635679371+637290572+638978454+639540091
3428+639394968+639376930+639815714+640491446+640937504+640753706+639918599
3418+638858792+637985901+637104695+635744250+634514155+635158487+638241629
3408+641400488+641356320+638151809+635286611+635042166+636111474+636259938
3398+635062208+633231876+631254935+629557997+628684883+628854428+629994554
3388+631925545+633934108+634720223+633514773+631012271+628696240+627545722
3378+627657886+628495592+629179563+629194558+628803208+628197032+627025357
3368+625428632+624320352+624092906+624242483+624525677+625355588+626883946
3358+628358857+628721108+628104539+628177806+630006802+632172217+632319567
3348+630301428+627965651+626497866+626035699+626846162+628912106+630876947
3338+631119982+629882019+628934673+629205619+629848763+629569577+628098897
3328+626369223+625510213+625688369+626165605+626334260+626082762+625431824
3318+624502739+623629180+623148974+623398096+624742508+626902875+628664692
3308+628948109+627816297+626111564+624397850+622938527+622402871+623422073
3298+625368356+626596298+626166570+624461021+622351206+620717105+620167307
3288+620660614+621692621+622911507+624256512+625409926+625594689+624493609
3278+623123661+622671367+622783903+622197620+620627396+618864577+617630473
3268+617418133+618702009+621238509+623759457+625134006+625354178+625004991
3258+624430883+623859892+623709944+624232684+625267846+626485989+627137670
3248+625786949+621895497+617564110+615701078+616670248+618291507+618708393
3238+617892029+616788017+616266279+616495210+616663233+615830836+614145923
3228+612667746+612267748+613000898+614034649+614118123+612725090+610712221
3218+609285190+608618514+608091728+607515541+607331818+607627446+607707245
3208+606948745+605570929+604242848+603465456+603467163+603881302+603630473
3198+601970243+599391617+597073173+595902835+596038679+596803377+597255375
3188+597265990+597334283+597501564+597395784+596786712+595319336+592667629
3178+589573871+587453626+586627353+586099379+585037048+583556830+582197572
3168+581262177+580701616+580393628+580336247+580483597+580612167+580359519
3158+579312888+577410588+575333657+574178796+574510835+575699174+576282784
3148+575297655+573206731+571072419+569165220+567143332+565204547+564084055
3138+564064458+564653116+565101476+564931596+564160031+563100002+561908248
3128+560647755+559803332+559943407+560639256+560599319+559169652+556916607
3118+554642368+552749310+551598272+551563160+552495697+553643060+554298972
3108+554351008+554013365+553161815+551397438+548911082+546648869+545271943
3098+544471911+543507529+542130381+540954104+540826760+541721920+542671753
3088+542952349+542741048+542474297+542234676+541842584+541109880+540098880
3078+539170612+538472759+537655430+536456884+535109503+533943470+533099715
3068+532609080+532278934+531726056+530893435+530196028+529894387+529639995
3058+528864755+527479850+526028768+525140585+524814188+524358405+523225999
3048+521687805+520482096+520039415+520184092+520423564+520359057+519777933
3038+518583841+516968261+515525418+514742978+514433951+514016917+513209275
3028+512203843+511467130+511369144+511567194+511064683+509434776+507431817
3018+505919753+505035022+504688842+504841091+505048643+504665570+503647259
3008+502523130+501583912+500592324+499330644+498148540+497721485+498123895
2998+498400000+497599596+496131403+495322463+495658102+496206415+495887329
2988+494655305+493121305+491642720+490285058+489197340+488487573+487962865
2978+487378401+486786811+486369480+486094749+485798490+485469977+485162880
2968+484624254+483353369+481242997+478931754+477232403+476383378+476111838
2958+476131064+476221107+476120337+475702487+475116761+474633178+474442477
2948+474465526+474266770+473409801+471943353+470338091+469086951+468499815
2938+468524126+468602738+468050602+466681545+464900020+463346497+462571778
2928+462661709+463017762+462881658+462094096+460939532+459487744+457708817
2918+456065808+455348024+455748059+456519958+456732187+456103704+454940640
2908+453564198+452201043+451259821+451181841+451863288+452535234+452429639
2898+451462028+450148015+448940227+447829311+446599847+445226151+443889052
2888+442780957+441956465+441258797+440496177+439799104+439502771+439531573
2878+439356052+438746015+438045750+437536334+437032412+436290020+435452945
2868+434884738+434706879+434650054+434357878+433782025+433159295+432575982
2858+431799963+430665961+429452123+428678740+428528977+428644667+428553511
2848+428093385+427357006+426510727+425743912+425102253+424378159+423409806
2838+422338938+421407849+420736757+420348154+420147542+419913935+419476858
2828+418798937+417916210+416995810+416272421+415721956+415036351+414054599
2818+412987480+412194165+411874857+411836145+411548720+410757632+409946501
2808+409745185+409996088+409887821+408958922+407526286+406159753+405132200
2798+404380492+403718307+403009839+402202866+401281019+400326955+399558805
2788+399035805+398438090+397488109+396432682+395745630+395527685+395454864
2778+395147470+394406415+393210318+391687231+390138125+388916715+388075187
2768+387255928+386173332+385012941+384115924+383528009+383072485+382607126
2758+382047345+381366825+380671310+380113830+379697130+379284624+378812324
2748+378329150+377788854+377015025+376012265+375114469+374605758+374277691
2738+373584700+372311292+370909499+369976183+369545193+369158780+368491102
2728+367551588+366392087+365053651+363813127+363070772+362829631+362571861
2718+361879798+360941991+360181004+359645533+359049007+358189032+357137093
2708+356152112+355424715+354824922+354070579+353220551+352690759+352649226
2698+352661511+352121884+350952399+349702856+348892393+348449118+347953102
2688+347202433+346326795+345549551+345036276+344834736+344822859+344753527
2678+344395693+343675719+342711040+341690242+340756035+339992709+339388686
2668+338816693+338189212+337578767+337096817+336769715+336561123+336367193
2658+336016633+335401771+334568186+333676365+332948634+332539209+332346132
2648+332080085+331584254+330955363+330339536+329761011+329183933+328605296
2638+328001792+327296850+326556945+326107397+326167562+326440735+326404584
2628+325931913+325288176+324651341+323997248+323350095+322828729+322476759
2618+322205182+321852507+321274686+320522310+319914649+319730926+319835963
2608+319826165+319523336+319087225+318665143+318224614+317765083+317416490
2598+317217995+316992478+316556886+315932263+315266627+314688584+314308332
2588+314194312+314234249+314160908+313847538+313475006+313278589+313221542
2578+313069515+312719921+312276608+311863731+311584360+311576269+311831775
2568+312034984+311862544+311404645+311071753+311146021+311565913+312073547
2558+312443370+312576839+312468460+312164890+311755279+311320707+310877859
2548+310438593+310094176+309945156+309956420+309957404+309805507+309516931
2538+309198421+308874566+308481361+308061469+307834728+307955633+308255937
2528+308362367+308099104+307679955+307452453+307514789+307635787+307532549
2518+307201030+306909726+306807861+306683337+306296757+305788659+305474622
2508+305382426+305285126+305063749+304777196+304481939+304211958+304053065
2498+304041132+304038961+303873591+303533535+303109505+302666972+302287518
2488+302046673+301849253+301509476+301047680+300657685+300381302+300049838
2478+299537806+298951431+298583000+298631640+298905537+298966555+298638785
2468+298139725+297695206+297323658+296975882+296612183+296192644+295788805
2458+295617700+295789213+296086010+296148959+295863166+295436649+295124319
2448+295028709+295116989+295214863+295040753+294487466+293803049+293296529
2438+292995593+292751148+292531515+292459714+292608623+292826438+292834714
2428+292560948+292245147+292106575+292098948+292106538+292134560+292185038
2418+292162304+291999124+291749093+291527493+291424867+291469221+291663597
2408+292018109+292458137+292764955+292762264+292526263+292319564+292358443
2398+292632025+292889961+292890963+292690835+292545248+292569187+292659193
2388+292637481+292287348+291371662+289752574+287419266+284397680+280720851
2378+276440331+271642324+266536551+261489348+256863335+252872636+249587639
2368+246939049+244773987+243070850+242068369+242162309+243692578+246711362
2358+250964656+256264378+262860334+271203484+280949818+290307846+296999488
2348+299738287+298865229+296192069+293676744+291645317+289161708+285784218
2338+281909283+277956218+274016516+270218577+267017815+264925759+264009090
2328+263790329+263651905+263305020+262958692+263117288+264176538+266093815
2318+268328284+270187418+271413133+272331046+273309161+274361897+275471365
2308+276872620+278676545+280518309+281899688+282695416+283107996+283333048
2298+283513301+283860502+284541653+285450453+286255534+286710129+286869338
2288+286999225+287287263+287663729+287924895+287960378+287803693+287560399
2278+287359620+287271544+287206165+286989482+286580799+286125165+285777240
2268+285570579+285475674+285493731+285643233+285887957+286099870+286108629
2258+285849022+285471443+285230115+285243106+285403057+285497275+285397935
2248+285169932+284972939+284877607+284885234+285062630+285460456+285945320
2238+286290052+286407802+286413963+286496138+286750122+287135422+287585600
2228+288084920+288614750+289157681+289780170+290566024+291473211+292385055
2218+293275261+294238957+295387471+296748677+298257382+299851231+301556762
2208+303419793+305371978+307287732+309176430+311155059+313228928+315309607
2198+317431300+319710215+322117217+324469733+326603117+328498811+330298486
2188+332120727+333866473+335364210+336607964+337697240+338715626+339715751
2178+340648250+341393277+341939549+342334425+342540900+342543758+342392103
2168+342052270+341468920+340697058+339791022+338739566+337554419+336284647
2158+335023189+333892714+332901423+331932104+330904366+329839065+328888008
2148+328246126+327930530+328181804+330139778+335050395+342640260+351307153
2138+359864888+368131263+376160951+383886697+391232710+398189006+405001923
2128+412102266+419654087+427402473+434840459+441428120+446970784+451599060
2118+455156024+457218294+457870123+457796559+457768759+458687415+461775568
2108+468021540+477523392+489752556+504132883+519615143+533925618+544311421
2098+549010404+547592243+540983314+531353301+520633120+509411207+497600190
2088+484957481+471011781+455617486+439278962+422724609+406824128+392435598
2078+379809220+368813713+359596948+352236089+346310538+341407790+337406697
2068+334173533+331519598+329211584+326943395+324737858+322957484+321626805
2058+320463222+319465139+318717105+318123362+317801642+318039443+318870765
2048+320340220+322816740+326710234+332369070+340233146+350744365+364325475
2038+381332567+401547325+423974376+447334779+470174818+490632908+506916240
2028+517835845+522855694+522428453+518049484+511477300+504057204+496347715
2018+488067718+478870216+469054809+459132731+449175950+438908583+428118921
2008+416958434+405906957+395383342+385548004+376467565+368151306+360484612
1998+353434264+347236431+342148363+338024751+334278719+330408534+326504871
1988+323002913+320107986+317730602+315758412+314147769+312863373+311823015
1978+310891796+309997953+309191759+308487708+307848535+307401103+307324255
1968+307422853+307176125+306369356+305383521+304710146+304444210+304391691
1958+304436063+304540526+304553721+304310111+303856536+303415562+303193349
1948+303306609+303837199+304766358+305667216+305728086+304619360+303053460
1938+301940744+301483940+301373947+301350694+301346537+301382521+301479431
1928+301695241+302262112+303351834+304620084+305573034+306354212+307222260
1918+307526518+306495234+304764687+303744279+303978814+304913040+305690692
1908+305853519+305527289+305130799+304928536+304894723+304951009+305201393
1898+305815939+306642770+307216878+307484558+308048014+309108359+309794391
1888+309326972+308178903+307225823+306690649+306421912+306359520+306445313
1878+306572398+306709281+306950757+307686357+309595116+312817795+315920423
1868+316595116+314376254+311244137+309088614+308289008+308316770+308577918
1858+308706357+308608780+308408799+308299215+308524619+309346309+310899962
1848+313305164+316572401+319639435+320284064+317947953+314981169+313479757
1838+313446019+313799993+314062810+315017060+317561873+320989636+323199405
1828+323416533+322855563+322069041+320481520+318438216+317252698+317370912
1818+318026082+318507734+319056344+320312791+322192154+323681392+323963398
1808+323400610+323026927+323658380+325625522+328552852+331211759+332409674
1798+332433688+332950342+335335928+339143795+341711917+340681766+337477514
1788+335328059+335513899+337189681+339200879+341170768+342892165+343996474
1778+344847801+346780574+350892271+356558976+360907473+361426093+359148774
1768+356445661+354585784+354471690+356549066+359550888+361417223+362110028
1758+362961244+364113506+365419837+368121057+373290037+379421804+383162046
1748+383353824+382063787+381491720+382406255+384466558+386504777+387365902
1738+387959163+390886270+396677498+401115148+399983707+395783859+392096656
1728+389619134+388472104+388915157+390600774+393476587+398775028+407393225
1718+416925661+421656303+419456185+414414808+410479782+409166697+410892437
1708+415341035+420914579+425624251+429879921+436086959+444312136+450442381
1698+451934959+450444088+446850454+442510456+440605075+442541337+447232079
1688+453801628+463139391+474622786+481847875+480228435+475376609+473272064
1678+475455183+480892846+486974284+491735918+496219220+501624146+505754290
1668+506047023+505016649+506769929+511636787+516391109+518573894+519859403
1658+523559671+531826974+545180935+559680775+565374983+562926596+562830540
1648+567334553+571104154+569342337+565126863+563367125+565503107+571496691
1638+580860138+590633121+594505236+590815138+586259683+585985990+590172105
1628+596384636+602456980+608273782+614219264+619803200+625554381+633714753
1618+644971407+654924032+657426384+653734764+649043094+645296320+641904373
1608+638491493+635917358+635409761+637492037+641759250+647223451+652857271
1598+658072424+662668706+666313560+668518021+669353722+669590893+669909347
1588+670527178+671495012+672669210+673591540+674238470+675834675+680078506
1578+687158954+694092276+696803220+696763580+699078646+705515135+713666377
1568+720608383+727079389+735425118+746458929+760784398+780489221+805245516
1558+824684441+832125285+836172994+842245599+849462485+856112613+861384404
1548+865409177+869352962+873921037+878554584+882792327+885087350+880998516
1538+871484379+863749725+860315096+858454551+855166529+851430963+850075862
1528+851642450+854698646+858314921+862626228+866668890+868315053+867680520
1518+866674531+865590747+864117915+863306933+864703752+869289048+877277946
1508+886319598+888889947+880763647+870486852+865344595+865898512+870005905
1498+873901662+873677705+869524957+865771353+865294414+867185246+868273558
1488+866494668+863128851+860695311+860230694+860964178+861959923+863692715
1478+867053262+871514962+875624136+878211410+877981663+874558984+870592707
1468+869112599+870202470+871166518+870015777+868740550+870627150+876411735
1458+882950737+883944255+877709232+869865458+864503252+862129394+861543038
1448+861015547+859711591+858127337+856797623+855849832+856011509+858354115
1438+862091907+863598515+860654112+856397440+854284729+854108058+853796878
1428+852490919+851068861+850228038+849976837+850611964+852354778+853828056
1418+852908027+850014770+847315703+845546834+844127151+842504445+840779447
1408+839672057+839610668+839803373+839290655+838696132+839210113+840629573
1398+841725902+841725085+840392996+837747525+834734902+832825142+832370843
1388+832061074+830494190+828600760+829009703+832806064+838394974+843392702
1378+847011352+850215270+853865320+857536897+860531852+863190092+866046382
1368+868702692+870645189+872239761+873942786+875341981+875822706+875591029
1358+875206434+874726451+874001133+873423016+873727960+875088405+876889788
1348+878412727+879542386+880870615+883032392+885850453+888416200+890195313
1338+891585228+893067191+894530522+895870777+897638903+900604165+904749713
1328+909052186+912526752+915139191+917449878+919855729+922486652+925419549
1318+928579076+931534465+933740113+935206711+936698249+938826697+941176875
1308+942826156+943555558+944172795+945549200+947409003+948533837+948504590
1298+948372383+948858972+949037648+947823142+945577111+943128502+940443539
1288+937361585+934577151+932743032+931416659+929797813+927783979+925731768
1278+923832177+922115790+920730105+920155626+920971581+922795010+923881244
1268+922998331+921158497+920227556+920612448+921314680+921644195+921955004
1258+922699994+923413806+923126455+921457725+918671807+915011364+910692263
1248+906288166+902409779+899138236+896093917+892857412+889354341+886089553
1238+883835654+882765603+882094919+881001708+879812515+879584178+880461375
1228+881422008+881765924+881929160+882758700+884669871+887416446+890111505
1218+891804732+892548311+893362411+894850535+896571079+898094835+899839281
1208+902264804+905050945+907697456+910309450+913177394+916031531+918258113
1198+919724710+921094138+923151694+925854473+928401365+930342897+931999007
1188+933707897+935440689+937231382+939315365+941813858+944542024+947103985
1178+949321659+951565314+954240627+956852323+958162514+957608002+956224397
1168+955821021+957317237+960228310+963642971+967088884+970334817+972997436
1158+974724289+975591539+976289986+977732161+980106167+982666866+984700891
1148+986126141+987162936+988090981+989233111+990741872+992565598+994757365
1138+997384056+999764075+1000582258+999601285+998246333+997814304+998474002
1128+1000278427+1003403065+1006928109+1009176293+1010013775+1011386172
1120+1014740186+1018861386+1021355425+1021771345+1021988028+1023034918
1111+1023588836+1022462740+1020491367+1019619737+1021249644+1025176802
1103+1029191850+1030531362+1028751358+1026300151+1025659457+1027009584
1094+1029070110+1031072215+1033292487+1036183295+1039846707+1043879496
1085+1046705499+1046541447+1044098777+1042353142+1043479981+1047100338
1077+1051139883+1053806436+1055419715+1057730921+1059946071+1058783528
1068+1054529082+1052108978+1054876116+1060951615+1066153332+1068293285
1060+1067684362+1065523921+1062734885+1059930854+1058406282+1059920536
1051+1064616734+1069959046+1072884298+1072937002+1072205597+1072464962
1043+1073482160+1073741823+1072094249+1068916238+1065775863+1064030155
1034+1064006327+1065132868+1066373875+1066815925+1066106046+1064459808
1025+1062904727+1063236766+1066355688+1070267405+1071505146+1069358214
1017+1066466813+1064878921+1064368874+1064398567+1065191734+1066767600
1008+1068201535+1068301896+1066880209+1065026048+1063489451+1061143281
1000+1056713352+1051420107+1047563247+1045497674+1044361780+1044067228
991+1044244271+1043794723+1042863560+1042422846+1041907900+1040139403
983+1037725682+1035973144+1034506102+1032309213+1030026363+1029288796
974+1030469378+1031972275+1031506099+1028016241+1022287404+1015607510
965+1008581919+1001599233+995574657+991383680+988644825+986029862+983123020
955+980812779+979448696+977863699+975062044+971586810+968044989+964059114
945+959920619+957289029+957023502+957655956+957036566+955071874+953850242
935+954954217+957664716+960170706+961371330+960837753+958591648+955713608
925+953728576+953049058+952999175+953029535+953238127+953988907+955315577
915+956384589+956092338+954883400+954622252+956143261+958052577+958379716
905+956878750+955057250+954148357+953649445+952123982+949305402+946722953
895+945819404+946174454+946338210+945870921+945388117+944915855+943692886
885+941470907+938823579+936655715+935779928+935997724+935805093+934288241
875+932692332+932606297+933740188+934503290+933950783+932527389+931040824
865+929535181+927882188+927009296+928087884+930548815+932453825+933216037
855+934349259+936761866+938863071+938673928+936871729+935765973+936016282
845+936617782+937173481+937607886+936815461+934341762+932023281+931493118
835+931814913+931617753+931614338+933059408+935458356+937385413+938265431
825+938126320+937188624+936363538+936743976+938495252+940913723+943634392
815+947173688+951842866+956156103+957367640+954425687+949408213+945589582
805+944361046+944704071+945386707+946191008+946767715+946024877+943459799
795+939956727+937079355+936610433+939969124+946511763+952972748+956298554
785+956718854+956418067+956424006+956225287+955400647+954032778+951965646
776+949283281+946931841+945484099+944249105+942870547+942411720+943324251
766+944311831+944393412+944304853+945217607+947614773+951148799+954476313
756+955923461+955097633+953462307+952947064+954092163+955693936+956230929
746+955217665+953318074+951721720+951086964+950859592+950640460+951632716
736+954776580+958764756+961633220+963331717+964932228+966014973+965234352
726+962846984+960548174+959189807+957950953+956224545+955361155+956608694
716+958136458+956692799+952420093+949094064+949107129+950670598+950165600
706+946348454+941443961+938142651+936803659+935963058+934212450+931418292
696+929013183+928886543+930824141+931927596+930258792+927559057+926001303
686+924977795+923639768+922871840+922402324+920341873+917011984+914731956
676+913545064+910951703+905035134+895290358+883340900+876068710+880083758
666+888898187+892283675+888469127+881819594+877451574+877475328+880573094
656+883507773+883096454+878604467+873067742+870865360+872891590+875301154
646+874051610+869351180+864411947+861051920+858764988+857438689+858228069
636+862075279+868248467+873928237+875713214+872189803+865811216+861285231
626+860898409+861313364+856862353+847952240+841546632+842380849+847475598
616+850261739+849702402+849849678+851470677+849803580+842088153+833348995
606+830022892+832425255+836128084+839181311+842774500
##END=
