##TITLE=<SNM>
##JCAMP-DX=4.24
##DATA TYPE=INFRARED SPECTRUM
##DATE=2/5/2025
##SAMPLING PROCEDURE=Instrument type and / or accessory
##ORIGIN=Admin
##XUNITS=1/CM
##YUNITS=ABSORBANCE
##RESOLUTION=4
##FIRSTX=4497.3318
##LASTX=599.83466
##DELTAX=-1.4281778
##MAXY=1.8451287
##MINY=0.38773146
##XFACTOR=1
##YFACTOR=1.71841e-09
##NPOINTS=2730
##FIRSTY=0.40680304
##XYDATA=(X++(Y..Y))
4497+236732240+237457349+237192557+235726591+234312047+234269712+235534656
4487+236801733+237157108+237298193+238380775+239921316+240045683+237930483
4477+234881711+232833628+232656522+233771640+234667838+234058388+232108675
4467+230300636+229899251+230803496+231963220+232630178+232992785+233672161
4457+234858523+236163165+237056449+237065676+235972358+234341946+233355877
4447+233621693+234681695+235885470+236990633+237785565+237987038+237796664
4437+237895537+238639619+239674352+240340322+240151388+239044716+237586017
4427+236725285+236889228+237553499+237914839+237542399+236336023+234522556
4417+232774524+231814920+231990517+233361808+235598392+237653845+238423040
4407+237899075+236902357+235851946+234645604+233507853+233071817+233525387
4397+234239293+234462115+234107261+233639122+233456553+233622785+233959672
4387+234205145+234168794+233845330+233284112+232498770+231648740+230974532
4377+230560313+230509845+231051569+232003837+232627750+232495284+231973088
4367+231601827+231574841+231788958+231764036+230797859+228885225+227049386
4357+226210385+226340700+227052646+228190639+229476585+230360574+230573962
4347+230286537+229732706+229051215+228290448+227471895+226855578+226924343
4337+227689116+228315665+228015042+227077672+226559325+227076770+228186148
4327+228984253+229123795+228923414+228634290+228197230+227675675+227295135
4317+227037072+226711683+226399423+226389486+226639814+226671448+226216472
4307+225683731+225633853+226062762+226581923+226985477+227249558+227327948
4297+227228989+227053444+226991547+227376960+228401044+229697535+230583136
4287+230659653+229952268+228741781+227426526+226332219+225757924+226092193
4277+227246315+228223938+228244264+227920991+228214260+228880924+229095162
4267+228818021+228540690+228338332+227901688+227126735+226342885+226081544
4257+226550723+227405922+228270833+229154371+230071969+230746784+230967179
4247+230801744+230372905+229826341+229366163+229031600+228766218+228784653
4237+229328164+230126808+230672695+230840748+230729701+230217078+229318556
4227+228727369+229279153+230814821+232166445+232581531+232598787+233053693
4217+233861858+234375054+234320423+233776912+232754406+231389480+230173148
4207+229527661+229349808+229221002+228969495+228888434+229420758+230625938
4197+231978620+232767361+232693463+232034690+231317368+230930481+230925052
4187+231048899+231065062+230987123+230777949+230096128+228895007+228026558
4177+228478637+230078577+231637744+232407598+232736039+233177973+233612484
4167+233562501+232995386+232350280+231877060+231407395+230859028+230540177
4157+230661335+230818827+230466314+229831613+229725075+230359620+231049107
4147+231192828+230860589+230347861+229913819+229977520+230837193+232076278
4137+232791953+232599446+232073937+231977961+232353020+232733299+232991276
4127+233414201+234040768+234438286+234155526+233172094+231996119+231388682
4117+231758261+232715852+233388239+233283505+232741086+232403852+232401112
4107+232351268+232089268+231937604+232193361+232723934+233094744+232909296
4097+232195876+231521772+231410864+231716325+231917521+231824632+231642097
4087+231625864+231964520+232645717+233238378+233197397+232528149+231851704
4077+231791386+232378740+232920915+232586231+231349140+230045296+229355063
4067+229307578+229805824+230793888+231815909+232219271+231911694+231398221
4057+231162894+231298308+231561574+231668927+231575240+231417627+231333254
4047+231490572+231996015+232595614+232844936+232734270+232755464+233233939
4037+233870842+234081645+233682324+233088639+232859625+233195004+233843058
4027+234322869+234321863+234057851+234065360+234513589+235062824+235396728
4017+235447629+235134866+234439708+233754748+233606899+233981854+234370562
4007+234498709+234568566+234848915+235397786+236070016+236548821+236544069
3997+236184358+236017276+236405100+237098836+237589763+237693352+237561962
3987+237314114+236983817+236762954+236956311+237594844+238379561+239179020
3977+240199463+241374622+242000582+241474743+240147763+238927322+238245414
3967+237944496+238032858+238843728+240289577+241601763+242124774+241843975
3957+241014669+240020032+239653055+240817965+243608725+246738939+248244916
3947+247534912+246417834+246866167+248326809+248498973+246584708+244159989
3937+243101946+244295663+247514829+251233195+253122000+252200048+250213377
3927+249607344+250700523+251635153+251211360+250718283+251899425+254352483
3917+255716473+254178898+250382592+246487553+244142802+243918020+246147909
3907+251398179+259403968+267807016+273352550+274893767+273066547+268168998
3897+261451461+256224951+255319752+258312732+261277598+260920299+259358929
3887+260393506+263670372+266028790+267252631+269023296+269313738+265555761
3878+261134380+260939029+265102311+270720096+275921824+279159738+278407729
3868+275392967+274309778+275429422+274877604+270771449+266047971+264353408
3858+267594981+276747262+290473108+299578407+294024600+280366860+269005189
3848+263649994+264222399+268758971+274572593+280295945+286325296+292080523
3838+294413430+291526208+286081263+281257283+277731753+275127811+273673499
3828+273491606+274221242+276748858+282896314+291081916+295195146+293458110
3818+290606979+287967778+282853564+275958799+271350860+271623804+276565699
3808+283078641+287458415+290426091+295098165+300027278+300344030+296717650
3798+293527655+291082783+287714848+284436473+283473523+285132013+288420031
3788+292889052+298204255+303087201+306897970+311154350+317095945+323042605
3778+326628575+328708725+332401111+340160284+352593420+367667716+381348020
3768+391526502+399299514+405961640+412699382+421045475+430246195+436434095
3758+438121462+439799532+446533215+459322541+474131560+483140917+484117708
3748+484439905+489766727+498411258+504398951+506886869+510702841+519710742
3738+534882020+552529215+564987013+568023558+564757843+561312455+562310161
3728+568616444+576628408+581555197+583165491+584299652+585111164+583810095
3718+581162344+580861999+586068704+595257422+600273146+594363496+582457898
3708+573095369+569171905+569549010+571984101+574402681+576256297+578240540
3698+580202966+581643022+583671143+588384822+596406706+604766986+607375506
3688+601571857+592346093+585556878+583285366+585191635+590316897+597970625
3678+607235930+614560696+615230204+611648396+609543099+608134989+602484305
3668+592934714+584753829+580486142+579344247+580029537+582078365+585105753
3658+587689508+587903797+586437762+587307685+593366900+602612226+607082479
3648+600500131+587327109+575208297+567734520+564955553+564941539+565504215
3638+565893668+566906983+569575579+574384298+581522905+589909268+595082536
3628+593151015+588012989+585736135+588345488+594966268+602830331+607714249
3618+607778210+606006591+605549847+606777798+609059161+611662687+612735037
3608+610783121+607304677+605111764+605418734+607534298+610030436+612098897
3598+613775823+615276406+616843932+618921272+622083727+626524775+630784484
3588+631719409+628498335+624921730+624332346+626592759+629952299+632841637
3578+634402157+634667574+634396954+634479021+635801526+639399012+645388300
3568+651354766+653541991+651134441+646798908+643199480+641196437+640226618
3558+639561966+639200400+639349688+639556278+639522286+640582773+644252822
3548+648850164+649894072+645473489+638651391+633183224+630019590+628320188
3538+627190814+625846110+623968699+622619763+623491560+626692585+629999819
3528+631248998+630797734+630275572+630056218+629537109+628844986+628391641
3518+627462058+625222873+622848136+622749628+625469698+628541414+629085082
3508+627011904+624652983+623647577+623335473+622411232+621002914+620152068
3498+620185505+620441903+620187586+619173647+617701993+616731688+617259608
3488+618935840+620017764+619270837+616949447+613791709+610526653+608026214
3478+606478806+604911695+602686315+600817021+600691736+602318367+604561159
3468+606323690+607216159+607483865+607288028+606087964+603602579+601320731
3458+601309562+603282844+604285406+602282849+598749255+596578540+596912843
3448+598300974+598529554+597434380+596852767+597610585+598486890+598257061
3438+596944476+595060198+593198604+592142834+592038637+592067080+591580506
3428+590577666+589190645+587931199+587785865+588870425+589650372+588728143
3418+586907271+585837418+585301728+583729138+580984544+578845845+578629162
3408+579649379+580192040+579381014+577866765+576799860+576462817+576191712
3398+575415094+574393871+573923911+574308440+574845586+574720717+573950862
3388+572841398+571122364+568827543+567290470+567620715+568934583+569399444
3378+568737602+568447662+569380367+570603115+571066311+570895171+570605717
3368+570171969+569318799+568200733+567272260+566520755+565271090+563156914
3358+561092997+560549642+561924731+564256354+566114305+566437231+565349862
3348+564112060+563639881+563583898+563190073+562411895+561688554+561177284
3338+560740657+560393867+560348464+560515025+560230080+559055476+557838555
3328+558050694+559781834+561226642+560758278+558842296+557200126+556802625
3318+557266029+557838590+558342750+558868450+559123010+558711947+557767206
3308+556610153+555183139+553610444+552795533+553472949+554962329+555792536
3298+555503290+555062952+555487786+556724478+558011915+558831960+559211875
3288+559268482+558932965+558381910+558337547+559414545+561274786+562891428
3278+563619034+563551431+562968465+562097605+561318490+560959560+560890778
3268+560599347+559820995+559076877+559239971+560515580+562253692+563691042
3258+564335680+563845568+562325700+560555781+559192173+558047850+556768980
3248+555772661+555852924+557146814+558897343+560104309+560357829+560037608
3238+559548953+558615069+556800475+554632673+553360949+553419568+553913357
3228+553883839+553406352+553073055+552972154+552622832+551670807+550327283
3218+549009321+547750188+546356021+544948605+543841708+543150140+542900540
3208+542997140+542881185+542064436+541040611+540674883+540940299+541152126
3198+540973702+540465553+539698994+538884881+538359042+538145238+537911281
3188+537404277+536621450+535523537+534020665+532411585+531296709+530763517
3178+530196645+529297378+528581530+528354961+528008310+526908385+525222163
3168+523493069+522104904+521355757+521484338+522254296+522870804+522712324
3158+521993805+521321175+520690793+519437868+517299654+515011146+513567344
3148+513209593+513216184+512700751+511550461+510264689+509047664+507668829
3138+506235120+505273939+504834988+504330135+503625837+503442799+504234228
3128+505442131+506154406+505915039+504815807+503332706+502067155+501298654
3118+500875728+500564387+500202058+499581978+498586145+497454274+496568395
3108+495909362+495125079+494196398+493512183+493154675+492784022+492417149
3098+492479271+492917979+493136396+492929113+492662968+492428595+491737062
3088+490290346+488690701+487931946+488240685+488868570+489011129+488410299
3078+487150264+485576459+484292282+483636822+483336823+483023644+482736583
3068+482631832+482588197+482349731+481861007+481286608+480762364+480235520
3058+479517625+478511629+477488256+476963145+477033558+477127765+476722425
3048+475882956+474927081+474174327+473937457+474041307+473762744+472943463
3038+472416549+472681653+473077975+472811379+471900630+470676737+469235710
3028+467796210+466838843+466385602+465721540+464327166+462641985+461527387
3018+461279140+461416219+461277198+460678484+459964127+459430727+458896078
3008+458037775+456960464+456098623+455669385+455455164+455091448+454444763
2998+453675499+453011333+452554554+452241791+451915431+451574538+451498020
2988+451767079+451835514+451127817+449876002+448771325+448009622+447233455
2978+446209665+445084870+444110785+443379293+442826157+442406492+442106493
2968+441819502+441518220+441471879+441778052+441861784+441095502+439677889
2958+438320906+437411961+436927884+436763438+436771034+436711340+436321262
2948+435416063+434080551+432744102+431793222+431159684+430559201+430000445
2938+429705025+429617304+429408738+428979326+428547001+428166045+427601011
2928+426813745+426122212+425698766+425282014+424543551+423481086+422397637
2918+421645299+421374055+421447103+421565660+421482275+421146515+420633337
2908+419900527+418797653+417460095+416424130+416081537+416239358+416427772
2898+416410811+416198810+415770786+415068431+414203051+413410894+412790432
2888+412307639+412007051+411925018+411911005+411838199+411746143+411504139
2878+410781285+409639667+408580393+407780986+406938812+406033232+405542773
2868+405658000+405863652+405564105+404763900+403912083+403292003+402808655
2858+402333492+401949588+401709978+401405678+400778106+399828128+398825010
2848+398116967+397902399+398017973+398025084+397681624+397213329+396973198
2838+397015342+397130776+397057312+396534040+395463250+394147058+393050046
2828+392304438+391752966+391306627+390877667+390214749+389241566+388307647
2818+387767934+387585417+387520450+387432001+387269463+386951774+386425450
2808+385836969+385465864+385344741+385121121+384470239+383457167+382379233
2798+381470427+380820551+380419825+380213547+380086840+379800889+379119310
2788+378082929+376994763+376130528+375607013+375383532+375215583+374820753
2778+374212778+373646911+373246324+372906610+372499189+371992774+371424584
2768+370830414+370200656+369554700+369036250+368758970+368543293+368028936
2758+367144236+366294986+365935987+366026032+366053746+365609939+364798531
2748+364027741+363528714+363201903+362856570+362425771+361946724+361479990
2738+361044022+360514264+359690369+358625373+357738245+357398705+357491039
2728+357511052+357044839+356128541+355178805+354555915+354206524+353813671
2718+353257725+352791858+352699941+352855715+352772608+352163280+351294363
2708+350603489+350125829+349596279+349017995+348733050+348837420+348895484
2698+348491081+347784286+347183942+346709473+346086930+345319781+344739035
2688+344543024+344589434+344595678+344359224+343859399+343297106+342959716
2678+342895165+342764157+342170334+341134924+340100451+339437915+339101392
2668+338831085+338542949+338371080+338407569+338559737+338636288+338476352
2658+338062548+337596682+337334976+337248400+336999598+336378720+335603281
2648+335049798+334817298+334683688+334400998+333927015+333415952+333071833
2638+332988448+333047657+332968365+332521575+331738055+330895707+330309931
2628+330121483+330210140+330265256+330009829+329430921+328749793+328170954
2618+327761764+327545879+327520073+327545844+327416986+327120630+326880672
2608+326849108+326867214+326633813+326046927+325307596+324730665+324510930
2598+324620294+324865767+325039266+324996949+324617901+323857828+322927309
2588+322223844+321937615+321870255+321753364+321569181+321412540+321226138
2578+320880735+320412649+320000059+319750286+319614733+319470822+319235790
2568+318925802+318589001+318187269+317672356+317216410+317152345+317555916
2558+318055081+318200207+317925910+317528063+317261467+317099379+316877251
2548+316548983+316221062+315976492+315776597+315568100+315390404+315301573
2538+315260921+315149024+314864253+314408514+313954059+313774421+313977854
2528+314342785+314538066+314481285+314368903+314344137+314257423+313875981
2518+313280355+312828570+312681641+312639185+312549765+312567385+312834155
2508+313190206+313380978+313336130+313110914+312753510+312341407+311992674
2498+311776477+311714216+311833847+312093021+312306166+312292048+312067145
2488+311814805+311687056+311656117+311554799+311296632+310999443+310799895
2478+310664168+310510961+310355741+310202742+309987758+309718665+309501635
2468+309424042+309526990+309782591+310015993+310029416+309849223+309679157
2458+309624319+309595703+309450543+309166985+308906355+308875970+309094318
2448+309348809+309408815+309238785+308984156+308767542+308567924+308357728
2438+308231540+308257936+308356652+308452004+308546558+308573682+308428452
2428+308163313+307921587+307753291+307687179+307817633+308122765+308347981
2418+308268758+308008926+307950584+308310867+308902540+309361573+309520192
2408+309463203+309313048+309100562+308831537+308582319+308485129+308609686
2398+308871565+309111661+309279784+309461122+309700871+309923104+310056818
2388+310071768+309835071+309134380+307900879+306194019+303931769+300893385
2378+297103150+293032479+289240301+285870216+282667543+279441734+276257358
2368+273233630+270561929+268654012+267818064+267909322+268680408+270285187
2358+273166929+277602027+283549832+290854896+299066131+306844138+312268809
2348+314050035+312484070+309559422+307466681+306531479+305661937+304297774
2338+302747209+301344164+300057385+298767485+297617820+296925697+296743630
2328+296744636+296630519+296424381+296329168+296526184+297133500+298137519
2318+299257909+300037406+300248539+300179306+300371397+301104519+302257930
2308+303555773+304711231+305428917+305575327+305359823+305143730+305096661
2298+305168495+305285873+305416708+305522847+305573245+305580495+305621459
2288+305846120+306348233+306951630+307285135+307159919+306706990+306117502
2278+305470089+304835025+304316262+303957332+303758027+303725110+303762293
2268+303637285+303253034+302844330+302723484+302921367+303223794+303458479
2258+303595835+303668294+303745505+303904401+304092295+304113315+303879254
2248+303590494+303537390+303771866+304067495+304168916+304021987+303792192
2238+303704090+303840649+304067286+304170546+304086988+303958824+303947238
2228+304038428+304080259+303994654+303874988+303832532+303826531+303736036
2218+303551437+303402357+303410612+303578041+303820774+304077762+304333709
2208+304539119+304609358+304540923+304432391+304359065+304307278+304238427
2198+304162118+304147342+304245191+304382582+304420008+304341375+304257539
2188+304212551+304147238+304060870+304048209+304151920+304291566+304368464
2178+304367597+304324309+304251816+304155042+304085219+304123374+304294826
2168+304509879+304633049+304656566+304728782+304933221+305146678+305217125
2158+305163223+305119727+305170958+305266448+305273871+305159408+305075849
2148+305176508+305433773+305727875+305983372+306163808+306267796+306332833
2138+306357876+306304910+306222601+306232105+306377924+306606921+306845248
2128+307016145+307090720+307183748+307475248+308002301+308626752+309180131
2118+309553525+309734412+309835522+309989839+310199967+310413424+310680367
2108+311056987+311449042+311747167+312007034+312329995+312667003+312867523
2098+312876819+312836513+312970366+313342026+313782399+314102238+314271609
2088+314346496+314364082+314368695+314426447+314552669+314674764+314711912
2078+314689783+314722457+314872543+315115760+315428732+315783846+316118704
2068+316436393+316791195+317084083+317109022+316878916+316651272+316616378
2058+316768614+317028863+317313426+317523554+317591677+317564830+317591260
2048+317757094+317982067+318188136+318435724+318697256+318716715+318383869
2038+318016649+317984287+318254351+318533192+318680537+318783971+318921570
2028+319056186+319160383+319255283+319315533+319373978+319697633+320486217
2018+321361135+321600572+321021109+320205747+319764126+319782475+320022640
2008+320299330+320558052+320774527+320910045+320969947+321026624+321088469
1998+321094019+321265749+322159016+323866430+325457023+325865242+325114673
1988+323990051+323012671+322355373+322156692+322371849+322666748+322771084
1978+322743994+322793387+322969383+323125019+323243887+323700944+324824386
1968+326167460+326754381+326269645+325395872+324816097+324594453+324588106
1958+324785191+325114742+325397849+325557647+325648871+325766283+326020947
1948+326569921+327722847+329726549+331943812+332766597+331408122+329099635
1938+327468113+326876267+326845223+327001241+327207726+327399158+327580253
1928+327942409+328973899+330950754+333123134+334392708+334979420+335809732
1918+336379448+335302554+332948178+331279299+331395982+332683212+333789311
1908+333879113+333140685+332307320+331853698+331771007+331933649+332430351
1898+333443181+334746053+335642164+336007164+336832689+338647735+340133125
1888+339735902+337945483+336317430+335516532+335394160+335715594+336203348
1878+336585656+336827556+337176566+338371427+341583413+347061743+352448121
1868+353908260+350658743+345962685+342893292+341998638+342220559+342395757
1858+342060032+341504676+341233501+341438877+342225415+343921175+346739823
1848+350651771+355493303+359906254+360857169+357339392+352584922+349755903
1838+349096732+349267803+349719205+351534806+355790804+361179124+364381051
1828+364305956+363159795+362051406+359923875+356831104+354585919+354146621
1818+354703816+355196911+355782514+357405642+360121342+362435622+362837042
1808+361624942+360572675+361465109+364966654+369781408+373110459+373288328
1798+371755731+371463987+374293006+379577095+383330529+381458529+375786721
1788+371597528+371185841+373093497+375198240+376993514+378486535+379153511
1778+379403180+381226827+386327497+393947094+400087994+400885736+397211421
1768+392072181+387469254+385348626+386928882+390456267+392527399+392680537
1758+392757228+392982860+393358890+396086210+402863424+411132826+415371308
1748+413771905+409812264+407014150+406519043+407853237+409536060+410027802
1738+410373239+414115227+422348279+429145125+427447353+420275552+413272393
1728+408057052+405163864+404970733+406727055+410009453+416404602+427461401
1718+440301888+446648754+442582592+433787975+426325714+422670372+423565963
1708+428708429+435858968+441679544+446006614+452239467+461336406+468378690
1698+469453156+465912001+458577869+449810966+444698746+445232007+449439861
1688+455668587+465311310+478286691+486258246+482151848+472985710+466948208
1678+466418415+470299181+475191492+478500981+481735964+486354638+488852476
1668+485544791+480414083+479399797+482812303+486002333+485537125+483937410
1658+485977012+494706212+510847759+528554440+532891013+525372041+521778475
1648+525096322+527520314+522022455+513079729+507847877+508375381+514440979
1638+525220151+536549304+539368402+531408884+522448607+519375433+521786938
1628+526101486+529961579+533644045+536628596+536879687+535645562+537257486
1618+542984619+547916472+546512524+541484834+538378327+538598722+540426843
1608+541861176+542495582+543184999+544471015+545942530+547078703+548182270
1598+549942234+552286379+554298301+555406343+556059930+556897873+557915315
1588+558823080+559668862+560704410+562006381+563718097+566669488+572187950
1578+580329362+587253436+587487982+583404061+582312079+586195793+590660843
1568+591063963+588920511+588030540+590483945+598612106+615165549+635891224
1558+642590256+631548823+619287833+612433339+610084408+610427452+611943157
1548+614857330+621461323+633173165+648497131+664384812+675514902+673415224
1538+661253297+652791249+653124858+658147103+661097973+661127873+663209861
1528+669901609+679171007+688534334+698506816+708981897+715881206+717241935
1518+716429937+715192968+712945528+711405681+713983539+722473752+736425265
1508+751900530+757811498+747650741+734042480+727555865+728686071+734431171
1498+740445295+742289337+739885602+738598408+742971054+752298655+760448184
1488+761306730+756150181+750588847+747963053+748250322+750079242+753141593
1478+758520132+766908854+777432634+786916530+789804203+784347204+777196423
1468+775035975+778518720+783416165+785620039+786870259+792093751+803107782
1458+815300649+818529562+810801121+801455969+796125574+795105323+796537158
1448+797212423+795158600+792110470+790798163+791702772+794201477+798526534
1438+804265529+807838180+806072111+801961482+799860208+800041824+800383064
1428+800140540+800474912+801856661+803684748+806299790+810577744+814506896
1418+813509953+807612236+801980282+799715013+800028921+800682750+800653545
1408+800841751+802193531+803987209+805097159+806232291+808887637+812988971
1398+817144900+820152933+820966387+819014541+816006855+814774880+815889824
1388+817113266+816404564+815139082+816337897+820642074+826095118+830836546
1378+834875653+839133559+843392990+846100782+846782708+847110628+848436671
1368+850536974+853364987+857609365+862587212+865660038+865174088+862427032
1358+859574045+857576413+856310793+855322869+854398558+853695682+853502204
1348+854057318+855472781+857649809+860354895+863249574+865700621+866819103
1338+865977068+863389289+860201098+857920220+857423102+858347135+859578624
1328+860265821+860298912+860095305+860225170+861196861+863205385+865816541
1318+868127179+869585930+870559287+871751789+873238359+874516604+875374734
1308+876097103+876763559+877167789+877627030+878830355+880641168+882011332
1298+882134397+880949804+878983111+877352457+877027935+877517423+877201295
1288+875332209+872818104+870849123+869628455+868544381+867073837+865323307
1278+863642566+862108407+860750037+859804221+859412686+859550112+860393396
1268+862131439+864315057+866012447+866665861+866426667+865858095+865641724
1258+866282651+867740500+869382810+870415618+870474306+870041218+870259323
1248+871943949+874662702+877134837+878740865+880190043+882577684+886351998
1238+890996652+895048246+896922604+896658505+896205507+897247403+899570320
1228+901929102+903635719+904892251+906254645+908095774+910329062+912690341
1218+915050233+917118416+918424133+919084970+919947470+921609620+923857615
1208+926162425+928287979+930449606+932981262+935751211+938304373+940549732
1198+942767828+944849261+946240930+946882758+947335340+948113415+949622808
1188+952206146+955778381+959685195+963184867+966037021+968157719+969114565
1178+968849010+968480576+969367772+971661900+974642808+977820733+980681351
1168+982376452+982936214+983771798+985841230+988181975+989247943+988900528
1158+988499490+989431431+991788340+994039457+994222737+992337349+990775233
1148+991826911+995325958+998975126+1001074665+1002486243+1004940134+1008118614
1138+1010077328+1010335461+1010488426+1011662059+1013430902+1015208487
1130+1017068763+1018907186+1020024489+1020041416+1019407704+1018880894
1121+1018649678+1018559633+1019123696+1020922577+1022890102+1023245771
1113+1022625795+1023597834+1026760566+1029525520+1029586775+1027975683
1104+1027231462+1028079602+1029237141+1029858297+1030797661+1032814856
1095+1034625947+1034328550+1032991546+1034133060+1038610250+1043069681
1087+1044617437+1044202315+1044097078+1045067591+1046524469+1047283952
1078+1046131130+1043052477+1040056792+1039866852+1043416887+1048688246
1070+1052452710+1053689472+1054354678+1056429521+1059246920+1060137100
1061+1057694656+1054153084+1053226970+1056005243+1060027978+1062165533
1053+1061925992+1061444552+1061995642+1062033727+1059570332+1055638335
1044+1054133174+1057879601+1065325699+1071657129+1073741823+1072741481
1035+1071085852+1069571464+1067720970+1065474918+1063599796+1062679093
1027+1062587592+1062866952+1063724180+1065753723+1067824404+1067403455
1018+1063785297+1059188371+1055856302+1053908340+1052621353+1052296277
1010+1053427732+1055389360+1057415642+1059500960+1061280487+1061460993
1001+1059766308+1057704507+1056357444+1055078227+1052857981+1049326329
993+1045373035+1043193649+1043968602+1045684931+1044967556+1041086409
984+1036477551+1033773852+1033579195+1034717448+1036065344+1037506405
975+1039072683+1039908406+1038555724+1034623033+1029700614+1025931017
967+1023860961+1022155662+1019575306+1016755132+1015292496+1015551392
958+1016105812+1015279801+1012523102+1008271717+1003572815+999614387+996475311
948+993145462+989756230+987983016+988114961+988021379+986380804+984691530
938+984583310+985413968+985350909+983245612+979484131+976038293+974997715
928+976031008+976221365+973609514+969617580+966794909+965965499+966443332
918+967497923+968789419+970107762+971328915+972409728+973074796+972592523
908+970612581+967981653+965960088+964954404+964415801+963901201+963479489
898+963249521+963131173+962918063+962491426+962018171+961522301+960584810
888+958970318+957284652+956607652+957374766+958886656+960316965+961473533
878+961727087+959677426+955244079+950958008+949655412+951440558+953827505
868+954449146+953123312+951414475+950492037+950167030+950181598+950984092
858+952544403+953819805+954097154+953705966+953251650+952775204+951729839
848+949997069+948732836+948932558+949282400+947568013+944283880+942467517
838+943719818+946080681+946482968+944660292+942993286+942977747+944145275
828+945396952+945254809+942436577+938295216+936834592+940253029+946030733
818+949871436+950445627+949475601+948329300+946909119+945391194+944838439
808+945376765+945838295+946051614+947253967+949541920+951028767+950461860
798+949116046+948893640+949782224+950307577+950032518+949975772+950173412
788+949080320+946626290+945434204+947393821+951242502+954755562+957063494
778+957716769+956236512+953914012+953776239+957219581+961735689+963410256
768+961518347+958705179+957159852+957144590+958230121+959996120+961891012
758+963368147+964539907+965818778+966491893+964781668+960391054+956533771
748+956868906+961343113+966613918+969276340+968303539+964721176+959771980
738+955053445+952898824+954200240+956886874+958866191+961091086+964996166
728+969384005+972227974+972720306+970280775+965072753+960077701+958826233
718+961095595+963576540+963696831+961213180+957348196+953223970+949285175
708+946206799+944935143+945138125+944935768+942960265+940085287+938466287
698+939066215+940760969+942293324+943977950+945841833+945752621+942199950
688+936801848+931561221+926784899+923105277+922388804+924936347+927337376
678+925370823+919367452+914217563+913206260+914035531+911956665+904475465
668+894667603+890920204+895379843+901607355+904239046+902490875+899270148
658+897486250+897196762+896666622+894154251+889834465+886005971+884568517
648+885709823+887969264+888967664+887422406+884086799+881225487+880417930
638+880901659+881197322+880698261+879033614+876339905+875377925+880480989
628+892057764+903428297+906479202+901238643+894172149+888760728+883215835
618+876401299+870755124+868337861+869174833+871255433+871903158+871656750
608+873925903+878002748+877900910+872874642+870081176+870899070+865686400
##END=
