##TITLE=<SNM>
##JCAMP-DX=4.24
##DATA TYPE=INFRARED SPECTRUM
##DATE=3/5/2025
##SAMPLING PROCEDURE=Instrument type and / or accessory
##ORIGIN=Admin
##XUNITS=1/CM
##YUNITS=ABSORBANCE
##RESOLUTION=4
##FIRSTX=4497.3318
##LASTX=599.83466
##DELTAX=-1.4281778
##MAXY=1.740864
##MINY=0.1802398
##XFACTOR=1
##YFACTOR=1.621306e-09
##NPOINTS=2730
##FIRSTY=0.20439214
##XYDATA=(X++(Y..Y))
4497+126066355+125891343+125938455+126055004+126167859+126126693+125550409
4487+124409587+123494878+123624588+124650663+125839488+126771586+127296475
4477+127226404+126718776+126444043+126867713+127717774+128362337+128398824
4467+127845628+127083909+126619983+126645571+126834470+126796788+126619037
4457+126596290+126570169+126107236+125305317+124789398+124843266+125107034
4447+125195881+125080261+124776678+124149376+123164155+122165690+121824673
4437+122587411+123948905+124639900+124001936+122811741+122236165+122436966
4427+122737305+122704971+122511477+122446626+122398641+121860885+120535051
4417+118890093+117859184+117929697+118750273+119580031+119895488+119622971
4407+119019362+118416636+117985972+117678447+117454732+117483426+117854396
4397+118236937+118248334+117994179+117794095+117695045+117676066+117881867
4387+118256624+118377732+117923723+116961166+115742626+114590500+113874028
4377+113790419+114205992+114773921+115125921+115024813+114515649+113942555
4367+113725329+114054710+114727066+115242700+115168401+114559673+114000972
4357+114070234+114758232+115533231+115907960+115828377+115583101+115384386
4347+115043920+114201663+112905764+111720348+111169513+111224695+111430607
4337+111479309+111529059+111864717+112432114+112939329+113209999+113229778
4327+113124570+113185588+113565096+114010162+114294095+114595178+114951084
4317+114894101+114220302+113490356+113284095+113560556+114036623+114570344
4307+114938455+114845288+114398374+114136895+114437849+115178070+115942738
4297+116278553+115927206+115144321+114601620+114734465+115367245+116035713
4287+116378531+116231046+115669412+114967397+114296292+113620848+113073349
4277+113064361+113681241+114369598+114638310+114696635+114977599+115478573
4267+115965918+116380994+116716598+116885176+116916232+116976910+117101051
4257+117150323+117125149+117303911+117904652+118696277+119196396+119214631
4247+118903383+118390479+117804701+117529105+117898972+118651122+119116078
4237+119001063+118642768+118468905+118549325+118759547+119085794+119560942
4227+120078322+120440073+120471285+120074746+119390727+118851721+118784647
4217+118996854+119069140+118992994+119195624+119897584+120710642+120973528
4207+120438042+119614635+119326456+119852503+120688713+121247543+121492948
4197+121689797+121841354+121694806+121163300+120516201+120195459+120495319
4187+121277597+121971404+122079976+121701846+121315565+121198593+121401664
4177+122012111+122937683+123722801+124090352+124340095+124802146+125285455
4167+125408236+125098955+124503582+123741735+123008765+122669053+122995117
4157+123858173+124806649+125446892+125672353+125591556+125394845+125264179
4147+125238646+125142667+124775281+124204585+123767837+123718142+123931351
4137+124065077+124042165+124229456+124941065+125874276+126337273+126036788
4127+125369147+124908484+124815758+124787413+124553240+124349543+124645240
4117+125410175+126078551+126261771+126036117+125550510+124879524+124255815
4107+123978932+124080279+124414697+125025336+126051503+127282946+128179586
4097+128443694+128289545+128037560+127700072+127088404+126187169+125341814
4087+125034729+125384266+125952839+126220412+126131500+126024436+126139247
4077+126310942+126126895+125415065+124533213+124019059+124017202+124239161
4067+124407988+124485080+124507543+124491808+124513590+124653098+124851988
4057+125015401+125186176+125387253+125417950+125094929+124584102+124254519
4047+124337678+124831198+125493591+125916425+125885056+125637694+125559076
4037+125748683+126072338+126476836+127045400+127760521+128300344+128228003
4027+127537202+126860664+126872254+127552293+128283231+128571226+128439154
4017+128219649+128134551+128053212+127642317+126814039+125984777+125754427
4007+126301787+127226588+128054811+128700817+129276347+129721266+129898484
3997+129820785+129510024+128874395+128003646+127342962+127300666+127839764
3987+128587126+129183952+129442711+129326171+128932417+128523241+128468399
3977+128992543+129917702+130734042+130999482+130691130+130188703+129945762
3967+130161471+130672013+131106730+131225733+131160074+131234547+131531944
3957+131801291+131834562+131749124+131822237+132150727+132534849+132695817
3947+132595159+132434935+132347365+132280354+132173060+132041742+131918134
3937+131932132+132386573+133423125+134584599+135055243+134547045+133630562
3927+133040041+133064342+133529371+134018516+134206671+134152978+134216239
3917+134569268+134847787+134596574+134020391+133835205+134431277+135626141
3907+137223132+139153024+140912950+141659109+141261715+140380102+139425661
3897+138453749+137766200+137788286+138417665+138852971+138620452+138522772
3887+139316437+140407151+140958399+141473114+142574571+143303763+142639449
3878+141550234+141481863+142496863+143932481+145380755+146264693+145980034
3868+145213298+145116592+145435376+145038819+143772183+142529582+142077659
3858+142994556+145985291+150972323+154977663+154375608+150734960+147302412
3848+145369680+144870268+145246826+146109781+147574645+149842925+152368705
3838+153805178+153494124+152231550+150839074+149489923+148448473+148190624
3828+148681304+149509766+150830665+153091519+155563560+156584791+156183537
3818+155681074+155054333+153702057+152360277+152162509+153354551+155563009
3808+157985824+159767339+161103062+162697305+164057990+164160781+163740245
3798+164088486+164915110+165503801+166238296+167789691+169996963+172305481
3788+174630524+177290243+180395827+183848384+187787908+192362409+197197488
3778+201902352+206818090+212521061+219218424+226674602+234055213+240498211
3768+246331545+252370477+258586112+265148334+273485877+284766859+298073924
3758+311207743+323387111+335831432+350183331+366801359+383320053+396763933
3748+408026056+419801395+432216159+442697280+450881942+459565594+470517727
3738+483149836+495595151+506415010+515379018+522702683+528053184+530954806
3728+531806024+531452618+530041126+527314498+523714447+520345233+518220384
3718+517824664+519070316+521597172+525075095+529054692+532843339+535979547
3708+538499638+540695036+542963187+545310711+547010833+547838339+549127997
3698+552357254+557455265+562993039+567796428+571989215+576088954+579471109
3688+580914622+580624780+580011714+580169392+581201266+582485851+583881131
3678+585721614+586762385+585076675+582656176+582557282+583484123+581738268
3668+577299792+573415560+571463058+570599082+569815067+569121012+569367841
3658+571149246+573809295+576172039+578663308+583011971+589490410+594955907
3648+595842161+593017192+589704961+587958334+588220677+589831978+592020390
3638+594859881+598644963+602871314+606690181+609727900+611530371+610899071
3628+608199390+606911754+609618125+615759443+622524452+626659153+627047888
3618+626073953+627037006+630541363+634793706+638585184+642224095+645528385
3608+647706319+649179795+650575111+651070681+649953737+648363281+648123878
3598+649945722+653468166+657672644+660805176+661466254+660131524+658852601
3588+659506032+662340928+666189242+669557574+671265673+671267070+670981934
3578+671569633+672399970+672223947+671284349+671241042+673037005+675475151
3568+676189830+674409455+671708083+669518458+668094981+667262291+666684592
3558+666208948+666151303+666522612+666492908+665687570+665463387+667345891
3548+670619447+672614300+671609558+668843851+666552758+665138178+663817859
3538+662903040+663339494+664570405+665205014+665273908+665553530+665492577
3528+663869989+660957964+658288210+656862086+656660916+657168986+657594191
3518+656953553+654990316+652977008+652369457+652618933+651826094+649556251
3508+647249057+646185346+646461071+647444564+648581287+649874622+651609411
3498+653316113+653550075+651703378+649306481+648343796+648997301+649827491
3488+649778964+649297437+649256336+649474196+649010757+647678159+646443866
3478+646322767+647470887+649227146+650766060+651838447+652520407+652548127
3468+651960648+651616470+651527135+649952413+646228065+642517613+640816941
3458+640517981+640425999+641121194+643407948+646128657+647235087+646105275
3448+643798007+641558457+639851094+638840984+639112591+641071122+643907121
3438+646209536+647422433+647944105+647946825+646565700+642930613+638050645
3428+634552686+633956237+635016345+635650072+635861535+637196485+639972780
3418+642360045+641963810+638201596+633237219+630212698+630326738+632008735
3408+633147737+633351921+633640293+634683196+635649998+634917599+632183802
3398+628988626+626785692+625441624+624147333+622857675+622132995+622301886
3388+622828043+622480630+620821058+619417213+620562097+624284828+627780729
3378+628804588+628312548+628379825+629015978+628794221+627830139+628050498
3368+630095938+631718011+630727606+628152921+626503423+626415706+627034800
3358+628256667+630425190+632567023+632957597+631513900+629792640+628955318
3348+628918408+629069431+629112592+628927451+628279975+627233690+626286299
3338+625584119+624611728+623195677+622097629+622093806+622913996+623502357
3328+623398758+623518018+624932819+627235087+628781207+628404971+626467983
3318+624185861+622200125+620332621+618531143+617324422+617427801+619152664
3308+621940208+624581508+626259167+626943995+626764957+625991530+625508680
3298+625992265+626581582+625692129+623165163+620481880+619005831+618927305
3288+619621617+620570700+621853741+623499269+624702754+624651212+623924988
3278+623827345+624389751+624184611+622475556+620662903+620666505+622430632
3268+624098144+624503864+624169538+623723672+622957303+621640808+620098659
3258+618920908+618617831+619170310+619579413+618667682+616781354+615738047
3248+616642205+618695622+620524011+621777126+622835323+623643675+623700438
3238+622877380+621564046+620183729+618904364+617594045+616053072+614365708
3228+612813265+611712423+611381259+611640661+611603052+610602427+609001383
3218+607530849+606405596+605712386+605887637+607198177+609047153+610248764
3208+610157407+609112666+607615772+605834294+604190053+603445521+603649448
3198+603680182+602460815+600352032+598678638+597986568+597491439+596459896
3188+595235823+594289829+593377362+592399678+591788560+591338356+590123511
3178+588062264+586180495+585073182+584402031+583893446+583614964+583387583
3168+582802641+581732349+580425596+579222626+578332401+577689925+576999472
3158+576154908+575447470+575242662+575614707+576182406+576198913+575297660
3148+574281998+574261043+574854367+574122556+570706468+565706137+561896792
3138+561051272+562401663+563986715+565040133+565980980+566498902+565482653
3128+562921387+560357878+559210972+559407141+559761099+559320637+558157996
3118+557023111+556499086+556679006+557236817+557356445+556244427+554172775
3108+552171010+550582907+549019398+547663897+547160202+547246890+546998554
3098+546340673+546036935+546258287+546259721+545498241+544370966+543714189
3088+543806502+544148070+544175827+543800583+543162261+542274757+541145019
3078+540013664+539286006+539170275+539313616+538924954+537477176+535269647
3068+533195789+531932637+531420818+531150313+530748931+530110976+529191304
3058+528055795+527046824+526612318+526931204+527638788+527866390+526860912
3048+524806649+522781577+521720256+521580077+521610002+521314535+520822972
3038+520310013+519726983+519211745+518904734+518345196+517062706+515541329
3028+514450523+513451700+511899110+510075905+508787753+508321704+508337549
3018+508321521+508019252+507725219+507888522+508286522+508185239+507316521
3008+506038994+504739005+503689301+503081125+502564416+501269905+498902419
2998+496304536+494547432+493910433+493880839+493857163+493718198+493641877
2988+493462141+492675001+491267038+490018995+489675074+490099434+490428024
2978+490015650+489089066+488297220+487827091+487271339+486165828+484401481
2968+482331594+480578607+479515117+479010761+478808930+478846208+479024731
2958+478952711+478212371+476898780+475710331+475240385+475238620+474880949
2948+473725771+472138771+470894772+470529087+470890912+471254796+471009621
2938+470185203+469260899+468604379+468117191+467377071+466178071+464785806
2928+463525301+462421224+461432878+460697684+460258546+459802460+458979549
2918+457894957+457053995+456839076+457194504+457737756+457958153+457407254
2908+455993188+454143036+452561072+451732683+451531955+451287736+450482729
2898+449447216+448974439+449181233+449261965+448558903+447372219+446417768
2888+445927860+445556697+444869664+443773969+442647466+441970138+441694155
2878+441235974+440228584+438927382+437758455+436898927+436399608+436266340
2868+436257885+435950176+435164102+434149580+433339022+433024511+433104876
2858+433032048+432278399+430982491+429779410+428921500+428018997+426769741
2848+425506626+424781542+424675811+424763014+424656731+424367808+424062561
2838+423697465+423141198+422524236+422106089+421818159+421326559+420563536
2828+419766617+418948080+417839298+416500487+415468135+415078296+415048040
2818+414917971+414581807+414158845+413596035+412721177+411626181+410675664
2808+410053481+409561551+408961058+408242482+407440489+406453320+405224872
2798+403941978+402906906+402276084+401973705+401761323+401361411+400671547
2788+399907016+399341228+398913045+398339280+397559345+396765808+396057820
2778+395340971+394481664+393391006+392106678+390891024+390065614+389663459
2768+389373029+388853710+388014991+387014035+386045909+385154912+384289613
2758+383509311+382972198+382637468+382135685+381129398+379762978+378536222
2748+377695333+376990764+376147743+375297113+374683716+374174029+373367000
2738+372140317+370876025+370070724+369796653+369674084+369353692+368824924
2728+368211895+367536700+366786911+365992676+365151383+364237262+363318620
2718+362555082+362032821+361618462+361034696+360136568+359040358+357949405
2708+356988338+356200720+355511113+354714341+353734818+352858343+352453946
2698+352455232+352350714+351783272+350966942+350316304+349841101+349229028
2688+348408249+347634858+347053189+346534936+345972125+345442843+345017675
2678+344581882+343940766+343056424+342141090+341493136+341216822+341108628
2668+340844777+340266637+339447182+338545009+337689048+336955876+336358876
2658+335875401+335507032+335230682+334890695+334294246+333462255+332650299
2648+332086717+331776692+331536627+331148296+330555303+329940068+329486151
2638+329111312+328629308+328080026+327644564+327328804+326977787+326534532
2628+326097085+325753016+325455932+325079070+324584677+324086975+323671769
2618+323233881+322643425+321991647+321472108+321067564+320588868+320023668
2608+319586773+319378141+319255571+319088923+318903011+318727539+318492805
2598+318127598+317666733+317194875+316702835+316123076+315560965+315278328
2588+315315349+315370089+315192853+314841175+314429095+313915841+313315716
2578+312885181+312855292+313063704+313094070+312777023+312334172+312027639
2568+311892386+311825073+311750039+311664785+311626404+311731179+312077306
2558+312662432+313267409+313561369+313403654+312935988+312374354+311849190
2548+311388692+310915989+310365678+309873564+309672909+309756546+309844043
2538+309708680+309354355+308902276+308510967+308363785+308517290+308770590
2528+308835550+308626183+308308254+308118169+308141789+308213147+308080762
2518+307717228+307340716+307103794+306936503+306730738+306509129+306358197
2508+306285663+306194747+305989350+305685721+305382902+305117599+304797023
2498+304338510+303872498+303677762+303792556+303813879+303320275+302428856
2488+301660410+301294320+301140208+300936668+300673093+300428047+300136661
2478+299685666+299127341+298670226+298469424+298471759+298477476+298350918
2468+298138885+297958138+297807905+297565965+297182689+296790626+296541003
2458+296393894+296193166+295897037+295602765+295403103+295324779+295328198
2448+295318198+295249855+295204103+295239176+295231419+295019073+294646109
2438+294309118+294098354+293941227+293781215+293638775+293489405+293266914
2428+293001206+292780534+292601240+292423801+292315515+292366983+292514570
2418+292594604+292557381+292522235+292615063+292837904+293108684+293321746
2408+293355881+293163682+292867351+292624272+292439904+292280976+292275663
2398+292566039+293015379+293298328+293281067+293119015+292966336+292764818
2388+292343510+291546867+290186310+287973046+284586148+279827831+273756896
2378+266709802+259165999+251549073+244098263+236858584+229789855+222955456
2368+216669033+211463691+207804745+205770151+205200723+206179547+209044387
2358+213954850+220857666+230011189+242041133+256494682+270420640+279753495
2348+282159418+278487255+272298145+267213644+264031684+261453433+258545562
2338+255276694+251872003+248440842+245099145+242329008+240860349+240904208
2328+241777135+242531335+242818917+243110321+244164952+246315332+249293954
2318+252609071+255851286+258766455+261332941+263755481+266241180+268800075
2308+271290718+273573484+275573006+277272998+278732246+280060433+281286766
2298+282302004+283034533+283626717+284306361+285100284+285780498+286137691
2288+286265462+286481685+286952532+287509625+287881560+287975399+287855826
2278+287558079+287055745+286408545+285834632+285563723+285635981+285862848
2268+285971097+285817849+285504442+285254138+285179693+285213092+285221290
2258+285132728+284988450+284895218+284903986+284958561+284981538+284962918
2248+284950197+284993358+285117581+285325864+285595707+285873693+286112839
2238+286309008+286476998+286645778+286892718+287293383+287848087+288519294
2228+289260278+289963542+290511243+290916081+291331249+291940712+292849723
2218+294001556+295209930+296343510+297467880+298779946+300410566+302293916
2208+304249965+306167799+308035709+309859300+311663865+313508026+315439499
2198+317489975+319662542+321884703+324076534+326253329+328450123+330608536
2188+332614970+334401816+336005102+337516922+338941575+340166530+341110245
2178+341813124+342396522+342953303+343412036+343596183+343473835+343154104
2168+342669306+342009183+341253218+340463100+339573353+338473467+337155023
2158+335795919+334606698+333578905+332587103+331634087+330789780+330105172
2148+329612543+329289577+329505636+331520341+336499569+343970728+352288437
2138+360450380+368427145+376236159+383754485+390985396+397974661+404790881
2128+411582616+418498281+425673311+433074399+440234834+446488979+451357624
2118+454535852+456037745+456423687+456403357+456492141+457376005+460083994
2108+465515044+474123624+486023370+500768085+516620921+530595297+540035979
2098+543817935+541906535+535251853+525954769+515826980+505214503+493771284
2088+481169247+467115794+451812570+435933154+419922714+404231306+389737317
2078+377105355+366445858+357749523+350814116+345077820+340169508+336110613
2068+332846836+330170317+327891908+325808014+323882056+322299467+321061314
2058+320006610+319187155+318641513+318204912+317937569+318154766+318990508
2048+320449572+322651807+325864409+330699856+338071423+348582728+362320053
2038+379216160+398979440+420789042+443508942+465838561+486094985+502457361
2028+513575923+518893448+518776871+514363688+507160571+498714043+490081089
2018+481438061+472568240+463462178+454138293+444409791+434142338+423471774
2008+412732280+402256746+392213402+382688900+373844887+365779926+358375125
1998+351505341+345274430+339881688+335335531+331395750+327812720+324542031
1988+321640300+319119069+317000213+315290166+313859373+312573795+311456226
1978+310527988+309687798+308869704+308110412+307459774+306971851+306650098
1968+306324374+305807132+305203607+304810551+304701971+304641219+304426393
1958+304147763+304007952+304021683+304024698+303890769+303619400+303265663
1948+302909629+302699489+302778439+303041499+303093721+302679270+302017327
1938+301490508+301239304+301189030+301229893+301271987+301256877+301184214
1928+301145484+301326709+301825275+302442661+302896026+303214893+303574935
1918+303848215+303749304+303350146+303048245+303125669+303536407+303989479
1908+304221547+304240407+304236289+304306691+304397846+304448635+304483413
1898+304600743+304876395+305262833+305688773+306200794+306767005+307070854
1888+306860733+306349925+305915584+305672744+305535341+305436300+305407496
1878+305563171+305950583+306414389+306816544+307331525+308196346+309146605
1868+309474461+308924775+308048612+307446098+307233036+307240848+307350348
1858+307527878+307715463+307840587+307922661+308096037+308476703+309087600
1848+309999147+311298291+312651145+313248881+312804706+312014625+311562803
1838+311543907+311751509+312100651+312807537+314088445+315607470+316576038
1828+316758752+316677835+316593647+316285607+315798787+315562509+315782390
1818+316256086+316763273+317362296+318190721+319120062+319810257+320139546
1808+320380052+320859226+321681475+322788346+324028337+325120834+325807095
1798+326205353+326836469+328160795+330060027+331664600+332140318+331865586
1788+331901908+332711768+333994000+335345458+336702209+338043704+339173883
1778+340125429+341422440+343613352+346508466+348886136+349665151+349306892
1768+348865034+348868048+349622285+351287077+353384242+355095834+356383139
1758+357784595+359316634+360755258+362468136+364953707+367882349+370275606
1748+371721509+372609050+373340935+374153295+375228880+376431336+377400050
1738+378433652+380462437+383551258+385895069+385871062+384637210+383837497
1728+383900657+384717759+386016241+387518318+389451555+392489421+396767389
1718+401067966+403466665+403646070+403048665+402820402+403417622+405099472
1708+407891061+411190057+414113111+416822570+420461223+425217115+429365712
1698+431679597+432817534+433203659+433254245+434206196+436810070+440686288
1688+445242150+450597100+456654377+461435562+463293949+463880361+465274134
1678+468182519+472435304+477238473+481726911+485935616+490213694+493935175
1668+496306338+498230568+501231414+505501955+509894955+513469309+516669265
1658+520525005+525818965+532904734+540415634+544550519+545468426+547359018
1648+551388870+555535078+557593311+558360158+559696322+562202663+565919218
1638+570871095+576271668+579916681+580740584+580756466+582077373+585264242
1628+589804332+594922563+600269462+605765877+611371222+617495298+624813338
1618+633050976+639995427+643237954+643327436+641989986+639814845+636887306
1608+633616544+630823043+629520003+630554083+634206595+639974471+646711209
1598+653113473+658206595+661595294+663517576+664583860+665242145+665563898
1588+665598529+665654189+666067703+666846645+667691320+668504819+669814183
1578+672286003+675583235+678299679+680334237+683406403+688723266+695816829
1568+703213836+710557978+718762455+728358647+739575660+753639996+771571395
1558+789207143+801565880+811504411+821816826+831387209+838522094+843201628
1548+846324748+848599811+850262324+851347284+851698815+850176665+845987628
1538+841669772+839345593+837912925+835960129+834021009+833490735+834351291
1528+835670875+837047442+838901933+841537792+844133432+845353093+845208171
1518+844813407+844692676+844857596+845339417+846112697+847262361+849119498
1508+851564629+853176408+852655839+851043324+849810208+849587496+850647383
1498+852461066+853427575+852796054+851827781+851691977+852229163+852845905
1488+853450736+854225928+855050530+855458971+854955092+853744107+852970974
1478+853546835+855281698+857479999+859326549+859596319+858079683+856595694
1468+856508417+857199495+857208392+856304307+855914836+857182951+859864838
1458+862436802+862859066+860889727+857977555+855025825+852753261+851929174
1448+852164533+851877117+850333645+848396731+847092661+846843479+847646905
1438+848861713+849135453+847973217+846687161+846251295+846110932+845263905
1428+843607789+841987334+841323976+842048949+843714035+844939946+844257177
1418+841667346+838688779+836157254+833962482+832366144+831881235+832333719
1408+832965754+833053839+832083728+830190636+828414525+827606834+827537057
1398+827579555+827685287+827971306+828011304+827432502+826488860+825341990
1388+823654111+821557424+820483566+822003804+826137697+831322800+835930204
1378+839680654+843221627+846653118+849399855+851521983+853871309+856718336
1368+859446912+861557276+863087661+864201590+865133762+866240192+867538600
1358+868554445+868833479+868300263+867203245+866043802+865509042+866174018
1348+868164239+871050971+873937115+875860573+876700028+877632420+880037625
1338+883806237+887297064+889269345+890171150+891339930+893616096+896911122
1328+900687675+904341511+907205744+908921857+910038213+911693740+914626059
1318+918718776+923111703+926686350+929084718+931054057+933075013+934362906
1308+934210265+933579920+934209309+936405699+938689218+939673299+939485953
1298+938853403+937775354+936046815+934146958+932613559+931343385+930138797
1288+929147878+928390994+927605287+926610839+925351694+923826162+922051595
1278+919910350+917297578+914717453+913161113+912964943+913482645+914230632
1268+915426176+916927077+917698519+916986266+915243316+913478013+912396141
1258+912279748+912924504+913397869+912253867+908534959+902880535+897284197
1248+893119277+889655507+885383899+880545989+876944872+875374194+874853919
1238+874528416+874685837+875294859+875139791+873502204+871443750+870422685
1228+870631207+871437942+872589149+874191517+876091374+877941453+879637125
1218+881370297+883302064+885264860+886939504+888411656+890313644+893093322
1208+896340555+899201332+901322063+903107291+905117217+907447867+909682491
1198+911311916+912160194+912535915+913158392+914803111+917735430+921544701
1188+925601537+929435955+932736790+935373016+937278902+938205633+938122253
1178+937795059+938205927+939544480+941492203+944135635+947592273+950949870
1168+952663189+952314672+951273167+951411544+953607934+957176920+960314305
1158+961709768+962140561+963468306+966231734+969508672+972670394+975663887
1148+977939391+978796933+978572015+978491136+979651902+982308275+985633741
1138+988385845+990282393+991898731+993250299+993613741+992749361+991843145
1128+992769949+995916304+999158464+1000275187+999856306+1000109752+1001994683
1118+1005093760+1008798992+1012250041+1014037255+1013176183+1010329229
1110+1007426910+1006245777+1007528376+1010587823+1013552420+1014902002
1101+1014752228+1014231439+1014285554+1015091848+1016322979+1017594697
1093+1018611057+1019554919+1021049203+1023305590+1025789690+1028267466
1084+1031441688+1035375734+1038482900+1039647268+1040031813+1041323163
1075+1043422571+1045179271+1046530177+1048332758+1050707082+1052557235
1067+1052403343+1049590138+1045129346+1041703663+1042176220+1046934353
1058+1053082509+1057476760+1060049238+1062215409+1063206034+1060967808
1050+1056191292+1052521868+1052819063+1056932956+1062226070+1066130779
1041+1068757962+1071239121+1072690612+1071791748+1069540801+1067491832
1033+1065254488+1062465326+1061263311+1064107766+1069838364+1073741823
1024+1072912736+1069360587+1065876009+1062576866+1058663407+1054746051
1015+1052062694+1050591866+1049586609+1049251106+1050034975+1051167874
1007+1051100597+1049191844+1046708038+1045488965+1045681826+1045829100
998+1045014130+1043338677+1040654143+1036941265+1033529332+1031797925
990+1031165375+1029937626+1027747927+1026196587+1026815314+1028646423
981+1028554147+1024788550+1019486245+1016033946+1015013101+1014057475
973+1011166625+1007224785+1004385551+1002680761+999800573+994741273+989733149
963+987161626+986485548+985375294+982596794+978745906+974802595+970931120
953+966669880+961963288+957653594+954696644+953179199+952484298+952156075
943+952231734+952797375+953578302+954161443+954297467+953757046+952480622
933+951116628+950689585+951128245+950817007+948638190+945849101+944737010
923+945932187+947984905+949309268+949546098+948861858+947389927+945617786
913+944030859+942520915+940993912+940100636+940604588+942112621+942814434
903+941045013+937480071+934917151+935232727+937304269+938653263+938345627
893+937158318+935771899+934210485+932614882+931436985+930926856+931282652
883+932958767+935558745+936943694+935308313+931830352+929285225+928551429
873+928139238+926861638+925474116+925270520+926275998+927446249+927761090
863+926800170+925391986+925824250+929555951+934501357+936686203+934918695
853+931640874+929402574+928726937+928952664+929494262+930089681+930442756
843+930138871+929082145+927635874+926196736+925201479+925343385+926807596
833+928446947+928712599+927444337+925813147+924769142+924465035+924955899
823+926756421+930154164+934173207+936944208+937425735+936676865+937529555
813+942023360+948640910+953675799+955392574+954401728+950912886+945294122
803+940095784+938150708+939543672+942141811+943820353+943044646+939067071
793+933203243+928709953+928123871+930953032+934440036+936592310+937557201
783+938273351+939199714+940223573+940959502+941165230+941117952+941107144
773+940689291+939319342+937543745+936822522+937953289+939913217+940876049
763+940517533+940168207+940539958+940796199+940014537+938495475+937783736
753+939409118+942846344+945577567+946227764+946103063+946730540+947986449
743+948985089+949378236+949684549+950595618+951725429+951968362+951002221
733+949167950+946754362+944616720+944188795+945494923+946914283+948063579
723+950510474+954544884+957858660+958812080+957732635+954859579+950509371
713+946340113+943936672+942865829+942019610+941395809+940821051+939196920
703+936798331+935550877+935541686+934038727+929433088+923949686+920962590
693+921184053+922389156+922058800+919334194+914976781+910933033+909072146
683+909065381+908621942+906255264+902642456+899191847+896409229+892998105
673+885737857+872351585+855911086+846864581+853673228+868131225+878214310
663+881321549+879567128+875769621+872430773+870339820+869067294+868825906
653+869449559+868641059+864742085+859510513+854954136+851298977+849760063
643+852257103+857803737+862593341+864315630+863686756+862154827+860978180
633+861346989+863139865+863772488+861071117+857230156+856310851+857719476
623+855909984+847721461+836912080+829791239+828887375+831040163+830776496
613+826708264+823678155+827136042+837310153+848015127+852436508+851142806
603+851047883+857235008+865846603
##END=
