##TITLE=<SNM>
##JCAMP-DX=4.24
##DATA TYPE=INFRARED SPECTRUM
##DATE=2/5/2025
##SAMPLING PROCEDURE=Instrument type and / or accessory
##ORIGIN=Admin
##XUNITS=1/CM
##YUNITS=ABSORBANCE
##RESOLUTION=4
##FIRSTX=4497.3318
##LASTX=599.83466
##DELTAX=-1.4281778
##MAXY=1.8184199
##MINY=0.30986124
##XFACTOR=1
##YFACTOR=1.6935355e-09
##NPOINTS=2730
##FIRSTY=0.33263063
##XYDATA=(X++(Y..Y))
4497+196411960+196332542+196405308+196558619+196688772+196787214+196745507
4487+196287316+195603927+195598489+196619191+197584776+197273843+195751184
4477+193840004+192161976+191212228+191366842+192359510+193413841+194039457
4467+194293462+194292142+193966532+193503677+193469062+194004508+194335379
4457+193736583+192603485+191810005+191468099+191107241+190692428+190769382
4447+191707692+193172330+194348718+194642723+194170788+193508763+193071460
4437+192931382+193071267+193432846+193782636+193836150+193554482+193195207
4427+192979459+192775766+192334293+191798689+191622853+191869414+191986281
4417+191530993+190786523+190409756+190679300+191229034+191433977+191052952
4407+190397068+189797919+189238964+188745278+188708358+189357766+190162262
4397+190370425+190090534+190092557+190517383+190645477+190078321+189308879
4387+188975016+189173025+189452705+189154213+188075316+186875188+186291279
4377+186187242+185958753+185481187+185180073+185514183+186583313+187940746
4367+188793918+188654280+187786503+186924990+186520683+186327548+185932761
4357+185591648+186010966+187278088+188555064+188956415+188439852+187726090
4347+187452446+187557099+187578234+187328399+186935126+186397710+185536162
4337+184371775+183333318+182967075+183414320+184265873+184978157+185238550
4327+184950317+184264817+183606786+183308593+183293917+183401597+183766362
4317+184497810+185223504+185339649+184721547+183954798+183735988+184196819
4307+184933160+185558089+185987437+186227118+186247479+186172037+186261909
4297+186534040+186687175+186556617+186307416+186088219+185890562+185762081
4287+185744220+185700208+185514781+185244973+184944475+184671992+184599666
4277+184719154+184698002+184437644+184401744+184991549+185939871+186629049
4267+186713219+186229547+185454122+184802514+184586115+184809782+185344858
4257+186151906+187109291+187801021+187816542+187210108+186474190+186070076
4247+186073860+186187998+186036887+185539418+185041913+184993924+185456849
4237+186020292+186297104+186411454+186725221+187115643+186980141+186131879
4227+185223522+185017294+185603614+186502487+187205392+187501033+187506576
4217+187407396+187184046+186840116+186713730+187019929+187268620+186788643
4207+185755412+185105371+185431931+186395598+187248383+187657987+187859216
4197+188096468+188182820+187798821+187053330+186505021+186639960+187348285
4187+187972475+188010891+187639351+187306438+187120184+187028640+187218607
4177+187791800+188410183+188722419+188812994+188975121+189323732+189739952
4167+190025686+190091854+190039219+190011837+190019985+189961243+189738791
4157+189352117+188904115+188492821+188159134+187917236+187668035+187200922
4147+186583665+186329361+186786003+187606109+188163604+188261764+188137524
4137+188012352+187975748+188158307+188606573+188983498+188845391+188304544
4127+187955089+188070705+188308327+188235613+187863246+187583284+187678136
4117+187995423+188163481+188067274+187986782+188248548+188769580+188985522
4107+188473957+187694836+187602677+188407015+189306152+189527795+189094240
4097+188552249+188359448+188496886+188557018+188241456+187599070+186801929
4087+186082395+185800444+186114739+186716616+187180473+187372359+187430361
4077+187583513+187863317+187892511+187347176+186581659+186276779+186600788
4067+187166501+187587842+187740538+187719227+187738725+187938688+188282089
4057+188662850+188911295+188730109+187953980+186859773+185947051+185463941
4047+185371307+185620103+186099376+186472412+186532192+186589331+187052344
4037+187752662+188092879+187774941+187111455+186678006+186753096+187092450
4027+187336406+187556906+188098246+188935139+189599294+189780022+189641300
4017+189467276+189265871+188895017+188362598+187787488+187251797+186891202
4007+186902606+187271893+187761708+188251363+188735142+189014540+188932693
3997+188928452+189626377+190769699+191405873+191271902+191005174+190932284
3987+190797504+190668741+190936631+191476563+191768650+191709451+191691062
3977+192073794+192876425+193758738+194216947+193944975+193018456+191823836
3967+190933411+190816967+191446260+192316783+192948153+193203742+193104649
3957+192633137+191938433+191585968+192313827+194363641+196905857+198358899
3947+197992216+196972148+196801696+197253887+196948268+195606989+194353505
3937+194157044+195304819+197719733+200637396+202367971+201773468+199985735
3927+199207196+200017341+200853918+200451370+199903572+201042055+203706240
3917+205548173+204455550+200821767+196891339+194572596+194550370+196952104
3907+201988705+209281454+216747822+221381189+221847599+218870069+213602779
3897+207805817+204154436+204514309+207934474+210481177+209367542+207352799
3887+208423003+211958310+214394605+215320807+216553138+216617053+213613144
3878+210573794+211260984+215008360+219009090+222262130+224291813+223785615
3868+221826217+221147158+221544338+220241545+216517873+212904063+212115176
3858+215747270+224521111+236321246+242301136+235449649+223294992+214383131
3848+210963864+212338807+216717237+222253085+228021187+233562103+237269005
3838+236930126+233095993+228836823+225674552+222981031+220493034+219219559
3828+219580945+220927046+223694741+229244561+235914545+238766762+237292744
3818+235353302+232816207+227353002+221002804+217738484+218976605+223739984
3808+229251371+232932387+236122128+241279854+246006137+245602921+241745700
3798+238951362+236987389+234083963+231451242+231130700+233075632+236259953
3788+240373977+245271328+250292989+255525399+262339245+271237308+280410582
3778+288070383+295119510+303678466+314989666+328944462+343312382+354382494
3768+360534860+362857931+362807778+362637538+364964798+369722652+373809364
3758+375422827+377182878+383138677+394932054+409602830+420123542+424422976
3748+429158516+438851502+449820462+454529782+454682424+458620331+470241708
3738+488128850+507106698+521215931+528364221+531186680+533790259+539124508
3728+548157475+559231564+568720593+574501084+577201838+577709496+576729867
3718+575910624+577155837+581424264+587516903+590804891+586423312+576026980
3708+565944521+560771503+561263464+564567291+566202644+564401380+561372605
3698+559683578+560792479+565625581+574316766+585194042+593719492+594580301
3688+588569878+582291197+579408553+579473806+581567791+585660803+592232205
3678+600571260+606400884+605599415+602250432+601662669+600724149+593162842
3668+581013745+570819118+564515589+560793465+558775889+558780183+560939209
3658+563979774+565883493+566554387+568581079+574415313+583377925+589628063
3648+587092376+578173336+569443999+564422849+562697747+561853093+560481071
3638+559579083+560489764+563068249+567101640+573590439+581933154+586257682
3628+581023705+571118666+564224628+563117452+567788126+575975032+582233793
3618+582632627+580157054+579567109+581552938+584273049+586957014+589789610
3608+592083469+593072671+593368312+594328231+596818235+600636864+604815965
3598+608374993+610472287+610428926+608752922+607652643+609215037+612982774
3588+615446662+613547378+609114308+605854440+604743533+604623376+604762046
3578+605632005+607367842+608794100+608976412+609227285+612160258+618051614
3568+622645387+621161479+615011436+609348779+606559193+605916384+606044073
3558+605888509+604882484+603395127+602291963+602007795+602521014+603422720
3548+603688657+602771465+601787120+601707579+601333944+599119873+595774621
3538+593168895+591746509+590499184+589046494+588296340+588896140+590178730
3528+591102081+591445447+591468676+591301076+591054215+590570420+589118856
3518+586273696+582638927+579164509+576727474+576431410+578647629+581621710
3508+582702384+581215062+578928172+577763415+577647622+576695235+573599836
3498+569266685+565774246+564500525+565316671+566877551+567652906+567102450
3488+565969792+565319839+565244133+564607801+562478585+559773397+558560599
3478+559353129+560311429+559558071+557035935+553614133+549988374+547313454
3468+547195022+549717229+552402497+552464476+549755346+546494774+544858118
3458+545636042+547936272+549340322+547770818+543959721+540710658+539575888
3448+539463369+538641169+537146491+536220993+536236022+536361599+536018198
3438+535456796+534793856+533528968+531428648+529283524+528108350+527922730
3428+527775965+526889217+525479923+524381440+524216198+524943827+525747127
3418+525470245+523804588+521687937+519858762+517815212+514968362+512157306
3408+511126011+512631142+515474366+517566416+517847592+516820696+515500165
3398+514463696+513897331+513928972+514411043+514576462+513508845+511256093
3388+508967443+507623084+507129047+506821474+506370340+505887740+505514528
3378+505289067+505350096+505889254+506693961+507036518+506432776+505320004
3368+504608494+504677688+505065154+505190872+505258975+505976574+507280950
3358+508100791+507719309+506546633+505291354+504313134+503676555+502995278
3348+501676717+499989098+499115408+499610748+500717432+501501620+501861775
3338+502173500+502528587+502616047+501963806+500364669+498422974+497175121
3328+496835310+496678163+496244203+495675763+495010499+494298461+494031293
3318+494507839+495265701+495635851+495349325+494506466+493460178+492578568
3308+491824859+490988370+490360062+490431333+490904429+490842978+489974004
3298+489168311+489355445+490362948+491102474+490772869+489713839+489107493
3288+489889394+491847454+493720447+494231907+493168689+491535377+490530126
3278+490464240+490881446+491471180+492225805+492745078+492346912+491034406
3268+489616419+488821777+488710630+488855741+488853418+488673675+488429876
3258+487872593+486625127+484996531+483892346+483807595+484552717+485834955
3248+487348392+488406436+488257560+486900707+485155966+483819456+482923065
3238+481869420+480206473+478197239+476596940+475945895+476120887+476441130
3228+476130812+474854592+472981106+471365145+470696010+470899475+471303764
3218+471333575+470784914+469657676+468183165+466884208+466188712+466050958
3208+466141621+466155136+465848690+465136687+464201123+463167646+461862108
3198+460262477+458843751+458028309+457570875+456878440+455751238+454541854
3188+453690829+453217627+452679384+451673992+450292186+448957823+447957817
3178+447226984+446477111+445510435+444492127+443781109+443320613+442516926
3168+441085846+439615242+438816342+438647791+438629384+438582011+438551602
3158+438314596+437498345+436105452+434571848+433322165+432403777+431525159
3148+430426324+429196984+428093749+427075723+425862362+424509944+423478472
3138+423007171+422843583+422606471+422053833+421080188+419802419+418568856
3128+417675949+417144991+416792650+416426125+416057735+415916285+416085188
3118+416219388+415817456+414779228+413552809+412698828+412329276+411973099
3108+411070654+409607441+408205010+407537600+407667049+408066375+408275964
3098+408205538+407806634+406999498+405988756+405164621+404672730+404387120
3088+404172921+403892308+403337699+402496353+401770483+401605382+401868045
3078+401953922+401607388+401114019+400533682+399460328+397833034+396301542
3068+395461393+395199117+395013109+394623355+394029785+393192487+392039415
3058+390798039+389924876+389564863+389366959+388953272+388329610+387772748
3048+387514133+387530287+387527753+387187308+386474214+385616186+384750520
3038+383780324+382740054+382044347+381957062+381966987+381254175+379783324
3028+378357981+377618245+377479716+377446808+377098902+376357159+375503424
3018+374878248+374530447+374249096+373801692+373028414+371918034+370714739
3008+369742854+369082095+368621423+368282280+367891893+367135298+366028086
2998+365108149+364815710+365022941+365360183+365605072+365599089+365159252
2988+364237415+362996496+361723338+360710766+360071653+359640263+359204544
2978+358777131+358444570+358057421+357327574+356205932+354970961+353967576
2968+353380305+353183739+353152450+352989179+352612166+352246803+352117213
2958+352135163+351991777+351526529+350898784+350312992+349692708+348811733
2948+347653734+346421649+345317816+344501036+344065529+343932912+343920524
2938+343865619+343569766+342886800+341975767+341128720+340411156+339815087
2928+339472389+339323442+338965188+338182795+337267116+336570389+336072057
2918+335563624+335028408+334622746+334357619+334045788+333583074+333066758
2908+332647158+332453689+332522954+332599187+332274404+331503308+330644857
2898+329924161+329232607+328469641+327709773+327026278+326452875+326107151
2888+326101520+326315648+326444499+326330923+326099126+325878029+325557680
2878+324971712+324227154+323639391+323335831+323119062+322746132+322172306
2868+321516440+320959156+320648240+320537339+320371393+319944403+319279245
2858+318546195+317957060+317663636+317558155+317267301+316524009+315505666
2848+314723835+314570982+314962742+315425842+315528015+315181023+314605368
2838+314124634+313916242+313856374+313683284+313305039+312828915+312386263
2828+312041770+311719099+311198595+310389875+309505415+308793482+308302014
2818+308002888+307895190+307929752+307995990+307932427+307516523+306669898
2808+305658347+304810737+304128967+303470954+302933485+302692080+302636717
2798+302527506+302358639+302229120+301998484+301417831+300546780+299767378
2788+299356120+299166839+298797076+298058888+297211735+296669269+296540277
2778+296513846+296152107+295289961+294155227+293097922+292306325+291849594
2768+291773889+291960090+292078699+291903760+291525427+291097275+290549846
2758+289730620+288717257+287791126+287127288+286683650+286353975+286027344
2748+285563099+284919622+284227927+283588814+282927598+282158948+281368266
2738+280741295+280371673+280170109+279955699+279644308+279317501+279085493
2728+278919371+278659734+278213932+277688746+277228461+276772188+276152925
2718+275435467+274933440+274798166+274764414+274459235+273869712+273327122
2708+273061256+272930206+272607060+271963090+271244875+270807361+270663324
2698+270474641+270033450+269512312+269183076+269117050+269175492+269130354
2688+268825139+268314032+267801780+267432299+267165360+266822592+266259096
2678+265549311+264958978+264679456+264633245+264566831+264307142+263917723
2668+263593626+263410399+263261241+263068687+262916713+262878878+262840304
2658+262617394+262169057+261583142+260978890+260540074+260455007+260635383
2648+260673095+260275756+259603771+259038216+258779020+258764132+258814197
2638+258755984+258505182+258099696+257636964+257212490+256922463+256826854
2628+256848957+256797818+256570685+256268497+256038882+255876315+255691046
2618+255505338+255405964+255321794+255072206+254678299+254390066+254317564
2608+254274872+254114733+253990933+254092577+254293473+254313692+254138965
2598+253999257+253966789+253866218+253585940+253222600+252928930+252817413
2588+252936145+253172517+253283858+253143340+252853999+252571327+252339882
2578+252154684+252058108+252069845+252085243+251977211+251779360+251653977
2568+251707227+251923415+252210293+252430246+252490694+252469225+252543646
2558+252757264+252968929+253059909+253056742+253009105+252876277+252599888
2548+252209114+251822351+251572781+251485162+251417904+251219648+250909700
2538+250582013+250220222+249761274+249262819+248877166+248694256+248655875
2528+248619870+248520214+248414769+248348584+248274498+248142902+247948782
2518+247686541+247376188+247102368+246938709+246883945+246910905+247006654
2508+247137282+247239102+247267082+247229617+247168043+247116429+247077467
2498+247020803+246905010+246718879+246502498+246307128+246138718+245957374
2488+245720210+245424234+245128769+244926677+244854034+244833515+244751861
2478+244599131+244474874+244445222+244457751+244414830+244276354+244064249
2468+243803997+243499381+243170638+242883356+242696345+242596830+242520896
2458+242418741+242281497+242127764+241971619+241811797+241673268+241596700
2448+241531325+241350280+241053283+240803977+240684084+240570807+240322944
2438+239963194+239654372+239563586+239709066+239909257+239956577+239829874
2428+239652032+239500392+239373619+239280280+239244751+239267751+239328357
2418+239372492+239321477+239187910+239137985+239321811+239679906+240007400
2408+240157015+240121274+239985191+239858101+239820934+239909680+240123896
2398+240423831+240756428+241181993+241991399+243619538+246446097+250802195
2388+257204184+266415610+279129822+295609359+315652888+338821380+364618405
2378+392514412+421889576+451832337+480819859+506864835+528586268+546343540
2368+561844998+576127850+587972296+594858978+595599489+590976293+581789310
2358+568033016+550026315+528216998+502783225+476549531+455874246+446136526
2348+449055455+463153075+483369589+501567858+512010683+515421257+515780250
2338+516138187+517196794+517994251+517548184+515936904+513880050+511452554
2328+507788538+502274969+495244021+487330865+478934899+470210595+460997744
2318+451028896+440523741+430211949+420583827+411331909+401649869+391055317
2308+379811164+368559655+357789936+347745242+338550270+330180032+322402590
2298+314929447+307650125+300708010+294351599+288685053+283547441+278677385
2288+274014013+269766229+266156273+263188879+260713217+258608005+256844980
2278+255432677+254332487+253398806+252421078+251286343+250093765+249045945
2268+248228779+247567053+246977020+246434043+245889676+245294099+244718725
2258+244277005+243910322+243425453+242748311+241988478+241271548+240654766
2248+240188761+239918584+239805448+239742044+239659564+239556089+239427045
2238+239236814+238975647+238710678+238547319+238525586+238590345+238683648
2228+238788495+238848151+238766287+238552141+238349327+238281312+238357246
2218+238524389+238727730+238931389+239136507+239369853+239645450+239940986
2208+240205163+240394795+240516765+240625519+240787030+241063860+241490093
2198+242009137+242488041+242862221+243203440+243589358+243999208+244385442
2188+244726996+244977921+245094524+245126657+245181333+245317223+245530225
2178+245775731+245972209+246047034+245989155+245827309+245572178+245204773
2168+244740441+244290045+243991148+243873508+243857687+243849733+243786786
2158+243663004+243545029+243493204+243489104+243496371+243548390+243733131
2148+244095978+244611379+245355040+246649773+248810524+251775066+255222860
2138+258984684+263134625+267791926+272969572+278550030+284399751+290522200
2128+297020589+303954679+311297142+318933837+326717967+334582201+342430914
2118+349937352+356695535+362436819+366892344+369746408+370893637+370488609
2108+368769596+366002604+362470747+358438622+354110469+349500717+344411605
2098+338658003+332200916+325084232+317439054+309509392+301592963+294012597
2088+287080671+281005155+275855594+271563253+267937846+264826362+262213122
2078+260049432+258162361+256437893+254906471+253631676+252661568+252021892
2068+251666999+251457674+251169389+250604573+249804899+249007195+248359231
2058+247883090+247606577+247488796+247400051+247326246+247367301+247514752
2048+247655446+247766734+247975636+248397928+248912520+249229947+249290448
2038+249361965+249659472+250158753+250765645+251395836+251973322+252506515
2028+253059065+253659445+254307744+254950254+255504458+256051658+256754598
2018+257436175+257630999+257218526+256613676+256226509+256070506+255933367
2008+255680593+255319278+254902212+254467443+254038464+253626626+253233968
1998+252915714+252890708+253453130+254530091+255429509+255449307+254692500
1988+253818300+253235306+252957825+252891060+252908358+252902287+252916383
1978+253054929+253291812+253493481+253565720+253603977+253947643+254848275
1968+255968105+256546030+256277490+255669524+255355124+255476460+255842756
1958+256292835+256725228+257041810+257236142+257432321+257786246+258368395
1948+259177924+260338527+262037743+263883214+264718189+263899791+262284516
1938+261117542+260742975+260810990+260965586+261050055+261065664+261108690
1928+261400795+262397528+264327837+266479102+267858814+268628925+269487552
1918+269959047+269082787+267438845+266638696+267362471+268919744+270115965
1908+270276474+269707118+269191523+269126130+269354830+269670110+270179229
1898+271136808+272421035+273418683+273918317+274644591+275992663+276922279
1888+276341379+274843111+273670577+273102892+272794898+272662246+272808712
1878+273152553+273477530+273781090+274692299+277293080+281809088+286225846
1868+287316533+284417788+280261723+277434653+276417735+276452103+276774159
1858+277000729+277051023+277052607+277231928+277868560+279201163+281323515
1848+284409746+288557752+292445998+293162928+289974349+286005963+283986838
1838+283839229+284146344+284435632+285869317+289560732+294349364+297237181
1828+297262733+296390556+295547838+293719349+290932596+288843010+288402082
1818+289036849+289860175+290836160+292555772+294999159+296941364+297187415
1808+296147039+295391922+296230171+299035771+302979063+306154250+307032868
1798+306247096+306170511+308765643+313664524+317340401+316199367+311786217
1788+308481194+308120265+309619342+311548366+313590192+315474377+316502821
1778+317080976+319156237+324355617+331882750+337752391+338221756+334439941
1768+329758813+326239732+325297727+327487584+331005399+333025157+333476890
1758+334115616+335039107+336001948+338763941+344931546+352636838+357362945
1748+357319127+355036460+353409764+353663030+355709255+358340497+360000382
1738+361370997+365450353+372999413+378652919+376699821+370352966+364577015
1728+360647485+358828904+359153617+360844262+363822778+369799905+379943921
1718+391119724+395886377+391537036+383602482+377332282+374666020+376047122
1708+381028009+387529337+392768417+396980074+403247704+411945752+418186212
1698+418830111+415710850+409573407+402130004+397658817+398012671+401832638
1688+408160699+418249810+431105208+437978868+433023005+424159081+419115898
1678+419610992+424203990+429579347+433408711+437190315+442254544+445259703
1668+442734328+438387944+437798456+441447197+445329883+446271183+446213392
1658+449348985+458543218+474519004+492053946+497942275+493459262+492574450
1648+497982504+502542137+499806962+493943129+491621359+494788135+503221302
1638+516172291+530160805+537282416+534794243+530893678+532331480+539605840
1628+549928507+560900037+572351068+583731744+592707624+599450146+607979116
1618+620648119+633571233+640275040+641818498+643652741+647758002+652818255
1608+656984685+659796797+662125324+664693179+667315729+669773423+672607637
1598+676488774+681376076+686656370+691896541+697217169+702704201+707834070
1588+712151278+716059867+720104662+723968623+727085527+730189619+735431410
1578+744169721+753850847+759109531+760651019+764713341+773880825+785069158
1568+793966976+801049977+809265426+819873106+834258236+855825268+883844389
1558+901851407+899723986+891448001+885927041+883452664+882270381+880483722
1548+877973798+877036544+879589055+885658148+893716344+897531172+887837095
1538+870306059+858645826+855133749+854135326+850373150+845143819+842899409
1528+844491789+847198878+849223668+851897885+855585095+857324803+855592204
1518+852181771+847996616+843388202+840374703+841145059+846581269+856281752
1508+866257886+866275061+853102130+839602938+833544192+833803371+837460454
1498+841385514+842098643+838989060+836344126+838263542+843935843+847485438
1488+843942107+835694420+828268051+824344821+823597905+824681430+826915633
1478+830558990+835828232+841984188+846561771+845835267+839545992+832885475
1468+830256802+831701291+833885658+833619018+832314606+834356220+842002560
1458+851842065+854251119+845952116+835641697+829334824+827256254+827395698
1448+827078517+824740488+821182586+817975511+815937135+815921508+819066076
1438+824647501+828345622+826671659+822825436+821252765+821640830+820852805
1428+818175210+816196947+816479848+818156768+820610309+824199957+827146445
1418+825413142+819021870+812423861+808131079+805536756+803495705+802230642
1408+802698107+804542557+805773340+805343393+804870015+806238623+809212774
1398+812147155+813656826+812926310+809999391+806583256+804622591+804187787
1388+803667881+801829133+799773581+800079218+804033139+810461155+817071201
1378+822650797+827438214+831397766+833435861+833291560+832718508+833394471
1368+835245467+837612991+840654436+844312644+846900702+846658488+844365860
1358+842350079+841730077+841840239+841542978+840377307+838621761+837041699
1348+836533689+837342831+838939716+841057704+844072260+847844783+851122530
1338+852917143+853657725+854159611+854589698+854995924+855784019+857183528
1328+858929713+860856590+863286972+866591397+870781479+875489425+879942205
1318+883275279+885428322+887412849+890210531+893768011+897416083+900955191
1308+904854700+909385050+913928212+917474570+919672029+920972429+921759961
1298+921855129+921164596+920437107+920789553+922545522+924730029+925665804
1288+924367869+921565823+918806645+916522675+913955031+910857062+908038334
1278+906161575+905158295+904850828+905309987+906679792+908899987+911374786
1268+913174045+914049073+914752418+915906052+917302535+918673325+920273237
1258+922339910+924642604+926694143+928133283+928989164+929640561+930267179
1248+930459769+929927685+929297546+929519700+930663902+931799587+931786142
1238+929957390+926523446+922509059+919054843+916810363+915952369+916183533
1228+916527814+915855793+913918146+911414628+909241805+908090916+908170035
1218+908785110+908893863+908434915+908289840+908946868+910238750+912244957
1208+915264863+918827833+921843655+923983606+925862617+927772882+929414395
1198+930966653+933079714+935546699+937397695+938540349+939836454+941448614
1188+942771116+944009572+946077864+948891876+951251023+952490323+953214363
1178+954228131+955357551+955738436+955246756+955186642+957036723+960850073
1168+965193044+968287986+969355955+969381436+970158691+972050655+973727856
1158+974614639+975801075+978102361+981204272+984563742+987426113+988783669
1148+988611494+988039569+988252853+990214573+993984000+997454687+997677334
1138+994551701+991462813+991510960+994711136+999116966+1003490838+1007791433
1128+1011451261+1013162038+1012834862+1012038038+1012182199+1013499351
1120+1015478599+1017441305+1018934998+1019973825+1021056928+1022487198
1111+1023891705+1024933348+1025913117+1027491279+1029763493+1031935260
1103+1033218906+1033774641+1034312004+1035064764+1035509563+1035283749
1094+1035340132+1037386674+1041955739+1047165220+1050024846+1049671766
1085+1048544246+1048810323+1049245972+1048022862+1046873732+1049418429
1077+1056366703+1064198804+1068628989+1068236630+1064431023+1060001402
1068+1057664709+1058226498+1059938895+1060234888+1058085505+1054578637
1060+1051792781+1051324119+1053824399+1058949200+1065153092+1070344412
1051+1073191508+1073741823+1072735868+1070489628+1067107914+1063809191
1043+1062549900+1064026558+1067033652+1069382240+1069525767+1067748541
1034+1065915354+1065780626+1067412354+1069796560+1072127622+1073523400
1025+1073172502+1071491148+1069249835+1066264633+1062888832+1061314119
1017+1062936205+1066345652+1069581165+1071644530+1071583642+1068945254
1008+1064887648+1061538244+1060344768+1061026010+1061601736+1060166679
1000+1057036331+1054274478+1053439151+1054411247+1055623658+1055140144
991+1052707439+1050308380+1049513598+1049670006+1049344308+1048198064
983+1046797499+1045970337+1046474546+1047939026+1048128448+1044597928
974+1037696252+1030471765+1025387650+1022495222+1020518297+1018792597
965+1017970785+1018843419+1020770156+1022005584+1021455128+1018922890
957+1014346715+1008477954+1003359418+1000754818+1000294744+999609983+996629778
947+991647800+986909937+984490817+984660881+985928549+986395733+985197963
937+982620323+979202921+975654663+973508025+974136333+976800906+978839353
927+978021271+974386925+969942662+967081277+966846734+968151920+969065030
917+969255296+970099422+971827727+972459132+970674163+968194014+967460120
907+968349155+969056301+968840201+967939974+966078912+963079561+960108366
897+958867517+959994544+962695508+965467357+967148077+967531707+966984912
887+965636154+963444537+960938273+959036877+958043452+957427251+956650559
877+955753358+955104567+954767958+954326819+953527672+952730638+952489056
867+952920974+953596303+953766156+953128697+952573455+953121095+954200608
857+954436910+953662823+952312727+950025379+947067981+945477712+946717575
847+949407348+950662768+949318233+946758684+944892483+944418472+944715169
837+944892483+944928664+945862961+948585817+951885596+952852202+950793483
827+948887723+949981737+953332197+956680264+959004286+960359238+960985505
817+961324296+961708982+961948451+961910933+961949225+962161594+961935429
807+960803967+959098258+957345176+955051210+951308603+947738805+947614002
797+951193021+955328057+958127288+960450043+962584221+963442777+962725425
787+960861406+958352749+957015465+959182234+964227001+968117429+967837625
777+964788930+962358970+962077477+963508100+965363249+965415127+962340387
767+958053659+955882244+957222414+960622922+963446719+964104943+962866910
757+961261085+960680502+961670619+964285988+968088217+971670192+972834456
747+970450954+966361672+963854422+963849495+964182091+963514576+963551249
737+965978464+969693478+972054948+971225111+967582107+963955715+962768081
727+962798068+961229480+958666340+958426448+961407498+965383310+968887786
717+971900159+972809467+969711569+965146304+963982322+966868415+970093087
707+970543166+968366683+965810230+964432964+963465865+961776909+960255342
697+960620459+963309175+967579714+972137446+974288659+970664027+961512943
687+951782403+946049285+944493368+943903422+941366891+936696110+931485503
677+927414663+925039256+924446284+926270391+929913959+933481152+935467158
667+935357489+932787381+927629637+922826381+922065598+924806544+926541395
657+924511325+920114858+915753093+912381023+909988792+908246127+906404001
647+903872255+900569168+896361489+891699859+889000232+890749584+895493852
637+898263588+895987784+890527219+886062613+885473302+888010397+890071650
627+889588628+887052589+881884921+873190885+862915239+855175209+852950860
617+856265069+862590526+868442252+871951725+873823205+875474362+877887991
607+881663894+885112127+884502543+877935998+867199362+856176447
##END=
