##TITLE=<SNM>
##JCAMP-DX=4.24
##DATA TYPE=INFRARED SPECTRUM
##DATE=2/5/2025
##SAMPLING PROCEDURE=Instrument type and / or accessory
##ORIGIN=Admin
##XUNITS=1/CM
##YUNITS=ABSORBANCE
##RESOLUTION=4
##FIRSTX=4497.3318
##LASTX=599.83466
##DELTAX=-1.4281778
##MAXY=1.7296073
##MINY=0.28558388
##XFACTOR=1
##YFACTOR=1.6108224e-09
##NPOINTS=2730
##FIRSTY=0.30687568
##XYDATA=(X++(Y..Y))
4497+190508701+189937510+190015160+189992144+189875401+190019082+190255103
4487+190168203+189938065+190298859+191597336+193241418+194295882+194490090
4477+194251423+193782692+192914296+192001738+191833431+192343568+192450968
4467+191546310+190379950+190135067+191122482+192630135+193817364+194406205
4457+194346298+193437180+191885143+190643205+190486518+191089623+191397966
4447+190772307+189646318+189008855+189349649+190322892+191338743+192069693
4437+192325381+191904643+190846387+189657659+189036107+189235293+189834420
4427+190246352+190227740+189910498+189663764+189670813+189394885+188148008
4417+186387701+185411405+185681265+186444814+186822888+186451419+185514439
4407+184780843+185068335+186324852+187693652+188478478+188511928+187820775
4397+186611714+185517732+185257363+185931310+186935635+187483811+187094987
4387+185842356+184287765+182999019+182129014+181575048+181226760+180871961
4377+180347523+179860420+179634501+179437887+179055132+178854430+179324641
4367+180432777+181677175+182445590+182480446+182169680+181985555+181802836
4357+181364743+181006946+181181099+181710477+182081225+182086128+181976433
4347+182265054+183186308+184139366+184156387+183127899+181948089+181359970
4337+181278675+181234198+181014791+180837844+180979601+181238971+181119934
4327+180648373+180381898+180465210+180405284+179994203+179687840+179750763
4317+179757423+179354298+178910471+178942681+179327768+179549728+179444585
4307+179252467+179137981+179099073+179195224+179523863+180045655+180509280
4297+180449779+179524918+178171103+177549829+178387772+180159457+181727776
4287+182415710+182176100+181173810+179672983+178162518+177290736+177535213
4277+178749380+180062362+180596439+180311482+179789949+179395131+179154281
4267+179191764+179678404+180468947+181175882+181541782+181620561+181665741
4257+181831254+181993658+181963871+181743928+181455233+181251626+181320636
4247+181618489+181699691+181248610+180612961+180387560+180685190+181218860
4237+181907479+182941776+184160809+184761676+184075018+182511991+181209739
4227+180840712+181234253+181872993+182251622+182090161+181644372+181434123
4217+181458989+181244744+180710814+180384285+180727022+181671310+182711102
4207+183199759+182787475+181730144+180641712+180035961+180159087+180857752
4197+181457305+181277288+180474164+179882733+179987691+180517439+180999416
4187+181285280+181496417+181717952+181806499+181538637+181008519+180681730
4177+180929851+181674492+182481815+182865662+182660186+182273139+182348513
4167+183009251+183627157+183478388+182567902+181680302+181569756+182252510
4157+183119722+183552912+183383106+182964366+182842295+183209453+183757018
4147+184052687+183880422+183258796+182359855+181445501+180824431+180812997
4137+181562393+182840537+184102659+184826912+184789169+184213020+183691616
4127+183674336+183980366+184012188+183436779+182550529+181980245+182075323
4117+182624960+183192340+183568434+183711819+183482903+182860408+182272917
4107+182230142+182657689+183000240+182945514+182666828+182482000+182666847
4097+183389415+184444841+185233034+185332108+184885561+184171022+183180073
4087+182011678+181257306+181403300+182112363+182616579+182615469+182404961
4077+182354008+182534840+182697744+182549715+182153232+181841411+181709460
4067+181595732+181568276+181901207+182514803+182906050+182732304+182168644
4057+181632106+181368850+181396676+181660283+182080633+182547661+183047012
4047+183716463+184557921+185165338+185011240+184069635+182945699+182326441
4037+182439262+182997835+183514706+183755501+183951855+184316220+184487579
4027+183997498+183104218+182527032+182582092+183115078+183890024+184601196
4017+184932055+184895940+184789243+184765894+184743859+184663360+184647190
4007+184835866+185079010+185027040+184689650+184545525+184841158+185248741
3997+185507094+185805945+186219357+186435119+186378302+186465702+186964349
3987+187594319+187870543+187485439+186460281+185190222+184290078+184291169
3977+185318010+186840742+187917056+188017536+187455263+186833767+186468070
3967+186502834+187117540+188302327+189616882+190437619+190526980+190240894
3957+190076233+190174345+190399876+190784370+191617965+192867729+193741157
3947+193533998+192796129+192603400+192894074+192657036+191588974+190413326
3937+189895789+190584797+192867174+196227418+198805243+199020727+197679383
3927+197095185+198314995+199995339+200242498+199159506+198479268+199101116
3917+199859928+198891662+196031212+192915295+190971862+190539006+191884217
3907+195925939+203087815+211560952+217777021+219653165+217702831+212871769
3897+206471501+201344011+200245921+203007260+205826952+205453318+204113823
3887+205649210+209443125+211767537+212157637+212829993+212591586+209089066
3878+205043644+204819204+208572750+213594579+218250785+221382557+221053030
3868+218337500+217011567+217734950+217177117+213406809+208972230+207334772
3858+210277960+218727175+231899200+241615255+237479584+224630850+213188623
3848+207308925+207250831+211315846+216990623+222596538+227894148+232171650
3838+233154699+230103759+225535564+221638263+218494669+215933514+214623806
3828+214779735+215859712+218539349+224465504+232042104+235454708+233341951
3818+230641333+228624468+224214866+217591712+212710623+212319801+216443170
3808+222244496+226047680+228474793+232814996+238066815+239388826+236566544
3798+233346650+230242963+226219021+222674670+221638208+223072855+225861390
3788+229516047+233831033+238145760+242414049+247811510+254551870+260439801
3778+263825115+266463438+271244472+279717295+291940740+305980070+318385808
3768+327724233+335244127+341763877+348004739+355936398+366500867+377584298
3758+386603687+394641173+405603088+422841016+445903601+467440198+480367322
3748+489091688+500751287+514508675+522129772+522135766+522967178+530568626
3738+544314358+558345196+566283072+566758000+562812448+558403290+556183577
3728+556322596+556948828+556110349+553331748+549142053+544410565+540602182
3718+539268126+541203215+546617253+554783953+562229657+564196901+560562208
3708+555049410+550412168+548014065+548193195+549656796+550694905+551463708
3698+553290120+557056802+563353056+572581805+583988047+594223600+597842493
3688+593146306+585179272+579536891+578837505+583263055+591070200+600135657
3678+608625463+611556885+603660341+591228646+584484215+583564848+580214742
3668+570844273+560784112+554525416+551919210+550619308+549819830+551170647
3658+555480416+560301043+563441381+566964401+573600191+582016992+586447537
3648+582957635+574646292+566438112+561004611+558633002+557786789+556787497
3638+555801007+556590125+560392366+567097832+576393667+587442760+595668257
3628+595268295+588914539+583570325+583047774+588445531+598041716+606382291
3618+608981688+608175882+608437009+610473115+613087424+616493404+620467115
3608+622187330+620265932+617975026+619134096+623738702+628602696+631491934
3598+633401491+635959260+638533384+639742926+640689305+644378540+651406669
3588+656984296+655633256+649720090+645809949+646270262+648556210+649663402
3578+649630026+649624697+649212932+648009385+647978229+651658805+658595390
3568+664064081+663087064+657164351+652198081+651108798+652424833+653403701
3558+652801002+651044858+649032655+647674141+648178191+651482081+656357990
3548+659244638+657810416+653380685+648115730+642792978+638602579+637464527
3538+639425074+642194275+643926368+644779944+645649062+646813238+647668887
3528+647185559+645322699+643642854+643138656+642427688+639724499+635502130
3518+631840129+630357582+631346736+633583766+634891143+634068057+632132746
3508+630980262+631551286+633676717+636789599+640023776+641764749+640235061
3498+635396969+629622340+625768591+625013516+626530919+628310597+628664638
3488+627929914+627663865+628086213+628044548+627291397+626897615+627227161
3478+626904350+624424286+620478512+617702539+617758598+619533946+620643396
3468+620052131+618677151+617936691+618048069+617660097+615731150+613287793
3458+612019233+611936643+611553518+609743201+607078791+605635948+607017774
3448+610437815+613591104+615307692+615752168+614865030+612844206+611070929
3438+610800218+611489577+611336312+609217875+605755947+602603250+600939687
3428+600761926+601122184+600933581+600023095+599184245+598910944+598737735
3418+598203565+597639090+597592837+598125378+598772147+598899806+598316016
3408+597503438+596932155+596595542+596572305+597258666+598510280+599378768
3398+599323782+598999528+599111942+599146947+598108653+596155174+594631443
3388+594126025+593356518+591088998+588438167+587581371+588842014+590771071
3378+592549010+594433035+596107959+596632397+596056081+595605241+596083796
3368+596902553+596983848+596172084+595291126+594831220+594110557+592300944
3358+589944914+588525493+588670840+589638125+590398381+590482340+589902435
3348+589080310+588803161+589628874+591318340+593042181+594087135+594362138
3338+594356366+594631295+595335936+596317616+597521459+598827318+599620728
3328+599211220+597702550+595875804+594314960+593202698+592673339+592703866
3318+592851099+592564218+591777801+591229904+592026718+594189817+595842835
3308+595121987+592643922+590793606+591144243+593426379+596311621+598543693
3298+599817582+600800187+601940385+602607543+601854613+599665575+597180406
3288+595826739+596259484+597946656+599514531+599811847+599006300+598306062
3278+598397237+598776921+598981471+599433347+600265277+600600299+600114824
3268+600009108+601042480+601784234+600418912+597514058+595273106+594618344
3258+594614681+594386079+594201732+594670370+595892603+597459331+598698549
3248+598955643+597944177+596026886+594182490+593425750+593958514+594834625
3238+594656309+592909378+590660248+589682010+590702912+592753375+594308891
3228+594570241+593491467+591432752+589139219+587325202+586110591+585214869
3218+584669894+584958922+586258750+587750325+588097262+586767203+584592818
3208+583003149+582869273+583770916+584304605+583549048+582108647+581241269
3198+581312943+581659102+581584209+580995979+580232874+579435245+578240468
3188+576528911+574988529+574122631+573303060+571683863+569651124+568492572
3178+568707335+569346629+569092273+567620013+565688254+564148316+563213963
3168+562550173+561727716+560641541+559674515+559341713+559668113+560020674
3158+559677364+558584973+557378910+556649403+556452586+556485888+556400227
3148+555931589+555053776+554084344+553421035+553127679+552842574+552032845
3138+550404656+548260391+546419474+545577887+545741919+546394423+546958713
3128+546800083+545275094+542582784+540254727+539867013+541260754+542558806
3118+542093128+540137614+538497436+538521228+539826903+540819535+540258242
3108+538352681+536299480+534883057+533932423+533178383+532855979+533045803
3098+533147893+532495093+531110196+529663505+528838383+528634832+528395684
3088+527776001+527300813+527556871+528226952+528348691+527411636+525935824
3078+524799954+524225008+523852687+523510672+523296057+523190822+523117482
3068+523113005+523066641+522572989+521357194+519756979+518612118+518547104
3058+519320311+519977662+519657294+518205089+516216346+514544087+513568624
3048+512971365+512284596+511424544+510536518+509657521+508808163+508178156
3038+507961432+508082061+508268591+508312735+508073439+507426411+506456314
3028+505468788+504631640+503884077+503274051+503002785+503065912+503162452
3018+502982286+502448116+501717758+500984440+500224740+499211238+497879107
3008+496622461+496022241+496137837+496247069+495637562+494463210+493323899
2998+492373043+491449976+490644281+490061675+489422787+488414910+487138394
2988+485987242+485310612+485041677+484550690+483350991+481928425+481183377
2978+481237105+481471258+481465152+481303562+481193701+481121028+480745155
2968+479658389+477941948+476321048+475552800+475683419+475953834+475439794
2958+473864556+471834000+470258132+469569662+469562705+469923851+470551933
2948+471151487+471075187+470073082+468775030+468038530+468127781+468593792
2938+468572330+467372557+465255859+463386080+462620237+462665713+462710708
2928+462420497+461901572+461121557+459940914+458553686+457383182+456590919
2918+455959063+455168909+454167285+453373875+453307825+453870228+454346489
2908+454229745+453664271+453053062+452602666+452197044+451487074+450265544
2898+448822627+447683353+447020229+446599028+446204470+445781752+445221421
2888+444342868+443122929+441805154+440835464+440599128+440932448+441063326
2878+440463217+439525793+438978191+438950698+438993621+438723465+438176048
2868+437642323+437283915+436972686+436536240+435982311+435433784+435022648
2858+434797672+434596674+434187018+433552275+432790391+431900404+430947883
2848+430127868+429470739+428844950+428243103+427692985+427048325+426195785
2838+425281265+424456181+423579219+422465218+421316139+420587261+420413571
2828+420421304+420169797+419557293+418743754+417914932+417179838+416525336
2818+415843303+415071466+414271469+413554691+412993584+412591254+412277879
2808+411952071+411580417+411247985+411031557+410792594+410222458+409217504
2798+408100136+407296291+406878272+406542547+405942661+404993803+403958951
2788+403214828+402841249+402544007+402043251+401330285+400459428+399379358
2778+398147985+397048971+396278650+395689050+395028887+394278104+393575128
2768+392974279+392452394+392061499+391908863+391980870+392043811+391757004
2758+390944649+389764746+388566823+387598502+386829255+385979859+384822048
2748+383583940+382838078+382762630+382789679+382282299+381328556+380543694
2738+380264509+380250115+380073687+379531709+378678392+377719987+376955883
2728+376587041+376475885+376264082+375737239+374922589+373957672+373065761
2718+372482303+372201898+371915571+371300403+370297040+369161540+368302414
2708+367913220+367737458+367377163+366790524+366254319+365890324+365539058
2698+365093732+364619913+364123745+363524192+362873427+362298110+361745143
2688+361092713+360448423+360017046+359715142+359207873+358366508+357468343
2678+356851954+356529624+356265277+355892809+355358269+354608929+353735704
2668+353050897+352707290+352433434+351936896+351332273+350892497+350612461
2658+350261491+349683325+348907306+348140020+347657543+347493880+347314899
2648+346843226+346243266+345791945+345390319+344774854+344034802+343500743
2638+343197469+342804761+342201877+341712887+341653017+341859788+341895791
2628+341582786+341096683+340601477+340062164+339432342+338770439+338109313
2618+337438641+336875239+336592983+336510430+336324048+335914725+335445680
2608+335061408+334765683+334541521+334340523+334042763+333619046+333191813
2598+332791593+332253131+331489397+330676894+330056804+329732291+329713160
2588+329921707+330085296+329887147+329318860+328651814+328041863+327434095
2578+326843163+326433322+326288013+326283277+326181890+325793177+325136640
2568+324461379+323980493+323643362+323305898+322997037+322816612+322693690
2558+322476521+322176615+321916302+321718486+321535323+321394528+321329699
2548+321253844+321054400+320715937+320267613+319749798+319266988+318907730
2538+318614965+318286382+317937632+317637837+317391511+317181336+317001836
2528+316808164+316572310+316386075+316367722+316462930+316452569+316195105
2518+315797623+315483952+315332833+315250132+315176238+315157737+315193185
2508+315160105+314933612+314488100+313919407+313441888+313262610+313353304
2498+313441814+313315043+313049364+312874268+312869976+312885406+312762261
2488+312531624+312280635+311947389+311459584+310969706+310692890+310609523
2478+310567007+310552465+310628135+310709171+310616886+310320680+309993004
2468+309805308+309741571+309666733+309507918+309252766+308865867+308400392
2458+308104020+308189366+308540725+308814378+308789586+308502871+308094140
2448+307663448+307293478+307101230+307157086+307368648+307540489+307556196
2438+307429980+307200083+306895181+306616385+306502103+306518939+306415609
2428+306035666+305579276+305367621+305441127+305601662+305733688+305830265
2418+305822161+305652985+305440590+305351210+305388342+305433485+305416298
2408+305382977+305456686+305710876+306054685+306318477+306437182+306437755
2398+306307376+306025805+305686047+305437352+305312339+305205938+305038927
2388+304826957+304502389+303798395+302464247+300460278+297779679+294300489
2378+290079786+285589703+281328870+277317990+273277489+269186757+265355099
2368+262047379+259384264+257536890+256682555+256786144+257719276+259664059
2358+263139660+268465946+275545157+284235666+294005486+303076104+309159113
2348+311156310+309844327+307306243+305249971+303618951+301506712+298619601
2338+295214398+291572897+287965216+284718976+282139560+280387172+279361293
2328+278722868+278150105+277627276+277454215+277926738+279025753+280467782
2318+281972420+283384291+284655942+285840414+287041889+288317110+289668483
2308+291088884+292494336+293673776+294465058+294941282+295289736+295574600
2298+295764146+295901463+296099723+296437464+296957388+297656275+298389630
2288+298908758+299101523+299106389+299106944+299114511+299033698+298842746
2278+298599065+298332017+298036736+297743194+297516979+297399237+297366101
2268+297346563+297304787+297300292+297417275+297637441+297841159+297931593
2258+297922195+297919308+298027559+298242175+298441249+298502322+298401286
2248+298201213+298004932+297930853+298063378+298372276+298698139+298880951
2238+298921395+298952125+299037157+299103059+299090867+299057620+299093364
2228+299223281+299388756+299488756+299505426+299578173+299823870+300117874
2218+300234229+300173970+300165367+300346051+300604921+300765050+300799518
2208+300800961+300822719+300858463+300936002+301095336+301283734+301406158
2198+301477221+301593150+301754371+301855462+301877367+301954055+302182972
2188+302468651+302653941+302751147+302901951+303115012+303223837+303161081
2178+303085429+303149499+303316344+303469072+303553993+303610533+303763724
2168+304095064+304452121+304571584+304439410+304318708+304400113+304622573
2158+304841962+305030027+305266863+305572190+305804455+305815501+305682698
2148+305659516+305894649+306294851+306661454+306879566+306945745+306894978
2138+306791981+306746468+306831056+307015125+307231535+307438102+307611053
2128+307772310+307981967+308219431+308377136+308445406+308571511+308866699
2118+309249862+309536965+309657871+309742588+309951672+310271060+310567636
2108+310776812+310910317+310965673+310967708+311037088+311308354+311796308
2098+312345057+312679782+312605259+312247000+311984836+312044151+312277342
2088+312435343+312483261+312538062+312666128+312834342+312948754+312935692
2078+312860281+312890882+313096395+313392120+313687252+313963144+314238110
2068+314536759+314821753+314938866+314751411+314333799+313928288+313724958
2058+313724477+313790231+313819611+313856835+314006252+314283883+314618719
2048+314938607+315191853+315358772+315482175+315610427+315709779+315719288
2038+315678474+315712295+315881878+316098972+316212755+316179749+316125392
2028+316215086+316483244+316810421+317070328+317318023+317803831+318667657
2018+319591649+320001823+319771334+319451372+319606413+320208890+320858508
2008+321339801+321751899+322238372+322794226+323329691+323804878+324212536
1998+324547151+325000877+325983259+327507471+328745542+328802748+327791688
1988+326518613+325492864+324782228+324378345+324262009+324332351+324445468
1978+324458937+324331833+324190039+324145117+324211204+324533016+325265594
1968+325995729+325875656+324723172+323380051+322662089+322577316+322732727
1958+322947454+323221347+323462271+323498016+323275630+322988379+322978240
1948+323521290+324785263+326733636+328633054+329088778+327524159+325131163
1938+323428562+322722367+322459870+322261092+322141204+322154007+322220389
1928+322370361+323029895+324549556+326349141+327435760+327906989+328504692
1918+328777401+327571264+325316102+323786784+323876589+324890498+325536268
1908+325126279+324003286+322989230+322527252+322448695+322446105+322567474
1898+323136167+324120770+324915216+325307370+326105294+327747692+329020989
1888+328554571+326875171+325402762+324610018+324218790+324064859+324115626
1878+324264858+324420232+324683765+325685203+328542953+333593181+338720893
1868+340193116+336953204+332006546+328486746+327133375+327081682+327344808
1858+327466398+327469988+327538998+327759903+328259957+329333365+331238445
1848+334257600+338574806+342873993+343933785+340639182+336226768+333807537
1838+333479546+333744226+333978304+335327383+339053250+344080019+347176953
1828+347068979+345799049+344585549+342504225+339490954+337151316+336430320
1818+336722714+337176366+337898695+339575505+342107039+344092452+344233580
1808+342973086+341975680+342632957+345381697+349406435+352714765+353618924
1798+352695301+352469585+355118751+360302004+364148278+362612114+357357002
1788+353326381+352681610+354212298+356153936+358019238+359597770+360304557
1778+360615453+362501587+367600104+375100165+380886930+381047151+376767873
1768+371516017+367358070+365807438+367665599+371192799+373284705+373647923
1758+374088809+374677188+375053060+377121137+382807144+390334476+394849572
1748+394197031+391007331+388493521+388037242+389539585+391701463+392816352
1738+393579420+397361199+405312284+411735680+409893726+402873368+396292748
1728+391761481+389610445+389921637+391886217+395325500+402029782+413425367
1718+426370215+432726525+429059602+421046167+414429729+411536495+413117506
1708+418912708+426751749+433404783+438770385+446210982+456511105+464406242
1698+465995986+463226007+457193211+449712873+445414686+446555476+451685963
1688+459386504+470892542+485766929+495116047+491700632+483154063+478095583
1678+478923813+484487119+491282835+496423424+501225068+507292610+511209559
1668+509003056+504459393+503766667+507584671+511425728+511681601+510576370
1658+512843187+521685555+537877420+555348280+559168504+551372275+547753974
1648+550940380+552863073+546678899+537121271+531210473+530844887+535827808
1638+545228804+554542770+554903545+544975003+534690199+530481114+531774171
1628+535067293+537997530+540679073+542477104+541451170+539055842+539625830
1618+544197689+547787535+545286084+539717930+536409008+536427361+537847485
1608+538660025+538576695+538540692+539079709+539654063+539591344+539238154
1598+539554674+540718148+541850317+542196698+541933425+541637478+541578496
1588+541656534+541649652+541477367+541328728+541708190+543654305+548535950
1578+556374954+563198755+563396127+559347671+558328915+561993876+565571252
1568+564733143+561805126+560849015+563634646+572157274+589174926+610651357
1558+618074230+606910244+593955886+586428407+583616171+583751230+585278180
1548+588096855+594157403+605131935+620273148+636984159+649875871+650021735
1538+639501743+631757095+632484048+637997883+641495296+642023767+644732803
1528+652380948+662965103+673714364+684503439+694850629+701423108+703332887
1518+703682414+703416439+701681016+700161245+702288599+710335633+724713592
1508+741845878+749327216+738789462+723767657+716202028+716659528+721802892
1498+727294081+729130965+727218595+726207610+730183541+738498325+745381256
1488+745274985+739843445+734669146+732821236+734020491+736727454+740455394
1478+746118348+754331450+764168670+772555239+774527701+768826707+761631030
1468+759085990+761903813+766037080+767060572+766351602+769239064+778341930
1458+789598497+792540723+784191526+773695438+766829454+763846895+763270690
1448+762797057+760732162+757785940+755592869+754623622+755129670+758189565
1438+763657515+767662679+766301130+762102443+759688615+759718883+760008687
1428+759471927+759313038+760392404+762121537+764430944+768259827+772317016
1418+771980884+765820392+758291544+753343776+751391592+750832186+750524990
1408+750918254+752529792+754242569+754764750+755196127+757626533+761950955
1398+766006590+768275146+768437884+766320594+763036464+761318136+762743995
1388+765669496+766810583+765812696+765974027+769582967+775638223+782130999
1378+788713468+796173492+804006206+809970880+812874476+814227365+815736332
1368+817484114+819415725+822137859+825031464+825712978+823142850+819348158
1358+816499770+814645495+812861821+811065418+809844479+809070163+807933738
1348+806367121+805238319+805074102+805717355+807138774+809397488+811700457
1338+812640397+811844619+810503348+810093359+811321180+814050197+817450071
1328+820345452+822130903+823294709+824760679+827106867+830388629+834025986
1318+837041478+839103041+840885828+842961823+845121443+847086134+849188771
1308+852001562+855483878+858723088+860813810+861963851+863212467+865087834
1298+867111803+868530928+868962896+868309874+866550621+863868746+860741284
1288+857649272+854715186+851672091+848151144+844134065+840223925+837214502
1278+835292808+833993276+832973410+832408972+832501256+832970820+833357349
1268+833700659+834448334+835604222+836524921+836714078+836267753+835591641
1258+835273715+835870937+837234113+838518770+839332310+840391769+842740695
1248+846531687+850473724+852748645+853028385+852944611+854031970+856109889
1238+858092933+859463658+860485522+861666868+863289285+865161543+867022997
1228+869169223+872033965+875219225+877784024+879552823+881339902+883769938
1218+886513460+888811989+890450094+892059190+894280531+896810622+898927616
1208+900768201+903052150+905729216+908020862+909728236+911339256+913115678
1198+915271081+918522353+923223017+928288750+932031565+933989225+935148443
1188+936643053+938919750+941872115+945259778+948724630+951627337+953405905
1178+954165717+954409786+954273246+953844534+953925940+955454074+958315560
1168+961409201+963631430+964430465+964007599+963471801+964227246+966787458
1158+970414972+973898399+976470007+978195587+979683610+981471651+983715637
1148+986058421+987973529+989453929+990829317+992001190+992582279+992550974
1138+992047813+991157826+990756421+992230606+995375310+998066807+999021770
1128+999633424+1002367473+1007691706+1013040730+1015358352+1014546959
1120+1013144338+1012652129+1012624599+1013077363+1014973599+1018144353
1111+1021380380+1024623142+1028209287+1030429593+1029201032+1025599049
1103+1022865739+1023381630+1027980833+1035488590+1041886195+1043224136
1094+1040601834+1038705894+1039579822+1041670692+1043263729+1043461249
1085+1041647306+1038804321+1037814205+1040466331+1045543978+1050570488
1077+1053901463+1055067490+1054164922+1051310096+1047410094+1044928772
1068+1045652914+1047700787+1047252611+1043863171+1041247678+1042995830
1060+1049605977+1058410972+1065154255+1067262591+1066264852+1065464855
1051+1065902818+1065801505+1063696278+1060963191+1060209226+1062132696
1043+1065185190+1067803791+1069222693+1069097846+1068260107+1068603935
1034+1070845702+1073311187+1073741823+1071800592+1068907505+1066057341
1025+1063261868+1061116382+1061059102+1063219537+1065494827+1065619156
1017+1063523032+1061093440+1060135442+1061080119+1062865865+1064012873
1008+1063755852+1062187607+1060025249+1057739079+1054938351+1051557495
1000+1048818340+1047867446+1048055864+1047714848+1046057352+1043208521
991+1039697564+1036924736+1036543461+1038298125+1039348334+1036694950
983+1030423006+1023954948+1020649875+1020795591+1021813681+1020833408
974+1017209889+1012711999+1009501282+1008204118+1007755794+1006654226
965+1003965690+999469354+993651728+987507962+981855738+976950153+972945211
955+970048054+968047989+966430160+964876272+963176668+960906261+957693472
945+953862961+950545306+948802705+948495805+948336250+947319270+945676280
935+944473251+944690308+946176333+947250297+946303178+943750368+941392265
925+940620168+941723142+943601839+944193437+942646506+940778317+940866310
915+942672481+943886759+942998770+940965403+939900097+940471270+941001221
905+939656842+936953283+935043282+935471106+938040346+941028085+942534462
895+942050763+940543869+938993459+937478276+935760688+934058494+932909859
885+932369176+931879558+931128553+930468500+930472200+931309643+932496317
875+933170505+932490101+929925597+925841397+921921709+920000385+920052189
865+920203678+919264477+918346442+919074802+921001676+922050330+921352165
855+920329561+920375740+921071463+921301397+920987985+921014257+921757122
845+922722520+923622350+924618312+925560991+926383263+927654969+929102067
835+928934519+926502485+923865013+923268604+924634667+926259600+926770680
825+926052903+925374201+926432698+929259180+931847217+932770063+933062457
815+934449020+936905919+939214217+941001591+942848318+944423075+944341003
805+942020495+938039976+933407100+929355091+927098153+927347033+929584581
795+931910196+933004067+933910113+935843870+937555463+937467767+936653636
785+936801350+937421070+937650708+938457661+940726440+943134052+943900746
776+943199251+942061790+940406885+938204267+937189063+939071239+942801473
766+945373154+945224404+943537973+942189005+941456575+940365664+938812664
756+938080530+938953644+940678188+942129135+942968280+943603615+944578856
746+945700924+945885493+944521946+942626894+942092132+943705594+946441124
736+949208402+951741749+953040467+951825005+948968699+946860586+946316055
726+946120015+945185107+943355402+941118667+939413069+938414516+937218517
716+936078615+936999240+940246590+942233778+939427722+933267748+928514836
706+927759242+929688411+931781501+933172725+934337346+934757917+932703458
696+927453675+920886598+916213981+914920296+915654724+916180457+915816869
686+915278333+914690436+913479044+911797201+910616965+910170788+909091643
676+906057799+901829288+897288844+890511519+879843146+870544018+871106384
666+878020545+882263857+881847800+878861911+874854601+870960520+868772407
656+868618032+868890519+868277238+867360535+867475391+868589170+868950759
646+867726713+866835986+868353833+870892879+870469347+865556509+859291966
636+855555220+854974056+855180161+853538503+849520759+844915783+842009819
626+841961938+844167886+846650021+847308150+845467566+843342801+845188122
616+852142912+858768009+858763495+852500061+846085436+843894214+844860649
606+845375799+843454179+839962316+836471859+833764452
##END=
