##TITLE=<SNM>
##JCAMP-DX=4.24
##DATA TYPE=INFRARED SPECTRUM
##DATE=2/5/2025
##SAMPLING PROCEDURE=Instrument type and / or accessory
##ORIGIN=Admin
##XUNITS=1/CM
##YUNITS=ABSORBANCE
##RESOLUTION=4
##FIRSTX=4497.3318
##LASTX=599.83466
##DELTAX=-1.4281778
##MAXY=1.8582574
##MINY=0.39805368
##XFACTOR=1
##YFACTOR=1.7306371e-09
##NPOINTS=2730
##FIRSTY=0.42160261
##XYDATA=(X++(Y..Y))
4497+243611218+244340452+244426451+243476038+242438076+242190257+242645582
4487+243268979+243776965+244310729+245142872+246037818+246100380+244765865
4477+242783380+241690881+242342210+244166422+245732293+245903809+244677283
4467+243156702+242562201+243175920+244311986+245156631+245328526+244778471
4457+243726888+242623678+241766772+241175456+240893730+240915686+240918045
4447+240682935+240660686+241447815+242802099+243793376+243821135+242949884
4437+241628733+240640848+240710883+241681806+242684827+243250708+243470355
4427+243249847+242431498+241373302+240671828+240613846+241014996+241277126
4417+240855793+239977207+239469772+239773679+240628174+241521467+241999557
4407+241820758+241098205+240223631+239738756+240118845+241142600+241721499
4397+241047646+239675591+238914637+239468033+240939330+242190756+242146775
4387+240845289+239489231+239016565+239139863+239082381+238510939+237469188
4377+236246124+235389029+235107096+234972105+234824543+235245703+236508374
4367+237855770+238394236+238095031+237508416+237058825+236969813+237338193
4357+237876297+237896996+237092681+236096651+235743942+236131867+236786054
4347+237276319+237350798+236853024+235786339+234457524+233530927+233575717
4337+234294515+234660983+234121984+233189583+232742730+233196058+234254856
4327+235178561+235466503+235319475+235133908+234845827+234260092+233664264
4317+233555604+233996154+234599265+234975050+234995404+234836408+234838027
4307+234969935+234597750+233445444+232479567+232842695+234210927+235136388
4297+234715296+233265301+231819319+231462081+232576277+234432124+235973576
4287+236829380+237038368+236373469+234783610+233017034+232016527+232024535
4277+232698611+233717992+234834582+235579073+235514256+234878030+234498233
4267+234810801+235306991+235193508+234253479+232838459+231459291+230588609
4257+230416353+230692276+231086796+231597175+232428354+233707832+235272102
4247+236496699+236700813+236031282+235427654+235501478+236084924+236901913
4237+237810583+238359502+237978156+236710835+235186861+234034349+233684378
4227+234250999+235288685+236112976+236477877+236595906+236670677+236767697
4217+236856950+236809267+236627092+236560862+236623321+236315178+235331134
4207+234254736+234023362+234793925+235731130+235969926+235505611+234986398
4197+234927349+235358445+235980275+236422892+236512111+236328490+235921123
4187+235196143+234240426+233400224+232842988+232401335+231968895+231695452
4177+231766211+232265914+233169831+234300405+235435042+236432088+237108145
4167+237269793+237080368+236961530+236862220+236134691+234404846+232228304
4157+230678603+230436552+231381334+232888363+234308756+235240451+235650848
4147+235790919+235760697+235368089+234708718+234412561+234864202+235632732
4137+236023671+235768102+235039626+234242268+233835401+234043200+234652907
4127+235216204+235485412+235523004+235353727+234801726+233892125+233112746
4117+232902398+233097833+233214914+233137216+233226314+233731166+234333382
4107+234467150+234015148+233512070+233603666+234327423+234996351+234927521
4097+234195102+233395109+232816365+232302886+231868845+231919352+232710321
4087+233849918+234568148+234504277+233971942+233339091+232534242+231434115
4077+230393122+230004130+230458698+231384727+232245972+232689312+232560848
4067+231973562+231417101+231369779+231755741+232174421+232550120+233085245
4057+233700582+233931818+233367763+232119540+230937633+230692121+231545996
4047+232823701+233754947+234091503+233997049+233669258+233208577+232741060
4037+232518796+232725940+233177426+233471602+233518011+233606765+233936244
4027+234426165+234947411+235374357+235517235+235322851+234974051+234559658
4017+233924569+233040558+232224912+231852399+232074973+232818569+233848988
4007+234833515+235451195+235532010+235194886+234838250+234771642+234812127
3997+234552322+234019092+233696346+233895225+234447071+235034202+235592247
3987+236324856+237305250+238082873+237960263+236866852+235680450+235381125
3977+236073128+237020269+237444339+237169381+236608545+236261364+236268097
3967+236484438+236891081+237607210+238447826+238899311+238687551+237995893
3957+237156913+236548963+236635306+237705315+239574851+241462590+242240661
3947+241549467+240580594+240658344+241327874+241054276+239688971+238664200
3937+239016909+240652386+242968482+245140720+246112469+245461433+244300879
3927+244205547+245223877+245807736+245109137+244370243+245104195+247022293
3917+248339519+247642470+245201146+242416103+240507613+240143436+241938580
3907+246492541+253327728+260073075+263871576+263973435+261334489+256677636
3897+251281819+247767559+248145840+251619529+254515404+254206641+253120135
3887+254679910+258056028+259956510+260192912+260589998+259876848+256345591
3878+252845142+253081269+256910387+261893550+266452471+269247055+268637951
3868+265930623+264302569+264086556+262758877+259212346+255670430+254979408
3858+258773931+267618570+279428051+285607363+279378801+268038576+259507057
3848+255710209+256122432+259415788+263972091+268754964+273408390+276883319
3838+277342347+274897510+271894524+269547947+267262365+264892041+263521243
3828+263645695+264784465+267539459+273261035+279977297+282308289+279904919
3818+277307716+274675246+269233055+262609886+259125968+260710369+266398881
3808+272743750+276304626+278326253+281948882+285686749+285461833+282406584
3798+280119279+278308069+275558069+273079979+272747986+274561195+277551282
3788+281391267+286044211+290889025+295678441+301425934+308485726+314882980
3778+319152132+323372861+330568385+341633754+355479982+369615651+380923621
3768+388143599+392202352+394214387+395668377+398436734+402659288+406216961
3758+407708871+408948156+413063186+421510842+432335780+440693545+444995175
3748+449618483+457406528+465110330+467619451+467479311+471074215+480739218
3738+495448569+512009495+524899748+529848901+529339968+529974128+536035962
3728+547746546+561981060+573757874+580127713+582197127+582271795+581649999
3718+581169205+582295766+586868342+594455252+599681103+596721737+588119303
3708+580682555+577302804+577090820+577551364+575918935+571606560+567324492
3698+566119785+568865445+574615107+582265044+591308665+599790763+602661960
3688+597687872+590373045+586489079+586985510+590075476+594106435+599311828
3678+606603924+613220291+613329262+607945465+602757568+598019193+590593053
3668+582029538+576734908+575191613+574701416+573453520+572490381+573667777
3658+576426043+578087298+578320532+580468195+586792848+594663137+597197227
3648+590999249+580908901+572660003+568155034+566735829+566961141+567651853
3638+568298514+568889072+569861820+572008829+575850949+580206376+580927568
3628+575206078+567106688+562127227+562652416+568434280+576318174+581386940
3618+582057917+581487301+581873245+582229639+582131620+583343388+586027089
3608+586860214+583910767+580417361+580945339+586453949+593711329+599015361
3598+601681084+602577856+601634796+599181090+597813030+600238218+605643644
3588+608957269+606111764+600097149+596632122+597451814+600346501+602765214
3578+603943849+603668253+601390954+598157646+597183382+600652749+606932215
3568+611766404+612576798+610526533+607701899+605008279+602861717+601627632
3558+601374354+601929954+602894987+603460575+603020007+602219877+602449736
3548+603879652+604527898+602386571+598492755+596044285+596640250+598605377
3538+598734806+595397072+589899483+585058130+583051329+584298847+587430279
3528+590412170+591976130+591691923+589604876+586871304+585368373+585616003
3518+586179180+585650651+583986950+581649517+578944876+576475362+575053126
3508+574948530+575848745+577247113+578434944+578509130+577007508+574499489
3498+572070168+570382738+569624075+569894711+570844934+571152732+569653659
3488+567098939+565452700+565526989+566379194+566608225+565400935+562841772
3478+559917226+557873194+557296861+557853598+558764731+559370649+559373886
3468+558922677+558419013+557962431+557014894+554865198+551531081+548034747
3458+545545705+544444769+544457064+545312024+546872471+548788520+550290899
3448+550570180+549667726+548776431+548996715+549903715+549854017+547700567
3438+543926640+540283519+538605595+539303091+540743787+540912547+539544143
3428+537734998+536139732+534612899+533078111+531705160+530320086+528564359
3418+526858607+526249726+526837288+527379938+526973363+526017009+525061689
3408+523900584+522404093+521341834+521502431+522571063+523375395+522994238
3398+521608544+520314084+519881713+519874584+519489604+518838740+518413740
3388+517796835+516132170+513645436+511678725+511301735+512483952+514298952
3378+515403642+514866813+513278882+512430982+513094382+513881666+513341978
3368+512286709+512373018+513222640+512887289+510996141+509569635+510180030
3358+511806053+512370125+511627304+511059065+511259269+511290748+510562772
3348+509751827+509587785+509750312+509400943+508503104+507998132+508484024
3338+509382139+509776900+509390714+508366305+506976444+505798394+505232427
3328+504890877+504231059+503355331+502658902+502293795+502171908+502128306
3318+502046509+501969637+502006799+502072650+501817167+500994031+499955225
3308+499541280+500178850+501170299+501466077+501040973+500655270+500501733
3298+500127980+499552439+499400968+499844842+500183775+499778027+498909325
3288+498285945+498150248+498431113+499339250+501071970+503135529+504559590
3278+504840180+504355081+503825931+503549853+503132533+502039931+500392796
3268+498939013+498231494+498145702+498245202+498220335+497991579+497852266
3258+498306127+499326748+499971550+499249222+497301108+495264930+494096523
3248+493843107+493866734+493626302+493177228+492733354+492120100+491189955
3238+490347256+490065082+490207701+490175671+489521812+488328677+487046684
3228+485967996+485100672+484570179+484540939+484690309+484457351+483809690
3218+483125729+482483682+481684654+480714593+479599535+478173614+476508226
3208+475192068+474736381+474915783+474936827+474110005+472318873+470096025
3198+468320426+467635053+468076068+469203318+470328019+470677215+469884971
3188+468515947+467630954+467589281+467620519+466777544+464979834+462866508
3178+460978976+459414706+458039758+456751256+455662442+455081459+455042886
3168+454935361+454112810+452902764+452305560+452478797+452292610+450908500
3158+449038740+447849187+447390813+446891317+445903071+444525367+443095727
3148+442032400+441454585+440940280+440093585+439062322+438156045+437420939
3138+436848773+436556990+436590295+436850082+437196867+437389288+436992564
3128+435708953+433938313+432619159+432229357+432311809+432252639+432003115
3118+431665078+430939547+429534015+427894836+426999580+427210358+427604603
3108+426959388+425349036+424011594+423627406+423560728+422905250+421561746
3098+420030711+418752404+417976589+417818299+418097752+418400005+418549065
3088+418759051+419101566+419164696+418547998+417476232+416599127+416227992
3078+415993415+415388909+414500886+413845373+413536472+413099280+412222794
3068+411205273+410488731+410194434+410133611+409909849+409136341+407927536
3058+406978690+406802973+407122377+407271816+406896101+406025642+404887681
3048+403879012+403330679+403171148+403116732+403072269+403028391+402812791
3038+402244345+401351224+400324921+399378038+398539781+397562143+396320722
3028+395225020+394774981+394785830+394539578+393675112+392501161+391520078
3018+391019514+390981044+391078684+390877653+390240806+389452903+388832037
3008+388368532+387851712+387171849+386353844+385430519+384445028+383493358
2998+382620902+381813057+381207104+381039997+381213407+381234003+380814272
2988+380222715+379826370+379580290+379175403+378492027+377718348+377065245
2978+376472311+375669391+374550408+373380589+372548911+372215041+372242525
2968+372314437+372086749+371441878+370641713+370038860+369623779+369072863
2958+368253205+367430791+366918001+366723996+366629834+366429147+365982725
2948+365226644+364276455+363378823+362687870+362248405+362125623+362258875
2938+362271170+361761101+360781809+359790188+359134330+358792229+358623882
2928+358639036+358798807+358718181+357956625+356604476+355246989+354322803
2918+353754081+353216493+352610472+352168045+352110046+352355162+352645361
2908+352805752+352833270+352819080+352713795+352205482+351108437+349775334
2898+348746034+348145902+347783894+347546631+347349113+347014623+346493223
2888+345964900+345584431+345322509+345124852+345035616+345010337+344728817
2878+343896174+342749603+341915893+341689341+341765800+341731084+341477117
2868+341046365+340376662+339438734+338533111+338165593+338458030+338825996
2858+338512171+337424838+336188859+335390657+335085615+335044906+335085925
2848+335029338+334725019+334325608+334198383+334411400+334608436+334457379
2838+333914384+333042031+331930004+330860099+330235548+330193220+330414159
2828+330413470+329990467+329351417+328816929+328487502+328223237+327878312
2818+327454207+327034476+326670057+326350963+326006967+325570911+325160789
2808+325033496+325143810+324990101+324202989+323082765+322257355+322000978
2798+322067793+321990990+321460497+320589970+319843533+319594870+319761150
2788+319882761+319519410+318621157+317582937+316867325+316512136+316124573
2778+315443574+314704852+314266626+314108439+313990135+313869592+313787140
2768+313555525+312986597+312252007+311680186+311330714+310995329+310511366
2758+309889192+309194278+308441056+307628080+306795747+306009979+305370515
2748+305016015+304946100+304888687+304567492+304022431+303479746+303063184
2738+302774672+302551943+302225961+301614394+300782957+300093623+299852640
2728+299947456+299985238+299753313+299324214+298792722+298217422+297715447
2718+297326919+296929747+296463177+296013585+295606288+295188933+294819452
2708+294602336+294466467+294227379+293853661+293517277+293347139+293229833
2698+292929233+292362784+291675310+291053033+290531736+290028141+289539770
2688+289214958+289156512+289242821+289242821+289052190+288743376+288421854
2678+288092513+287689193+287217766+286774271+286403911+286075897+285814835
2668+285682186+285593449+285338277+284863182+284392651+284145865+284025339
2658+283760006+283306455+282878579+282599676+282386246+282165515+281951310
2648+281707296+281355224+280938335+280616674+280464756+280369406+280179689
2638+279891987+279618871+279431719+279319287+279268022+279286654+279344274
2628+279341071+279182574+278876291+278513922+278158974+277811569+277495230
2618+277297487+277270210+277311625+277207287+276834395+276310619+275892231
2608+275735525+275783622+275839244+275736455+275496884+275282094+275163135
2598+275065667+274963895+274903795+274803125+274511720+274118922+273918098
2588+274007764+274163472+274149936+273972480+273786551+273703066+273701895
2578+273651370+273447205+273192584+273132467+273338974+273609507+273726245
2568+273648305+273439835+273209356+273096649+273159348+273327936+273523474
2558+273686569+273735251+273671622+273629673+273677253+273711797+273618583
2548+273383765+273065514+272768100+272559044+272360716+272051041+271669350
2538+271380581+271248310+271158695+270995170+270805177+270696430+270610793
2528+270374304+269987155+269658399+269493703+269324323+268953360+268469466
2518+268183056+268259360+268519268+268649712+268541206+268349577+268262700
2508+268284846+268275134+268142381+267938508+267783283+267766097+267894476
2498+268085261+268227037+268266644+268210367+268084124+267936614+267824647
2488+267754474+267672315+267530453+267343577+267165552+267003163+266777868
2478+266434338+266071228+265880047+265940576+266133721+266257674+266185640
2468+265922702+265579671+265307347+265186838+265155428+265065882+264806662
2458+264375032+263908496+263616765+263590555+263710995+263773368+263624101
2448+263230511+262750422+262456056+262481732+262722094+262974598+263068432
2438+262937901+262685088+262481663+262377049+262303638+262224011+262150600
2428+262067529+261922481+261689712+261415563+261194487+261110296+261206455
2418+261449057+261686320+261744731+261612978+261438156+261338863+261342307
2408+261473182+261752550+262100110+262364323+262485400+262538077+262604909
2398+262736491+263062095+263814748+265261712+267751805+271824661+278175919
2388+287519589+300435104+317203261+337753301+361805702+388971040+418610852
2378+449742401+481271433+512224234+541690085+568852220+593109992+613765559
2368+629827815+640712645+646777476+648597469+646375413+640812111+633308754
2358+623882426+610126399+589673206+563255338+535759091+513894375+502187544
2348+501904440+511892775+528202627+544347990+555431888+560999909+562924981
2338+563328077+563762239+564678400+565702121+566405575+566640014+566200893
2328+564494038+560903095+555347749+548194863+539883007+530796748+521184956
2318+511189389+501182835+491781374+483149562+474514410+464783659+453617068
2308+441545509+429145866+416637941+404349336+392948272+382826342+373609483
2298+364643560+355719105+347062702+338904074+331308140+324234020+317609009
2288+311441407+305857888+300964564+296753685+293168391+290128640+287480981
2278+285057670+282817532+280841642+279163614+277676285+276256013+274912354
2268+273724127+272691968+271764717+270935157+270188169+269435567+268616615
2258+267794425+267066207+266437610+265847879+265268962+264724314+264229830
2248+263761589+263302044+262912776+262702584+262661926+262588894+262288553
2238+261794275+261288803+260894524+260645741+260542866+260524715+260489086
2228+260390964+260231193+259982960+259643976+259306215+259065439+258907751
2218+258766371+258642970+258598971+258652200+258745121+258818652+258859258
2208+258857312+258782403+258636323+258488433+258422341+258466632+258599884
2198+258786829+258966645+259042708+258960687+258790204+258653302+258575517
2188+258485075+258360589+258280324+258284096+258287815+258210840+258104280
2178+258069030+258123067+258212011+258270027+258241200+258111478+257922604
2168+257734075+257609657+257616201+257766053+257990195+258187162+258252255
2158+258123102+257881413+257695587+257608245+257532562+257447406+257400068
2148+257356999+257248734+257121992+257105925+257267401+257577576+257983014
2138+258450393+258946428+259426809+259895033+260440645+261153037+262012595
2128+262923419+263857059+264924089+266269797+267900469+269654077+271350307
2118+272908963+274312549+275529861+276515008+277232790+277657894+277770223
2108+277549009+276952235+275929978+274525049+272963311+271554008+270440844
2098+269495167+268493644+267373196+266290720+265443577+264846476+264319066
2088+263719829+263132578+262758808+262671277+262729516+262726744+262596471
2078+262448978+262393546+262400727+262403258+262423389+262509491+262672104
2068+262939175+263307761+263621173+263691019+263542665+263376264+263351501
2058+263512995+263798785+264053527+264158675+264175241+264269333+264518943
2048+264849111+265138776+265370683+265633949+265944830+266170349+266214743
2038+266164563+266175584+266326211+266599585+266915305+267188369+267395979
2028+267563379+267716279+267886021+268110110+268431237+268933488+269651511
2018+270354036+270635573+270399085+270034270+269969693+270260064+270678297
2008+270997305+271111460+271056440+270988230+271061004+271287056+271530433
1998+271687001+271930791+272636518+273823351+274833260+274967873+274327755
1988+273557898+273037359+272750983+272633402+272660128+272769305+272906587
1978+273077327+273306634+273581748+273832185+274054931+274485304+275368850
1968+276428062+276930124+276570665+275878627+275480215+275466146+275676545
1958+276096224+276689658+277212160+277458412+277538350+277777834+278401972
1948+279408282+280775567+282504378+284117572+284584469+283508605+281870718
1938+280852904+280673123+280897695+281177699+281420920+281636968+281819746
1928+282061021+282781300+284318327+286133068+287298771+287888485+288544411
1918+288861629+287903691+286131209+285061234+285411067+286601464+287561951
1908+287685181+287199496+286704529+286482247+286438438+286521751+286913464
1898+287777964+288851693+289540906+289855007+290692265+292366917+293598695
1888+293130196+291581183+290358223+289933291+290008544+290272361+290535800
1878+290728083+290944544+291391208+292571427+295334033+299867209+304327611
1868+305654136+303150319+299397849+296905501+296162336+296413203+296866204
1858+297149962+297265993+297392908+297693198+298345439+299588892+301638985
1848+304780612+309078454+313079621+313834359+310722798+306942741+305189666
1838+305335007+305876693+306212801+307448333+310787375+315264068+318037660
1828+318067520+317108928+316112037+314327104+311868508+310126214+309765342
1818+310194544+310753451+311608859+313306759+315653698+317441351+317704445
1808+316922844+316442738+317358796+320057410+323857134+326974583+327907483
1798+327229894+327196142+329619022+334095819+337384405+336268521+332180975
1788+329141224+328930377+330607544+332711330+334725260+336345531+337066791
1778+337435928+339317571+344161507+351116530+356442432+356815117+353442529
1768+349305561+346071253+345020703+346886606+350190174+352263756+352832994
1758+353406297+354105757+354829738+357340546+363150549+370394152+374700742
1748+374441299+372178499+370691721+371044913+373089047+375672284+377283600
1738+378539177+382285551+389199728+394268046+392451118+386845453+381722684
1728+377980098+375993101+376142884+377874330+381026669+387043109+396911658
1718+407604549+412079279+407843535+400197696+394122671+391442552+392609925
1708+397288614+403549206+408682273+412859158+419064163+427631915+433666713
1698+434023520+430629923+424433598+417172395+412890155+413288601+416993578
1688+422942721+432223916+444124992+450912254+446930373+438898246+433975199
1678+434095295+438172784+443135609+446656775+450050165+454606554+457245035
1668+454719210+450562783+450104237+453707510+457296558+457771326+457270590
1658+460020142+468729549+483950691+500454170+505420853+500378607+498979240
1648+503809193+508070630+505595572+500161491+497953522+500769097+508441421
1638+520382070+533456891+540367968+538489667+535292211+536999135+544061097
1628+553925995+564495485+575755789+587361191+597232082+605219057+614624927
1618+627611063+640901450+648700929+651865356+655355663+661027592+667745490
1608+673837391+678479607+681844962+684601058+687129155+689291904+691143996
1598+693421227+696800634+700859490+704416956+707001881+709148305+711262354
1588+713300014+715471924+718194062+721322601+724307109+727372209+731869773
1578+738604823+745380306+748313910+748754340+752025740+760053425+769648031
1568+776482752+781418198+788294593+798663430+812782533+832506061+857423754
1558+874938107+876351147+872472278+870901637+871581224+872278307+871181434
1548+868720910+867604130+870099578+876455158+885076741+890540234+884769804
1538+871102496+860359287+854957374+851212274+846096910+841126404+839307099
1528+840857007+843770498+847102308+851819605+857049313+859102540+857258782
1518+854495936+851557992+847688009+844417229+844506844+849352812+858463661
1508+868256647+870074436+860093679+848170250+841494921+839995779+841591149
1498+843406114+842249934+838092990+834980224+836045755+840349004+843509643
1488+841828722+836445545+831095569+828141232+827607949+828323148+829752995
1478+832391441+836604042+841974475+846672486+846875273+841052631+833879218
1468+830398486+831036744+832255056+830953260+829359267+832236871+841183644
1458+851693069+854028711+846056821+836362129+830152854+827835052+828133999
1448+828333549+826006242+821971770+818942351+818150487+819379888+822625320
1438+827282896+830054353+828065324+824227096+822701985+823295470+823086827
1428+821234942+819839673+820177469+821587685+823673493+826689756+829140499
1418+828141576+824148020+820346436+817911260+815941174+813810455+812166937
1408+811953266+812875248+813292327+812414498+811826936+813306516+816521020
1398+819690751+821237697+820182291+816821896+813672898+813292878+815414160
1388+817149015+815991457+813061504+811720652+813502278+817392856+822016543
1378+827066608+832508885+837342316+840001496+840267586+839882055+840529681
1368+842340169+844730709+847553345+850593096+852889751+853699456+853405331
1358+852646461+851507019+849901730+848219845+847248406+847372531+848142215
1348+848863200+849309003+849724153+850627055+852596866+855621394+858632973
1338+860283999+860301426+859654144+859447637+859922577+860522399+860818452
1328+861167752+862435658+865170745+868782008+871757148+873346938+874447600
1318+876144846+878474564+881178585+884321659+887750936+891143982+894623612
1308+898430637+902292078+905553077+907859444+909778421+912486782+916305172
1298+919766273+921037761+920110475+918416948+916794783+915191837+913856288
1288+913469931+914088971+914759879+914306844+912235639+909062464+905969467
1278+903878424+902824189+902516081+903131677+904912753+907355506+909513708
1268+910972348+912049383+913167333+914415402+915691091+917081400+919008367
1258+921827421+925133469+927665699+928349695+927475310+926518956+926807639
1248+928449091+930302010+930936824+929902703+928062596+926688199+926443186
1238+927032401+927458847+926878863+925470438+924046584+922854103+921541148
1228+920368092+920168335+920674547+920631152+919998749+920386139+922719922
1218+925770212+927634289+927822267+927378945+927403949+927864354+928035525
1208+928090286+929447188+932776242+936521135+938610387+939068727+939555445
1198+940948922+942814584+944783638+946924895+948797721+949660258+949829776
1188+950632111+952833640+955949092+959101120+961963501+964724694+967297978
1178+969117627+970000140+970611947+971678857+973105673+974171411+974320471
1168+973608510+972729579+972759611+974505005+977736661+981098090+983170535
1158+983799976+984023291+984793871+986235083+987755510+988596418+988512107
1148+987768942+986658981+985789832+986349496+989103250+993385490+997824711
1138+1001429017+1003624967+1004569060+1005282675+1006433895+1007782944
1130+1009512358+1012233944+1014516616+1013583131+1010162946+1008588447
1121+1011390349+1017035483+1022374094+1024865959+1023604804+1020351932
1113+1018239467+1018682584+1020733262+1023183661+1025834574+1028664236
1104+1030957998+1031650879+1030274898+1027521144+1024868026+1023934541
1095+1026052998+1031383481+1037957554+1042685389+1043969345+1042697719
1087+1041259331+1042050506+1045685878+1050071854+1052293290+1051466296
1078+1049385172+1048510993+1049739568+1051891640+1052751698+1051619557
1070+1050507462+1051802507+1055509791+1059111755+1060066249+1058794279
1061+1057981130+1058460685+1058055523+1055646659+1054215917+1057593257
1053+1064986265+1070561691+1069574616+1064109952+1060202360+1060386894
1044+1061764253+1061453528+1060571566+1061157061+1062845559+1063800948
1035+1062820623+1060250164+1057989121+1057833930+1059306071+1060387514
1027+1060660217+1061564772+1063631086+1065527331+1066300322+1067020963
1018+1069195146+1072228216+1073741823+1072571522+1069888992+1067228504
1010+1065220119+1063861289+1062301875+1059173198+1054854588+1052393582
1001+1053904434+1057105161+1057858796+1055662364+1053889280+1055109657
993+1058274704+1060924723+1062055554+1061537426+1059412493+1056577734
984+1054200487+1052354939+1050869573+1050557194+1051656822+1051815870
975+1048061471+1041710162+1037997712+1039340217+1041862115+1040836810
967+1037329490+1035328407+1035278536+1034439970+1031450778+1027419543
958+1023448924+1019730481+1016482845+1014014813+1012238972+1010921747
950+1009915109+1008657535+1006301504+1003120959+1000882785+1000985281
941+1002627835+1003240262+1000982594+996698564+992749436+990661079+990602461
931+992164630+993974773+993521600+989871557+985534487+983517836+983856872
921+984474190+984184198+983683290+984071508+985143859+985387562+983576179
911+980360918+977849076+977314623+978206503+979352902+980214131+980443782
901+979274101+976768184+974578227+974072015+974765241+975318085+974926148
891+973357987+971015043+969187680+969090281+970591490+972252090+972777658
881+972278334+971519120+970462956+968702477+966899015+966260481+966659789
871+966770206+966154059+965513183+964639625+962288554+958764495+956552427
861+957332513+959947126+962281941+963725909+964947182+966334116+967335725
851+967210085+965769699+963593725+961897512+961655806+962401038+962509802
841+960883711+957652468+953248101+948543823+945760036+946901200+951269198
831+955775372+957671135+956584250+954603005+954493207+956776981+958930638
821+958663859+956836013+955547167+955499432+956599542+958619224+960407531
811+960837422+960704343+961563229+963346922+964950282+965992394+966028763
801+964439042+962349721+961872164+963081107+963941922+963640564+963807258
791+965597564+967728627+968457533+967738821+966469744+965274853+964823402
781+965901883+968186759+970173515+971022689+971184699+971175331+971274314
771+971975944+973278497+974340929+974713304+974621898+973743931+971540818
761+968640139+966409404+965402559+965044581+964678543+964599192+966037924
751+969748033+974431991+977302775+977226385+975868382+974439223+972851775
741+971848857+972140778+972660835+972016928+970968342+971774327+974939925
731+977847561+977564457+974218320+970705558+969494066+970558082+971675413
721+969856039+964064945+957668173+956088991+960532552+966021806+967703278
711+966973338+967446005+968341881+967143614+965810890+968266042+973297646
701+974596067+968691180+959726291+954440582+955146413+958572866+960438872
691+959648592+957519044+954864136+951476256+948027761+945887812+945192795
681+945151466+944854724+942559860+937491059+932794978+932894099+937210366
671+939031737+933029245+923541267+920620200+924506301+928115566+928426429
661+926514134+924321560+922747750+921567737+920258295+918380166+915481071
651+912502211+911899496+914725989+918537491+918917856+914893716+910856489
641+910392570+911706145+910770593+907116004+904233510+904919847+907937005
631+909480369+908163144+905838661+903078570+897938408+890365963+884119629
621+882944507+887566609+895430975+900366489+896299229+885733528+878288997
611+878726464+882952703+884949447+883034673+878969617+874984051+871632334
601+866006418+855198529
##END=
