##TITLE=<SNM>
##JCAMP-DX=4.24
##DATA TYPE=INFRARED SPECTRUM
##DATE=2/5/2025
##SAMPLING PROCEDURE=Instrument type and / or accessory
##ORIGIN=Admin
##XUNITS=1/CM
##YUNITS=ABSORBANCE
##RESOLUTION=4
##FIRSTX=4497.3318
##LASTX=599.83466
##DELTAX=-1.4281778
##MAXY=1.8622792
##MINY=0.40069535
##XFACTOR=1
##YFACTOR=1.7343826e-09
##NPOINTS=2730
##FIRSTY=0.42487672
##XYDATA=(X++(Y..Y))
4497+244972886+244766446+244990911+245386486+245647397+245704084+245501391
4487+244807600+243480332+241962536+241155524+241376106+241794552+241595725
4477+241211507+241458912+242187000+242908783+243858140+245208159+246193291
4467+246014482+244848651+243485160+242668011+242736658+243247035+243242705
4457+242397358+241417242+241036582+241154115+241117343+240513833+239678126
4447+239472632+240376333+241865794+242889692+242847524+242053761+241531167
4437+242207448+243776347+244686217+243944846+242366376+241325089+241179323
4427+241583112+242325325+243131254+243320064+242323246+240426697+238660225
4417+237875174+238081957+238775525+239654482+240665338+241516304+241702192
4407+241137242+240327137+239711204+239235108+238901220+239208628+240467714
4397+242075756+242998737+242876530+242314105+242046751+242074880+241792232
4387+240744347+238987549+237064726+235934086+236342772+237875707+239070080
4377+238857351+237558040+236288731+235764213+235838358+236024865+236112740
4367+236166404+236335452+236819023+237541372+237906963+237514807+236808541
4357+236377328+236175889+235953830+235798270+235868979+236180889+236725048
4347+237315155+237457828+236864645+235964793+235477149+235581400+235858171
4337+235899548+235680272+235470379+235568925+235943451+236132260+235785485
4327+235168676+234817605+234921804+235312293+235788991+236155544+236103479
4317+235440068+234464747+233789239+233662581+233789531+233916309+234060408
4307+234070323+233624984+232857220+232540911+233294877+234778633+235981563
4297+236127724+235136612+233604330+232577906+232832046+234023137+234982770
4287+235083481+234866250+235116851+235823701+236207918+235545332+233928526
4277+232241441+231397056+231684188+232801271+234185416+235169260+235265692
4267+234615066+233882527+233550581+233569603+233752776+234102232+234528256
4257+234689864+234507567+234317555+234138643+233579603+232926296+233195231
4247+234473287+235453711+235349804+234959865+235143485+235550573+235407918
4237+234619808+233774925+233511764+233891359+234301265+234195881+233778242
4227+233656533+234086544+234782310+235251808+235202423+234728183+234236261
4217+234235402+234984506+236058596+236566498+236217678+235707525+235664842
4207+235882244+235918896+235802205+235735946+235626489+235311640+234973938
4197+234946015+235136715+235050146+234547656+234191688+234549271+235401182
4187+235861023+235296089+234138042+233516163+233906944+234592178+234716069
4177+234278137+233725575+233247537+232919320+233074416+234044548+235561674
4167+236756820+236970923+236357292+235498714+234802157+234431703+234359242
4157+234377748+234351372+234257998+233983530+233591786+233537333+233942410
4147+234192238+233917976+233647443+233897854+234421462+234718939+234631098
4137+234285989+233962171+233971003+234345134+234726534+234736706+234399846
4127+234134279+234324136+234895084+235375613+235468300+235484023+235941355
4117+236729653+237044175+236309454+234916237+233837902+233680881+234316713
4107+235301485+236280122+236976611+237259172+237293023+237210887+236804795
4097+235958624+235026192+234393917+234065958+233849123+233614451+233470644
4087+233794153+234736019+235790469+236279194+235993111+235075852+233846030
4077+232922516+232824675+233322783+233704491+233625861+233308228+233073797
4067+233008484+232989960+232890710+232767781+232859677+233257882+233555238
4057+233126086+231973967+231030538+231295143+232772352+234440776+235278855
4047+235231137+235037671+235178092+235278683+234749576+233690470+232747505
4037+232269244+232144321+232429048+233397856+234747583+235511825+235149516
4027+234147802+233383629+233416500+234287553+235432146+235972886+235576159
4017+234822210+234463613+234689572+235279164+236007579+236647311+236890849
4007+236587737+235970944+235457749+235270486+235310764+235332415+235209262
3997+235038083+234973285+235026862+235096265+235114291+235082089+235060095
3987+235194141+235554628+235918999+235940856+235584252+235235467+235292172
3977+235745706+236265224+236602686+236767577+236822443+236724636+236486407
3967+236400079+236911229+238073211+239215485+239604101+239413710+239366577
3957+239527292+239358793+238890635+238968286+240222732+242160280+243405980
3947+243235505+242671396+243062452+243991224+243838688+242197946+240265398
3937+239272980+239908038+242372201+245755170+247893883+247300098+245117964
3927+243872230+244648242+246173874+246795117+246809895+247618779+249181458
3917+249556946+247307470+243562880+240691560+239918468+240983091+243478098
3907+247739010+253946457+260592954+264938133+265718424+263692038+259663529
3897+254668463+251021388+250807010+253506618+255634436+254597788+252758769
3887+253676955+256994318+259588284+260669832+261490280+260950314+257806536
3878+254886896+255385348+258803989+263026892+267013319+269321372+268138942
3868+265419968+264813777+266033839+265550320+262163176+258731080+258299403
3858+262298047+271225104+283029925+288830112+281554606+269160572+260120964
3848+256318072+256930001+260436655+265376976+270838069+276104252+279708902
3838+279860080+276724121+272467075+268709924+265903608+264290788+264067887
3828+264670882+265503719+267901280+273811183+281057495+283395516+280056141
3818+276317101+273518999+269273517+264014843+260906084+261947801+266806656
3808+272486509+275721031+277765305+281582872+285385370+284850163+281271752
3798+278649555+276848665+274247139+271713314+271041432+272464806+275286072
3788+279274733+284496996+290523899+296888298+303733175+310743011+316483178
3778+320523234+324765846+331413665+341537415+354958423+369416165+381164418
3768+388725768+393407687+396248180+398423889+401862393+406448155+409076538
3758+408283119+407607474+411735165+422208456+435580114+444314460+446066464
3748+447390708+452770954+459685973+462859237+463406214+467110578+476925442
3738+492293896+509355312+521999431+527307645+528666908+531194358+537623881
3728+548295501+561447729+573526142+581459371+584300037+582960087+580230082
3718+579175924+581103815+585980352+592781480+598046427+597200942+590098626
3708+580598628+572859913+569733009+570687229+571955490+570969137+569011897
3698+568121908+569248682+573350838+581142718+591193198+598951709+599567144
3688+594492657+589705336+587189296+585552283+584616896+586312195+592308185
3678+601224708+607313832+606082824+602431247+601850316+601133294+594935641
3668+585998978+580066360+577751021+576500458+574787014+573807225+575504071
3658+579031104+580687019+579715203+580551271+586382371+594352785+596524197
3648+589623956+580043334+573105255+569049838+566567202+565035763+564103365
3638+563149145+562248847+562536735+565239212+571017216+579058872+584854849
3628+583114049+576302507+570691181+569440413+573161101+580267816+586323261
3618+587969484+587242358+587133691+587586367+587676750+587612416+587386560
3608+586310476+584807217+584183465+584790927+586131014+588106813+590998684
3598+594324192+596749367+597306379+596479452+595981344+597373187+600715053
3588+603870997+604193148+601838356+598879608+596636782+595562279+595717341
3578+596728059+598126363+599497655+600126218+599878848+600714710+605099874
3568+611673290+614723316+611572940+605763628+600933487+598019689+596793218
3558+596804903+597556704+598695060+599789839+600121063+599666738+599701173
3548+601034937+602258521+600925514+596561176+591605115+589100554+589675093
3538+590805407+589655023+586608296+584470151+584641227+585782538+586102215
3528+585709819+585828383+586606990+586973268+586060632+584240376+582638348
3518+581552436+580085880+577775833+576029397+576820170+579945321+582579856
3508+582446033+580410300+578607159+577626889+576785460+575778728+574595215
3498+572817402+570395320+568212189+566754156+565291174+563291251+561478350
3488+560772118+561237647+562411366+563519994+563384315+561402606+558749204
3478+557458330+558149371+559405294+559528842+558180748+555890805+553131142
3468+550685244+549774979+550887869+552924255+554139832+553850295+552678810
3458+551255384+549544517+547519231+545543364+543775311+541977531+540220854
3448+539093633+538954449+539353134+539405990+538750827+538070783+538156424
3438+538474761+537727050+535754654+533550112+531766525+530589026+530188794
3428+530309077+530329216+530136042+529920942+529272343+527781147+526249398
3418+525927521+526681144+526966386+525735619+523517124+521458812+520224711
3408+520007275+520545385+520807636+519745436+517726508+516153382+515578465
3398+515424091+515483888+516200017+517266135+517618219+516935494+515776553
3388+514575891+513475511+512587927+511863653+511167698+510626735+510529237
3378+510918747+511503355+511862279+511661304+510740007+509181486+507500449
3368+506531383+506832399+508152416+509692344+510878744+511537756+511594564
3358+511151958+510587385+510111856+509595087+509191693+509508037+510674607
3348+511893621+512354544+512137829+511818118+511619789+511384963+511010815
3338+510526591+509942876+509152172+508000413+506576403+505352269+504868938
3328+505200438+505727173+505557093+504261751+502186187+500155265+498945943
3318+498808545+499326036+499775928+499714480+499256616+498840334+498719639
3308+498660735+498390443+498189021+498469314+499025570+499335074+499226098
3298+498643895+497392371+495780445+494761169+494766668+495131812+495243572
3288+495594797+496972412+499071346+500701520+501254030+501271523+501480471
3278+501854172+501947134+501614054+500894041+499668739+498011586+496531765
3268+495784603+495547337+495253160+494940116+495075039+495638030+496087304
3258+495994892+495236664+493965276+492640207+491585156+490696129+490066707
3248+490189739+490971233+491478001+491218225+490723519+490522372+490483847
3238+490324868+490062926+489842294+489647126+489260263+488458011+487238241
3228+485747286+484075803+482274242+480464675+478905124+477931452+477731714
3218+478221986+479141634+479971481+479887180+478507160+476609476+475357986
3208+474973185+474782347+474347921+473878303+473632788+473425421+472742318
3198+471183248+469032318+467407264+467231102+467999055+468240858+467263956
3188+465805580+464948548+464920093+464961435+464218535+462724933+461158165
3178+459774192+458359564+457113538+456574156+456610378+456354623+455285516
3168+453810987+452605342+451723876+450719412+449564629+448847366+448829014
3158+448946479+448549340+447543364+446139355+444564786+443043656+441619165
3148+440252857+439278120+439123642+439489989+439506966+438738978+437423017
3138+435890546+434392236+433249619+432675664+432594387+432728623+432624080
3128+431851521+430549822+429385279+428692210+428134888+427428623+426844427
3118+426715380+426823429+426573722+425699473+424597030+423883032+423681232
3108+423458365+422628552+421236296+419885934+419085126+418881642+419021754
3098+419185339+419152965+418932951+418662109+418372331+418012857+417595957
3088+417119122+416491865+415700027+414869010+414084905+413367057+412903728
3078+413045078+413787909+414442007+414188279+412918403+411247813+409875697
3068+409148090+408979934+409007874+408892265+408472719+407734699+406828111
3058+405988297+405303441+404745742+404348500+404101955+403885480+403618212
3048+403200075+402497383+401704823+401222421+400937076+400316864+399283704
3038+398267762+397519912+396994689+396663053+396446784+396039954+395118588
3028+393694063+392162933+390951926+390114655+389413888+388784363+388465373
3018+388607616+388942311+388961866+388350211+387204123+385903557+384810463
3008+384067425+383612447+383338924+383159977+382938760+382566124+382115339
2998+381693491+381209026+380555513+379882755+379386915+378982490+378458470
2988+377830663+377280661+376847815+376430194+375982227+375476833+374850401
2978+374206201+373801638+373607055+373175034+372229371+371148442+370560741
2968+370550362+370543042+370067238+369326090+368756053+368368296+367890190
2958+367236264+366507007+365802288+365224725+364839545+364569287+364233836
2948+363680844+362893336+362031631+361297700+360771446+360492768+360507477
2938+360617450+360345611+359433146+358188082+357139561+356513025+356207370
2928+356115439+356182420+356147194+355542378+354178441+352503899+351284198
2918+350920223+351143192+351365647+351252134+350871285+350401426+349905552
2908+349417273+349048039+348877960+348833146+348761457+348554159+348145885
2898+347539110+346911750+346518906+346367041+346108502+345376358+344228723
2888+343218108+342906198+343231545+343536926+343366606+342921491+342545384
2878+342219968+341805336+341314136+340728221+339951504+339104886+338534058
2868+338405940+338477388+338330849+337831023+337288067+337032071+336946361
2858+336710057+336332644+336047162+335846530+335503449+334917020+334221682
2848+333659618+333362486+333194227+332899844+332393557+331795786+331288021
2838+331007178+330935352+330904285+330814692+330703000+330550207+330272079
2828+329880370+329437936+328931683+328303670+327509597+326571770+325666419
2818+325026344+324716530+324636524+324661543+324633638+324367469+323824582
2808+323169797+322580755+322117495+321816032+321746509+321856997+321867926
2798+321492162+320727336+319835285+319105203+318668680+318401446+318021147
2788+317433067+316883650+316630988+316604113+316502251+316128240+315546003
2778+314930259+314313484+313604915+312850743+312244243+311834147+311458212
2768+311015641+310605855+310357282+310251880+310133212+309827144+309262950
2758+308505822+307700752+306999195+306469504+306023702+305504115+304887443
2748+304330327+303997591+303903358+303907138+303800912+303425011+302772872
2738+302005022+301341817+300910552+300677582+300522761+300346736+300066408
2728+299580088+298834782+297906027+296979576+296295373+296047556+296190487
2718+296381152+296260663+295747709+294970545+294072239+293229057+292686342
2708+292561007+292674932+292741466+292670636+292545336+292338931+291867594
2698+291075859+290196386+289526858+289132228+288836401+288466171+288036762
2688+287675364+287428819+287234751+287048330+286872614+286661862+286317836
2678+285827099+285342944+285079216+285090213+285157675+284974656+284492838
2668+283999043+283776279+283792895+283814340+283686892+283394811+282976313
2658+282521816+282149180+281874712+281594746+281264570+280998504+280915853
2648+280948209+280880559+280582223+280130802+279698300+279388486+279193542
2638+279019029+278739526+278311595+277838385+277478121+277306255+277298075
2628+277399697+277549019+277614281+277408890+276886915+276270741+275844751
2618+275665375+275591229+275517341+275454244+275427421+275395512+275284938
2608+275102074+274967855+274962082+274973595+274827142+274542244+274339825
2598+274357369+274445863+274345272+274028808+273712671+273518397+273344314
2588+273113800+272898065+272740494+272617033+272588612+272733346+272943188
2578+273031905+272992538+272937002+272872823+272739996+272579556+272485306
2568+272438568+272327650+272119561+271912176+271821535+271910252+272210099
2558+272669614+273066237+273159800+272983105+272799244+272737762+272656142
2548+272394304+271995687+271616934+271345524+271181545+271113276+271110337
2538+271076572+270919088+270661116+270388074+270093003+269699249+269246419
2528+268916363+268815532+268832595+268773003+268542215+268153118+267686747
2518+267305778+267175254+267294918+267498093+267639442+267696181+267685699
2508+267584610+267374133+267112329+266902367+266790366+266740036+266715585
2498+266745638+266892761+267160029+267416816+267471751+267282941+267017374
2488+266833685+266713557+266568135+266383312+266179055+265940363+265672063
2478+265438801+265268446+265095480+264900450+264814070+264932840+265100480
2468+265047676+264716177+264305085+264019104+263869988+263716696+263449943
2458+263118083+262863273+262758747+262745602+262712060+262597070+262400992
2448+262128071+261801400+261546383+261511398+261640444+261695276+261569512
2438+261390291+261277397+261235160+261289889+261464711+261588757+261393023
2428+260877044+260384143+260218823+260321579+260413853+260366754+260285975
2418+260277693+260312266+260358471+260488411+260735472+260941739+260896840
2408+260612783+260338882+260291199+260449096+260631805+260731021+260831200
2398+261093158+261582846+262360422+263747385+266331780+270709108+277398047
2388+286950214+299883475+316509502+336954093+361181026+388759207+418704620
2378+449784506+480978179+511519232+540641465+567605758+591835989+612503928
2368+628199311+638120367+643586082+646807666+648121359+646259245+640680258
2358+630928285+615389889+593252164+566082807+538142300+515741706+504026032
2348+504835362+516605233+533816452+548613907+557096004+561161697+563450574
2338+564871560+565711305+566540293+567808108+569072726+569124619+567199305
2328+563796473+559763702+554916172+548294092+539705700+530165666+520661578
2318+511366542+502065045+492687495+483342387+473963360+464027079+452901890
2308+440561090+427691561+415134423+403404658+392566979+382390409+372678060
2298+363418628+354611149+346173695+338087500+330416384+323170519+316349973
2288+310100599+304637598+300000974+296014668+292508770+289461700+286862356
2278+284553512+282344417+280209037+278258103+276569987+275129258+273867062
2268+272702193+271606366+270649483+269896650+269248447+268496508+267574094
2258+266642367+265881991+265298500+264775132+264231403+263674408+263128462
2248+262571227+261989161+261471671+261142044+260975419+260802521+260520578
2238+260192773+259930969+259771698+259664835+259529466+259334883+259129663
2228+258955047+258770533+258538972+258318958+258161834+257994882+257745312
2218+257504781+257414689+257460912+257522377+257545024+257551176+257551193
2208+257542292+257551485+257616661+257725311+257804508+257811313+257804388
2198+257841710+257852948+257739143+257545557+257404964+257368518+257396509
2188+257446169+257491722+257511860+257492220+257412163+257252686+257059546
2178+256957718+257038926+257231980+257340011+257251826+257076042+256987514
2168+256990177+256954848+256850082+256774253+256766194+256738443+256626545
2158+256491296+256429935+256444764+256440141+256327110+256105498+255865345
2148+255718754+255704114+255764857+255864675+256081183+256499561+257053480
2138+257573737+257982699+258372535+258891074+259589848+260400175+261240625
2128+262105389+263058354+264191383+265555527+267070814+268565739+269960091
2118+271329664+272755564+274176464+275403141+276248901+276654133+276672726
2108+276345471+275674242+274716911+273578556+272295895+270856352+269345360
2098+267959085+266823770+265882111+265031953+264307181+263800275+263460442
2088+263130060+262743574+262339287+261937457+261555181+261276899+261187030
2078+261281194+261499989+261772738+261999849+262084683+262033219+261982391
2068+262101282+262433520+262813459+262998350+262927555+262763541+262667006
2058+262662212+262724295+262844423+262992457+263132414+263282321+263488279
2048+263753692+264048711+264381000+264782624+265187187+265409916+265361201
2038+265208580+265200555+265390035+265628933+265788257+265904501+266107435
2028+266444605+266831658+267174601+267470118+267798078+268287560+268994306
2018+269708322+270056764+269934110+269624622+269421946+269375465+269411000
2008+269458941+269477912+269502690+269609948+269801438+270020782+270228493
1998+270415636+270724401+271479090+272724944+273836957+274073433+273432189
1988+272501098+271754967+271379925+271401439+271664394+271898997+271965083
1978+271953467+272037768+272264605+272525085+272812630+273397462+274449265
1968+275527119+275872141+275348808+274650773+274421789+274644158+275000452
1958+275380769+275805968+276200375+276483126+276698157+276961645+277390092
1948+278119898+279370701+281261546+283226467+283979677+282908302+281062839
1938+279872418+279655239+279871919+280073341+280184139+280268990+280369082
1928+280632519+281494361+283203115+285101898+286280411+286952430+287794804
1918+288240744+287217001+285273627+284097932+284447044+285653652+286545462
1908+286488379+285768900+285095282+284856676+284959311+285186319+285568904
1898+286371276+287567092+288587313+289172402+289960770+291284223+292145173
1888+291575651+290182434+289118310+288696117+288687594+288923520+289261961
1878+289578992+289881899+290332787+291502829+294362224+299106964+303719807
1868+304962705+302220225+298305263+295809019+295124644+295372083+295731488
1858+295902427+295966555+296117355+296476553+297191617+298509331+300647099
1848+303860262+308206799+312285723+313159388+310080116+306137627+304113818
1838+304075500+304609280+305010887+306306641+309799342+314605015+317728447
1828+317895743+316830348+315577174+313499238+310860236+309153252+309013552
1818+309726210+310498803+311442335+313164234+315573187+317453928+317709924
1808+316763093+316087722+316918292+319580011+323186877+325929632+326606790
1798+326052871+326432723+329347174+334256839+337717682+336304773+331624194
1788+328079222+327619123+329239125+331353318+333378500+335008984+335784361
1778+336307110+338439963+343557099+350696634+356013715+356166577+352459773
1768+348013402+344669714+343836327+346145927+349794342+351859699+352178895
1758+352489431+352996852+353675419+356395801+362676655+370505514+375230425
1748+374963982+372272708+370209000+370132363+371970420+374479758+376110310
1738+377511432+381519940+388763743+394126428+392425149+386755812+381482034
1728+377570405+375439614+375455079+377008788+379966677+385907338+395936030
1718+406959185+411624608+407258792+399355908+393114403+390429727+391701116
1708+396431938+402555806+407493996+411734374+418357415+427516566+434066613
1698+434698888+431141613+424219617+416114761+411452157+412001711+416140605
1688+422612812+432504141+444977252+451727037+446978069+438251352+433160506
1678+433500357+437783384+442617409+445826070+449120751+453852708+456667702
1668+454126678+449848702+449215981+452545578+455858130+456287368+455977073
1658+458950564+467831106+483245955+499969411+504992727+499982608+498939860
1648+504392963+508928721+505853573+499484809+496683837+499351467+507211977
1638+519641203+533413608+540697826+538405478+534492853+535860365+543181390
1628+553564366+564314822+575282785+586424229+595798102+603262779+612385226
1618+625581478+639208547+646785121+649526467+653236811+659750155+667081764
1608+672934584+676913330+679961225+682805740+685422542+687601790+689510917
1598+691547888+694006260+696992846+700424408+704040794+707479093+710416397
1588+712790228+714837234+716824235+718871035+721124514+724202515+729313087
1578+737066923+745131776+749156505+750091754+753329971+760709763+769134433
1568+775362603+780901657+788597895+799149920+813493531+834575036+861256423
1558+878218692+877263235+871653936+869042358+868896575+868961115+867783651
1548+866734235+869402381+877276981+887594420+895696183+896148446+884848125
1538+868856572+858483735+854543685+852019535+847054333+841779352+840196019
1528+842670613+846806826+851054730+855669531+859307087+858937785+855564232
1518+852878216+850705429+846826140+842296705+840966997+845669158+856311497
1508+868163332+870322716+858557004+844990007+837888378+837109083+840195194
1498+843237728+841832551+836415980+832802343+834937052+841376233+846392435
1488+845028704+838585605+831765163+827377249+825569297+825697346+827913367
1478+832544595+838665610+844153733+846243765+842425030+834242299+827450794
1468+825733981+828242048+831143473+831526316+831299153+834548505+842704842
1458+851755463+852557302+843192502+832765571+827046987+825900865+826711364
1448+826543862+824356503+821437001+819191220+817983100+818327453+821306271
1438+826515681+830166434+828724141+824669101+822275200+822058210+821897169
1428+820872016+820375695+821378716+823310250+825936056+829558215+832131578
1418+829783935+823209831+817272745+814466721+813763651+812846066+810648260
1408+808479597+808034964+808827180+809249475+809671565+811702143+815134668
1398+818044891+819118982+818073209+815313580+812743104+812610037+814975620
1388+817286079+816772712+813949230+812105193+813348916+817141809+821945419
1378+827019838+832328223+837275486+840493702+841476721+841468885+841724503
1368+842348117+843484274+845842502+849033500+851011566+850537583+848798501
1358+847468931+847024984+847074885+846912262+846008355+844609226+843581806
1348+843629025+844878178+847024641+849607008+852118098+853950176+854564443
1338+854011142+853061596+852515444+852540669+852840688+853364915+854602246
1328+856984256+860287975+863920376+867500952+870932652+874249981+877627520
1318+881200191+884629692+887058647+887893546+887847701+888731126+891744449
1308+896357463+901101963+904826329+906883369+907243255+907045167+907943851
1298+910225579+912373691+913116626+913001429+913203986+913736597+913729587
1288+912757152+911133954+909376315+907831197+906597784+905651399+905084284
1278+904989570+905152123+905294606+905512765+906077750+907005508+908007635
1268+908682868+908963848+909539762+911180349+913537959+915559190+917051795
1258+918713965+920789082+922786050+924435642+926019319+927776134+929595152
1248+931015313+931388533+930541949+929184885+928190250+927637499+927052307
1238+926430754+926438590+927509381+929032229+929673989+928616119+926335697
1228+924047232+922607345+922109855+922214123+922459363+922371109+921657317
1218+920600823+920155364+921098656+923100298+925053895+926095887+926111765
1208+925572554+925202702+925739988+927698740+931221855+935805108+940003594
1198+942341683+943046059+943739162+945067427+945954976+945550551+944587534
1188+944280641+945240085+948001226+953208093+960361959+967275122+971787649
1178+973470232+973228842+972176746+971018252+969961688+968976951+968228586
1168+968354574+970155859+973627974+977431932+980089287+981456111+981948789
1158+981256235+979443815+978267794+979431787+982121790+984143227+984670065
1148+984301313+984308049+986434510+991364589+997352606+1001801211+1003798935
1138+1004062801+1003592942+1003092635+1002358498+1000623403+998552547+998355764
1128+1000929745+1004540908+1007267957+1009221074+1011402865+1014026334
1120+1016647604+1018396789+1017986728+1015312672+1012627686+1012352273
1111+1014078915+1015349169+1015735586+1017846925+1023245901+1029641436
1103+1033552068+1034392604+1033725069+1032307864+1030721231+1030461008
1094+1032242017+1035008932+1037439812+1039011391+1039258967+1038230585
1085+1037656595+1039835568+1044934318+1049987773+1051900956+1050667199
1077+1048497574+1047292341+1047659581+1049165177+1050937182+1052274313
1068+1053067698+1053655778+1054268326+1055255950+1056813646+1058157857
1060+1058076064+1056946369+1056698449+1058056682+1060241291+1063569136
1051+1068701427+1073238766+1073741823+1071079520+1068654414+1066855259
1043+1063921461+1060251876+1057985612+1057622839+1057630881+1056947675
1034+1056364063+1057044039+1058951241+1061639045+1064652711+1066476953
1025+1065589335+1062885930+1061189325+1062423151+1065896709+1068560525
1017+1067492895+1063247396+1059691083+1060518903+1065956576+1071776678
1008+1072304341+1066269036+1058191811+1052890642+1051083858+1050805833
1000+1050795867+1051216650+1052439548+1053781353+1053643749+1051411989
991+1048095486+1044940985+1043087601+1043841464+1047064422+1050362849
983+1051498043+1050309925+1047643841+1044204993+1040733634+1037536588
974+1034136298+1031001937+1030414201+1033319338+1036633642+1036456792
965+1032720124+1028526725+1025719395+1023291540+1020298631+1017556460
957+1015633105+1013450145+1010093089+1006603309+1004599468+1004417188
948+1005088022+1005117440+1003038198+998588494+993552085+990372085+989789504
938+990286306+990217916+989264178+987601321+985340968+982896548+981065983
928+980486289+981087633+981963910+982261730+982400021+983232927+984290797
918+984225432+982751865+980916901+979635649+978913815+978152048+976839385
908+975263269+974127044+973390089+972334420+971068221+970822019+971938380
898+972937758+972548385+971456218+970888140+970337864+968005754+963417346
888+958518403+955953907+957158109+961791055+967846843+972409888+973318607
878+970537121+966024732+962066812+959689888+958739586+958677657+958724671
868+957924413+956016110+954008420+953038254+953013578+953110080+953158743
858+953714861+955039002+956642955+957679998+957703505+957039819+956260456
848+955617390+955396826+956405001+958882756+961296246+961458869+958635799
838+954354834+951462756+952059359+955752519+959823505+961329513+959313162
828+955527075+953081280+953539867+954972331+953703039+949105627+945344627
818+946793037+953017702+959701160+963730494+965239045+965444557+965186052
808+964920605+964114505+961362642+956590580+951837901+949289007+949641538
798+951963682+954475460+955888542+956805715+958678757+961591111+964401328
788+966325301+967418431+967845469+967545587+966724434+965995245+965561815
778+964912976+963612067+961949553+960758205+960699232+961780676+963607805
768+965775644+967557958+967874268+966591985+965407303+966313479+969214904
758+971458899+970307346+966217390+962739845+962675236+965504286+969546679
748+974841455+981375006+986014207+984976683+979102762+973282935+971043477
738+971791910+972624198+971930270+971132830+972260257+974631338+975190344
728+972257370+967992488+966064803+967133876+968139714+966080268+961437012
718+957754298+958384855+964075052+972444117+979265591+982010511+982375621
708+983470606+985386606+984543665+977972036+968167483+960384847+956312349
698+953641386+950696727+948402283+947666909+948115598+948903484+948656320
688+947295544+948285918+954745100+963167708+965749113+960408285+952719745
678+948034561+947171206+947818808+947749526+946921156+945623546+941683978
668+932421246+921386235+914905952+913168038+914046033+916289547+918430579
658+918353392+915482140+912546761+912259594+913537959+913989397+913449362
648+911919160+908352812+904378327+903793272+905825500+905338527+901165679
638+898557950+902236539+910454873+915984578+912626147+901420128+889335221
628+882685305+883542474+888751403+891714413+889757310+886952317+886147385
618+884309190+880150157+877935924+880781470+886321623+889662458+889799993
608+891109219+896380282+900232560+893745335+876711309+859141166+850040094
##END=
