##TITLE=<SNM>
##JCAMP-DX=4.24
##DATA TYPE=INFRARED SPECTRUM
##DATE=2/5/2025
##SAMPLING PROCEDURE=Instrument type and / or accessory
##ORIGIN=Admin
##XUNITS=1/CM
##YUNITS=ABSORBANCE
##RESOLUTION=4
##FIRSTX=4497.3318
##LASTX=599.83466
##DELTAX=-1.4281778
##MAXY=1.8623542
##MINY=0.40400866
##XFACTOR=1
##YFACTOR=1.7344525e-09
##NPOINTS=2730
##FIRSTY=0.43019646
##XYDATA=(X++(Y..Y))
4497+248030125+248137826+248630965+249152954+249061817+247949230+246284412
4487+244924929+244272215+244376496+245105844+245842030+245856756+245212633
4477+244634406+244548339+244859034+245563140+246867571+248526100+249710991
4467+249973867+249800942+249736473+249606848+249104344+248465652+248057480
4457+247819209+247454475+246807346+245908269+244859704+243740226+242677537
4447+241993911+241966093+242383406+242741851+242908848+243188975+243687527
4437+244027089+243896536+243448346+242961100+242662536+242968008+244099822
4427+245263665+245158955+243674434+242078931+241353346+241392763+241853753
4417+242752521+244038618+245340781+246284309+246595090+245985951+244481086
4407+242763621+241627889+241159939+240969196+240997684+241377779+241749610
4397+241582321+241029403+240774861+241149647+241848616+242337099+242270344
4387+241659573+240744070+239766108+239034543+238988769+239741640+240677006
4377+240965501+240464338+239781245+239475173+239556772+239797431+240130481
4367+240539804+240834948+240849244+240617692+240074947+239033340+237830218
4357+237358265+237976596+238937840+239307230+239002274+238634035+238740464
4347+239243689+239522270+239178327+238593982+238410834+238696390+238955933
4337+238725807+237952403+237012552+236461456+236572541+237119410+237722346
4327+238203337+238495870+238489633+238129332+237557290+237040250+236707613
4317+236450201+236240402+236413001+237300291+238637678+239661036+239835044
4307+239257384+238373101+237589456+237119341+236927825+236842496+236836310
4297+237054580+237513114+237964242+238149212+238088437+237997610+237921784
4287+237603529+236891552+236136585+235743225+235495985+235008740+234620431
4277+234954065+235787144+236299063+236266880+236163613+236327208+236690705
4267+236993943+236926381+236469806+236121791+236315851+236842049+237227918
4257+237374897+237533802+237801746+237836816+237233812+236226416+235608101
4247+235760236+236289029+236698317+236752614+236368532+235845719+235870273
4237+236672372+237454350+237199738+235817969+234147052+233199829+233610045
4227+235317665+237414675+238610168+238377877+237510348+237141885+237453439
4217+237726573+237444607+236805279+236246828+236014056+236207394+236744109
4207+237219773+237326013+237348127+237601827+237599267+236634879+235031627
4197+233988354+234251281+235498597+236866655+237695541+237868690+237646158
4187+237329656+237144789+237156490+237079237+236537162+235697485+235201751
4177+235404041+236103732+236970867+237838551+238608811+239118411+239158017
4167+238703195+238131995+237905787+237926853+237651932+236992861+236596682
4157+236929663+237444332+237131781+235862609+234625689+234302812+234843289
4147+235799085+236924165+237951595+238441109+238209970+237591398+237173621
4137+237331460+237868483+238205725+238053883+237693479+237578597+237905890
4127+238435233+238563501+237864102+236600067+235396515+234579055+234128151
4117+234025966+234374033+235226821+236335387+237157624+237332113+237029528
4107+236689709+236562025+236602507+236686891+236814145+237072845+237450724
4097+237818946+238096788+238246276+238170243+237759117+236929646+235748912
4087+234767084+234796449+235863709+236857531+236736377+235611211+234283601
4077+233389765+233231995+233724189+234331420+234546838+234402092+234198599
4067+233996567+233706852+233438615+233432257+233711044+234040571+234282502
4057+234527697+234763424+234733750+234380838+234086913+234211125+234743578
4047+235526123+236332672+236726101+236397330+235610696+234836261+234156657
4037+233456347+232931523+233017333+233887561+235202043+236311194+236756618
4027+236692733+236707974+237147641+237769632+238049931+237664578+236790347
4017+236018747+235788329+235973110+236221690+236441713+236727631+237083310
4007+237384984+237478594+237335017+237157762+237157040+237238313+237161662
3997+236903649+236558262+236028421+235190033+234305148+233899125+234191039
3987+234918187+235704822+236335387+236695259+236778336+236749624+236763456
3977+236848355+237051453+237406462+237730628+237813053+237760096+237734356
3967+237567462+237165459+236955282+237303796+237852040+238034501+237912247
3957+237915203+238129521+238359097+238673967+239430446+240635081+241695365
3947+242200996+242538513+243097495+243418019+242895463+241813632+240885585
3937+240488754+240865155+242221288+244190031+245724931+246050506+245506060
3927+245012182+245005824+245170347+245184437+245389579+246279275+247602709
3917+248285355+247376295+245234094+243387451+242986255+243782443+244975737
3907+246633046+249357203+252802339+255504605+256347323+255297263+252937119
3897+250336488+248791931+248927364+250055141+250480426+249480195+248837276
3887+250255507+252621785+253705506+253891782+254791460+255384361+253966887
3878+252028196+251968779+253741967+255953894+257932860+259114144+258741197
3868+257729557+257748200+258578598+258498424+256884811+255081553+254817870
3858+257275679+262970974+270442052+274077072+269752120+262049680+255921952
3848+252881001+253065146+255658698+259011461+262029216+264943531+267860321
3838+269559281+269004233+266920487+264540618+262496323+261195552+260902762
3828+261144709+261274987+262081193+265056094+269230132+271129646+270219383
3818+269040299+267699493+264684040+261040102+259241209+260423661+264116621
3808+268177941+270289333+271353912+273828389+277026870+278034678+276960133
3798+275845999+274717122+273073336+271926366+272352133+274172367+276772585
3788+279941684+283570416+287402194+291720101+297512821+305045893+312851961
3778+319444804+325492925+332829635+342560562+354419548+366620364+377019383
3768+385185013+391412383+394982368+396042497+396510034+397355725+397657726
3758+397217680+398011274+402248182+410407765+420159688+427068862+430069726
3748+433152345+438943312+445716984+449916813+452297077+456925198+466122297
3738+480032571+496391736+510196337+517636486+520881858+525238048+533321168
3728+543997479+554537566+562944818+568865067+572647840+574892432+576556527
3718+578034433+579174118+580851341+583960833+586504195+585250625+580799450
3708+575980843+572253363+570350636+570397201+571061444+570800475+569806739
3698+569211914+569729246+571982944+576608281+582860944+587375557+586774236
3688+583064591+581008733+581822430+584369091+587695908+591074342+594125276
3678+596601076+596704996+593153568+589505850+588831331+588180250+583196553
3668+575722280+570859789+570432150+572571859+574294135+574807412+575433510
3658+575720149+573278543+569256004+568338387+572588354+578750258+580197304
3648+574902363+568346566+565087517+565100197+566194898+566525903+565694198
3638+564230176+562542987+560933600+560600430+563609680+570403077+576633574
3628+576218203+570793636+566382600+565676466+568022469+571075465+572631551
3618+572797672+573186616+574290561+576104695+579555364+584864017+589396225
3608+589995621+587429441+585007045+584416515+585375301+586920494+588310494
3598+589451828+590354874+590992209+592036771+594409613+597766122+600442133
3588+601165449+600192229+598272526+595731776+593072329+591234346+590903753
3578+592011341+593901490+595717480+596942734+598028465+600420345+604861554
3568+608810174+608047199+603080960+598466208+595887931+593630006+590989804
3558+589441312+589772317+591090562+592827375+595441460+598971925+602214204
3548+603198695+600430655+594745291+589191065+586094425+585655171+587034792
3538+589041577+590189784+589707298+588317642+587340023+587400987+587965537
3528+587825808+586209480+583693885+581785247+580925501+579755369+576982861
3518+573235587+570664905+570622842+571989405+572389621+571180003+570204241
3508+571098318+573286962+575027658+575136596+573484871+570843810+568601692
3498+567791363+568057693+568283059+568292750+568784584+569568005+569268101
3488+567026808+563699166+561018001+559858625+559557071+558981181+557846823
3478+556505965+555307963+554835512+555579791+556784838+556764906+554729358
3468+551557012+548859317+547691247+547918537+548618314+549036915+549030867
3458+548786737+548415766+547574646+545492120+542169118+539086121+537756363
3448+538245550+539598676+540837057+541082905+539753491+537180232+534524325
3438+532855967+532321934+532167634+531915188+532241691+533856198+535798273
3428+536067524+533982937+530749592+527961105+526575263+526657842+527140947
3418+526462958+524284313+522104191+521678373+523126896+524860135+525217876
3408+523978464+522167354+520650959+519473954+518511525+517935841+517687518
3398+517144069+515866614+514236368+512846609+511840227+511302207+511546405
3388+512383539+512589283+510932782+507842671+505318589+504912565+506402052
3378+508602518+510743121+512544677+513608964+513525560+512377731+510726350
3368+509239097+508503547+508891838+510177127+511330420+511202617+509636599
3358+507627168+506381261+506393976+507303929+508449662+509482987+510309433
3348+510548923+509697837+507898102+505962453+504761943+504772493+505648837
3338+506322599+506245175+505991629+505889977+505343022+504273477+503599852
3328+503623701+503361358+502037030+500275406+499265415+499263044+499290433
3318+498328520+496633289+495508656+495932481+497678538+499600235+500567956
3308+500161245+498666913+496751848+495289098+495079677+496119565+497312446
3298+497558398+497017731+496658238+496788860+496835940+496361564+495605050
3288+495091292+495188270+495913305+496801575+497134057+496582291+495603573
3278+495078027+495533365+496778275+498168653+498926541+498413608+496709236
3268+494820186+493739747+493552938+493940405+494803175+495794608+496060491
3258+495171260+493810161+492965879+492653191+491855130+489975084+487980224
3248+487342923+488078095+488772030+488518209+487755201+487165358+486798683
3238+486362555+485726422+484950561+484128445+483419080+483092956+483273097
3228+483654035+483808609+483726545+483619841+483292067+482243691+480464472
3218+478648207+477503815+477144356+477139201+476970606+476516780+476117732
3208+475971406+475654594+474705258+473476396+472711257+472341488+471480642
3198+469744861+467851790+466604371+465877102+464952165+463523367+461987659
3188+460884299+460402157+460356588+460397345+460225726+459781798+459271785
3178+458837479+458266228+457365862+456475599+456057926+455953628+455619324
3168+454867278+453803747+452387526+450672948+449190300+448438632+448060719
3158+447056124+444975316+442522129+440744113+440007600+439983235+440128771
3148+439900037+439025651+437904489+437282928+437301279+437282618+436647139
3138+435594123+434632553+433852912+433038390+432226858+431665092+431290272
3128+430846721+430515682+430680532+430966037+430419322+428909801+427418183
3118+426660742+426307537+425769448+425037953+424499452+424376218+424485293
3108+424345358+423580632+422330773+421116344+420263712+419690089+419246539
3098+418937218+418725839+418420986+417838429+416931671+415838104+414878940
3088+414329648+414134214+413990808+413676952+413208211+412788717+412606856
3078+412586409+412454241+412060932+411444182+410724748+410158996+409978338
3068+409946138+409460903+408292111+406866165+405768922+405243548+405117875
3058+405036430+404823641+404638035+404645939+404647863+404252390+403369206
3048+402302032+401371047+400684261+400250195+399992044+399621176+398826620
3038+397704290+396742995+396260269+396036139+395620734+394839134+393828112
3028+392789839+391954699+391512488+391302621+390888040+390137231+389322606
3018+388568189+387762293+387031519+386611234+386234455+385375499+384127152
3008+383156028+382778150+382664161+382443262+382103528+381784242+381517844
2998+381186495+380649644+379955675+379290504+378643271+377812873+376847660
2988+376098363+375678044+375233016+374464543+373584625+372972754+372615563
2978+372241739+371817468+371483508+371154737+370623727+369943676+369359160
2968+368956950+368569621+367970534+367161236+366396338+365825774+365352807
2958+364936886+364601620+364136935+363348118+362518579+362133449+362302491
2948+362723017+362964123+362712845+361977947+361032219+360098485+359250079
2938+358525835+357946817+357522889+357307317+357351304+357610417+357871214
2928+357743032+356917067+355542290+354149885+353144431+352540773+352186057
2918+352065847+352265096+352610878+352601977+351938971+350922761+350079063
2908+349589189+349290728+349038763+348807176+348469505+347803784+346900463
2898+346237972+346073329+346080786+345832120+345269357+344543257+343781692
2888+343134322+342742869+342593827+342525235+342406263+342248321+342030308
2878+341502701+340513398+339454162+338865351+338708543+338583729+338420460
2868+338378741+338370150+338181176+337811407+337375177+336888017+336297487
2858+335589463+334840716+334209154+333798697+333541027+333315455+333120536
2848+332983213+332797813+332431378+331888203+331242998+330586796+330144792
2838+330176271+330609409+331022134+331072444+330730546+330106991+329318861
2828+328531316+327953639+327708135+327662051+327475242+326971244+326332602
2818+325770321+325265119+324811500+324558538+324511595+324424377+324095915
2808+323525867+322863892+322405702+322409722+322749559+322957983+322680691
2798+321929436+320981715+320192383+319757355+319538105+319229438+318714133
2788+318116971+317524241+316844225+316039566+315331919+314957580+314798264
2778+314505816+313940270+313258844+312656321+312214970+311904034+311602721
2768+311222437+310811430+310452486+310141654+309819481+309413801+308863719
2758+308199854+307553274+307043743+306707996+306484176+306224513+305814297
2748+305254489+304548630+303670601+302760613+302134069+301948703+302001316
2738+301921520+301490891+300774207+299995047+299327470+298849211+298606387
2728+298555493+298487553+298190810+297667464+297089580+296600324+296213098
2718+295851440+295458509+295045990+294608969+294080743+293448597+292818650
2708+292304583+291944677+291736321+291657660+291667694+291709173+291674773
2698+291447517+291066236+290714647+290442613+290085078+289553931+289002302
2688+288611708+288385345+288194018+287895780+287410545+286786011+286176339
2678+285692564+285309548+284958732+284644274+284413547+284273492+284202992
2668+284194143+284218198+284201462+284098058+283929755+283701588+283353143
2658+282873010+282406315+282137064+282051495+281936458+281679820+281436669
2648+281363661+281320876+281032415+280468467+279877816+279462497+279178899
2638+278901676+278666154+278616411+278750985+278890799+278898514+278755641
2628+278441011+277936824+277338836+276796538+276377610+276076778+275875158
2618+275737440+275629997+275552744+275510939+275495234+275507846+275537847
2608+275524531+275429734+275307652+275206052+275065018+274815355+274512581
2598+274279380+274168552+274124719+274030525+273821894+273614673+273605050
2588+273782529+273900625+273778233+273459480+273089642+272811904+272742177
2578+272884861+273096739+273205126+273144919+272981032+272828794+272757401
2568+272769068+272820650+272828261+272744634+272684512+272826440+273133956
2558+273349082+273305387+273092289+272900531+272813261+272739668+272522171
2548+272143605+271798528+271694058+271816604+271951556+271898376+271615637
2538+271186967+270734670+270386363+270219744+270167681+270068915+269872862
2528+269692067+269606344+269537957+269374877+269112259+268824280+268565682
2518+268329474+268064227+267742501+267450827+267370945+267589834+267960375
2508+268243183+268343701+268297514+268099107+267718204+267246853+266863544
2498+266668643+266659003+266811275+267074598+267314621+267364759+267168878
2488+266848819+266590668+266462452+266381092+266237120+265992011+265694031
2478+265460211+265394402+265486328+265648016+265819807+265929277+265817144
2468+265399075+264866777+264503538+264310354+264052667+263683002+263447756
2458+263517259+263745048+263854054+263699325+263335158+262939101+262655107
2448+262484296+262362987+262272572+262181917+261992995+261666165+261329851
2438+261175500+261264918+261474408+261613278+261566060+261332412+261005857
2428+260729149+260578871+260491978+260395069+260351752+260464126+260677138
2418+260796574+260702705+260496669+260409227+260552650+260795044+260914893
2408+260832657+260643099+260473215+260374793+260337885+260367800+260532426
2398+260921559+261580562+262564435+264094576+266610291+270690099+277014619
2388+286309710+299096606+315502061+335432380+358781236+385241956+414027476
2378+444024468+474217582+503794737+531827660+556997524+577901234+594054484
2368+606298565+615438103+621169790+623145166+622185692+619565696+615101394
2358+606423792+591345895+570304174+545441844+520288820+500227020+489948451
2348+491289343+503042828+520341123+535736176+544702822+548129230+548722715
2338+548457554+548349029+548623297+549190974+550034809+550762834+550363065
2328+548287516+545109808+541284147+536228696+529425814+521432868+513044999
2318+504414305+495504739+486597544+477926230+469164194+459575401+448679428
2308+436658789+424161849+411915705+400481438+390033311+380278191+370820811
2298+361627767+352936316+344818659+337122593+329771587+322843410+316372976
2288+310317432+304718015+299717102+295402906+291734397+288596004+285866022
2278+283472097+281412596+279671660+278116106+276572855+275024261+273619106
2268+272458768+271474482+270550456+269665314+268849693+268083574+267325652
2258+266611717+266028146+265571038+265115838+264558006+263918970+263304247
2248+262811503+262465721+262199495+261911601+261547090+261099828+260594644
2238+260111969+259754658+259548966+259439221+259381092+259377999+259430097
2228+259482297+259435011+259243271+259002526+258853003+258796834+258705165
2218+258502428+258241356+257996917+257783338+257597715+257488382+257526613
2208+257702133+257873942+257883426+257730398+257565463+257478382+257401060
2198+257280456+257227190+257386627+257733371+258079204+258249105+258206458
2188+258037176+257857635+257732168+257633918+257481647+257251297+257026429
2178+256894742+256861391+256908162+257033027+257188512+257297261+257345148
2168+257363259+257338705+257230850+257051155+256860205+256682039+256483598
2158+256286686+256216753+256313147+256387599+256246462+255966094+255781966
2148+255790230+255896539+255999720+256117696+256323268+256614804+256910602
2138+257146346+257323550+257518108+257890660+258584320+259551732+260584197
2128+261547795+262516994+263658895+265034839+266542986+268067320+269619643
2118+271247845+272865290+274291373+275419751+276233139+276698236+276762637
2108+276425704+275709569+274614508+273236399+271841863+270641404+269558851
2098+268393668+267132554+265956477+265014186+264302364+263734962+263258112
2088+262869958+262553472+262263311+261986740+261740600+261517622+261310074
2078+261159297+261124296+261219677+261390695+261537846+261606112+261668038
2068+261854039+262172930+262467680+262592374+262575432+262547149+262583645
2058+262696500+262881556+263095977+263286463+263485179+263760942+264062032
2048+264234906+264220593+264159148+264265783+264596478+264970628+265177437
2038+265208847+265213830+265306461+265492480+265715337+265918916+266081034
2028+266195882+266276691+266414255+266738850+267274328+267911680+268510011
2018+268922616+269023013+268854126+268652884+268613879+268726786+268892116
2008+269074355+269280545+269478368+269614230+269699989+269819029+269998621
1998+270160550+270323956+270723158+271468984+272212851+272485727+272283970
1988+271963618+271734592+271588145+271518435+271551632+271671360+271848014
1978+272077521+272354023+272638686+272878709+273107186+273493621+274139015
1968+274817400+275132717+274998092+274739460+274673376+274813534+275024759
1958+275248476+275487176+275722130+275937393+276149941+276396614+276745763
1948+277316327+278244890+279541434+280850641+281511276+281211578+280415544
1938+279787608+279542585+279557224+279726318+280004400+280321504+280614003
1928+280928478+281467924+282357671+283340118+284068401+284677350+285430359
1918+285942605+285605380+284679361+284051441+284141564+284624394+284946635
1908+284884177+284659085+284596249+284760308+284988217+285173119+285404928
1898+285834338+286407324+286861047+287180178+287766945+288748825+289507160
1888+289463826+288927524+288543287+288510194+288714494+289057596+289432519
1878+289731702+289964525+290283846+291069741+292870988+295724804+298391537
1868+299071863+297594335+295650919+294628832+294589381+294961762+295349881
1858+295662672+295926253+296197359+296575753+297218724+298249093+299705830
1848+301747289+304536636+307343200+308356112+306890543+304613717+303270901
1838+303135296+303554928+304077415+305074244+307126082+309737555+311368007
1828+311474745+311079203+310700431+309862506+308647253+307905345+308001155
1818+308554089+309233900+310206467+311737913+313557374+314807611+314913180
1808+314332513+314058795+314768332+316570300+318954173+320873602+321554375
1798+321452345+321929023+323999865+327303692+329754199+329365323+327107845
1788+325570728+325861491+327282523+328854761+330350605+331754110+332814068
1778+333724468+335423754+338694453+343023666+346303025+346797814+345268120
1768+343285322+341719545+341439538+343011845+345481837+347132530+347870864
1758+348726624+349727577+350690281+352648611+356496884+361051464+363817546
1748+364076074+363349802+363090243+363800879+365412362+367344849+368840315
1738+370366126+373615862+378836987+382639624+381712522+378179995+375120882
1728+373309738+372834434+373613972+375097136+377222755+381050307+387232555
1718+393835982+396722411+394645315+390728311+387801847+386878491+388173059
1708+391399221+395355538+398598402+401517443+405909441+411685116+415764632
1698+416536128+415314827+412530772+409050721+407287104+408260770+411093383
1688+415273761+421660000+429682534+434341378+432339782+428047374+425955261
1678+427179071+430774108+434519045+436998934+439411434+442852927+445492821
1668+445194806+443858588+444649020+447806383+450888623+452104152+452805784
1658+455570904+462027145+472443415+483642625+488101223+486533556+487013808
1648+491318588+495373979+495369100+493535824+493702633+496985566+503226028
1638+512045833+521592872+527637351+528705522+529219624+532967894+540154291
1628+548967086+558015178+567587887+577988040+588139974+597461303+607417150
1618+619274280+631163370+639587288+645074296+650663162+657263600+663777506
1608+669108359+673172789+676479124+679426345+682116926+684681388+687446473
1598+690558302+693758725+696738867+699555431+702527669+705684585+708588025
1588+710950626+713071571+715314101+717619724+719957239+722859441+727089717
1578+732665318+737940087+740870125+742771203+746924226+754311143+762832109
1568+769904242+776188314+783925343+793728471+805608351+820938694+839496126
1558+853306982+857373542+858370543+860526541+863283791+865286933+865954166
1548+865969836+866857418+869120567+871685097+873219980+871698087+864863142
1538+856033509+850218177+847066141+843545436+838617067+834651952+833679763
1528+835132857+837281982+839437774+842089111+844486902+844430475+841894398
1518+839131994+837059571+835441387+834841098+836382716+840461236+846185913
1508+850839567+850022915+843484472+837047200+833692547+832897820+833772549
1498+835240214+835449291+833559417+831478197+831412079+833276042+834781027
1488+833855163+831017430+828262654+826898016+826930525+827666351+828777718
1478+830492400+832747781+834762608+835291762+833301541+829562480+826532233
1468+825754139+826875335+828246021+828607886+828919165+831132140+835685861
1458+840058958+839670151+834206237+828254544+824433144+822872624+822790835
1448+822670214+821228598+818939263+817272487+816912684+817791743+819963274
1438+823224317+825966584+826188032+824277332+822070886+820479713+819458795
1428+818830807+818490042+818124604+817624316+817831676+819560653+821458569
1418+820655800+816955709+812902207+810070522+808619559+808377491+809005204
1408+809863644+810141040+809209608+807505992+806623633+807581251+809726665
1398+811834277+813448062+814292413+813761129+812251469+811265809+811467189
1388+811868230+811210550+809959592+810008596+812469963+816698589+821203923
1378+825140446+828698747+832085428+834837180+836602584+837822683+839044569
1368+840453676+842311110+844892342+847680658+849360493+849217809+848033862
1358+846974042+846225708+845114959+843430587+842209389+842674211+844650892
1348+846614102+847368897+847327178+847795437+849202207+850627603+851287344
1338+851767906+852958794+854511685+855367651+855304075+855283319+856404171
1328+858913649+862287134+865925780+869432052+872444978+874724416+876349198
1318+877612941+878913179+880791026+883675495+887429471+891341526+894678172
1308+897247720+899533205+902225643+905479194+908767522+911525803+913556849
1298+914733098+914996266+914730830+914561616+914890284+915930172+917695989
1288+919386409+919326682+916556511+912256061+908621883+906641903+905636655
1278+904708316+903944792+903936819+904676700+905497270+905912538+906042369
1268+906242511+906810360+908018912+910051265+912581843+914708355+915812231
1258+916283583+917106421+919081865+922493496+926843568+930776861+932965025
1248+933142143+931904792+930005364+928193086+927114915+927063436+928028408
1238+929730925+931343679+931830770+931010681+929548102+927712937+925081257
1228+921914100+919894944+920312686+921933757+922078640+919935151+917293642
1218+916021996+916451835+918051874+920355299+923041344+925679622+927690393
1208+928871934+929869072+931454747+933407785+934890570+935860354+937127739
1198+939103458+941337946+943332909+945279142+947691092+950637281+953755158
1188+956597634+958484072+958820438+958128874+957772371+958402627+959726646
1178+961620369+964201532+966985106+969318772+971533259+974366731+977249620
1168+978340849+976938203+974942415+975024823+978078094+982803502+986825388
1158+988041501+986397474+984001607+982623567+982288713+982670234+984267525
1148+987285881+990485547+991985309+991093328+989292665+989163109+992127374
1138+997318567+1002439724+1005503717+1006404564+1007136197+1009467045
1130+1012545609+1013790863+1012301410+1010261223+1010218541+1012249450
1121+1014315412+1015358805+1016798703+1019643997+1022312653+1023197349
1113+1023280581+1024492845+1027479997+1031442363+1034009230+1032334550
1104+1027100194+1023200991+1024057782+1027756086+1030722620+1032773942
1095+1035270292+1037262231+1037450208+1037439005+1039435549+1042525797
1087+1044078275+1043741841+1043748645+1046100593+1050712734+1055369824
1078+1057252208+1055400134+1051628908+1048631377+1047562484+1047522552
1070+1046939033+1045323185+1043991812+1045097475+1049430778+1054784655
1061+1057749402+1057753526+1057382520+1057964596+1058053464+1057547473
1053+1057684177+1058083706+1058419247+1059538106+1060871059+1060420327
1044+1058356908+1057413861+1059473362+1063256067+1065162780+1063390778
1035+1061218147+1063422256+1069612580+1073741823+1071321695+1064719539
1027+1059231638+1057215849+1057508984+1058209207+1058859257+1060088910
1018+1061874658+1062912759+1061589290+1057744385+1053492665+1051818947
1010+1054079208+1058434367+1061028039+1059684707+1055729352+1051625334
1001+1048891177+1048566770+1050719744+1052997739+1052973752+1051933520
993+1052399098+1053405377+1051738120+1046868103+1041757462+1039342282
984+1040079482+1042135478+1043437778+1043736548+1043951811+1044040061
975+1043138870+1041425426+1039862707+1038531334+1037065937+1035604939
967+1034135487+1032410634+1030630315+1029320455+1028575557+1027624056
958+1025307710+1021268779+1016581103+1012699290+1010460334+1009432130
950+1007601707+1003177337+997687580+995212399+997146055+999771618+998594063
940+993649405+988509141+985830106+985722131+987132818+989112798+990310766
930+988866332+984775510+980909710+979893465+981564365+984094118+985912788
920+986429433+986146265+985603984+984067039+980920638+977865580+977226320
910+978542229+979314619+978920314+979186231+980795274+981657014+979953879
900+976824317+974392505+972842501+970992559+968698069+967243738+967680106
890+969384959+970473508+969751428+967917088+966488324+965953740+965446168
880+964040223+961970000+960338276+959643551+959126906+957957461+956570554
870+956009784+956377285+956693169+956003736+954227129+952348182+951879236
860+953412401+955998444+958424346+960258824+961310190+961574457+962001478
850+963368866+964431160+963387079+960777668+958446820+956449314+953604021
840+950410196+948844522+949585296+951213996+952079791+951788512+950786219
830+949673065+949168997+949947298+952005700+954381841+955835759+956224979
820+957335040+961265309+967157963+970589800+968174345+962212824+958551496
810+960968944+968327682+975327098+976661564+972276577+966901118+963536636
800+961017468+958125232+955683797+954092418+952793898+952597604+954988797
790+958875353+961565110+962910916+965077705+968990241+973713931+977616158
780+978980728+976923770+972590674+968760133+967334530+967911177+968809137
770+968779240+968132007+967960800+968217920+967848770+966943249+966696439
760+966983182+966393133+965194615+965212416+966293543+966692109+966343922
750+966915482+969211346+972386064+975481741+978234318+980530869+982079429
740+982882405+983291281+982515042+979000934+974304187+972800301+975160634
730+975916391+971098747+964600030+962338325+964868490+968740544+971691614
720+974180197+976904251+978726770+977516018+972426408+965641430+961527652
710+963001709+968815942+974765160+976880332+974124113+968785838+963821729
700+960957947+960422058+960903994+960511407+958440291+955503449+953500513
690+953594055+954163141+951455583+944387093+937006911+933930890+935227623
680+937911813+939575428+938519663+934207392+929156684+926846524+927102887
670+925858939+920506643+915298267+914885542+917484987+920504649+923737169
660+926640333+927178147+925130743+922822713+921653819+919903397+915543290
650+910530589+909018868+911247446+912269945+908634254+903413507+902011686
640+906430695+913346054+915665630+909609742+899988474+893861244+892257975
630+891517819+889967128+889121059+889752758+890073660+886983481+878739841
620+868249686+862055719+864895789+876742610+892794689+904036340+902020552
610+889482168+879487626+878675510+880811714+875643958+861035626+845758274
600+840027961
##END=
