##TITLE=<SNM>
##JCAMP-DX=4.24
##DATA TYPE=INFRARED SPECTRUM
##DATE=2/5/2025
##SAMPLING PROCEDURE=Instrument type and / or accessory
##ORIGIN=Admin
##XUNITS=1/CM
##YUNITS=ABSORBANCE
##RESOLUTION=4
##FIRSTX=4497.3318
##LASTX=599.83466
##DELTAX=-1.4281778
##MAXY=1.8422315
##MINY=0.34206274
##XFACTOR=1
##YFACTOR=1.7157118e-09
##NPOINTS=2730
##FIRSTY=0.35705838
##XYDATA=(X++(Y..Y))
4497+208110929+208118485+207970994+207357756+206657040+206240954+206013907
4487+205908122+206167095+206897027+207688502+207922028+207458816+206785337
4477+206343421+206080939+205923287+206209340+207217630+208620832+209696415
4467+209855943+209068880+208116991+208091926+209117448+209941752+209387711
4457+207874763+206855860+207010281+207628592+207745963+207340629+207194753
4447+207959704+209595911+211378757+212336900+212050638+211030362+210058411
4437+209448403+209142339+208995943+208807701+208543500+208490208+208739159
4427+208789584+208268373+207664288+207605959+207814332+207619143+207218603
4417+207457044+208442162+209345779+209679913+209832563+210123254+210242987
4407+209870969+209077600+207961111+206635067+205662351+205701920+206565655
4397+207249522+207068055+206282190+205587468+205482152+205972774+206493274
4387+206454295+206039024+205898899+206085872+205994956+205348141+204485100
4377+203667605+202836613+202177030+202191065+202891746+203548428+203652962
4367+203579694+203823207+204157689+204015288+203254662+202282172+201628721
4357+201419931+201243866+200671829+199858954+199370746+199536615+200208843
4347+200911226+201140531+200879734+200719962+201137004+201904838+202452730
4337+202445418+201901104+201145776+200651645+200554268+200496789+200253068
4327+200180200+200711590+201608172+202066173+201636833+200761772+200131980
4317+199827775+199582663+199535642+200003457+200818573+201610552+202253268
4307+202457438+201830789+200835596+200577648+201388091+202587489+203518777
4297+203891907+203516901+202646791+202160059+202672342+203816676+204741589
4287+205000111+204724705+204130348+203243337+202137773+201026113+200081693
4277+199541913+199764912+200671221+201504941+201716006+201614043+201660665
4267+201769159+201823146+202158548+202919851+203598471+203803162+203831858
4257+203944122+203880599+203590203+203536824+203915391+204392986+204740947
4247+205012843+205188856+205200824+205101674+204904540+204581140+204343724
4237+204503652+204995942+205422520+205529920+205301085+204719807+203950028
4227+203651937+204463353+206069075+207305923+207370557+206544707+205582170
4217+204862139+204414716+204305944+204548953+204838376+204790799+204420292
4207+204133683+204283831+204862312+205582952+206155266+206438922+206436039
4197+206317018+206372220+206754036+207367622+208055014+208636309+208847427
4187+208579074+208021802+207354768+206632791+206116635+206242135+207063070
4177+208030401+208487933+208291892+207874468+207729027+207913238+208086854
4167+207988156+207795972+207886228+208206795+208249804+207844035+207487407
4157+207616068+208059218+208441884+208684738+208955210+209365269+209752434
4147+209787331+209299939+208376433+207333489+206680612+206753897+207319906
4137+207871289+208175599+208150863+207626960+206796228+206407152+206899094
4127+207733821+208098058+207907159+207609832+207382682+207125898+206963503
4117+207119575+207498732+207841100+208085204+208275269+208345080+208236412
4107+208057759+207974538+208057794+208335005+208845499+209445606+209754362
4097+209548890+209004819+208400300+207889163+207572504+207411239+207164824
4087+206757614+206538697+206878059+207625118+208142039+207888243+206993953
4077+206166383+205964958+206357647+207004428+207645233+208130384+208396878
4067+208568565+208860090+209246456+209388232+209059327+208548173+208404382
4057+208794014+209299401+209455976+209338605+209352727+209493531+209277601
4047+208644369+208346695+208954932+210008819+210728693+211075508+211475249
4037+211910130+211943186+211455725+210802812+210307986+210026918+209923097
4027+209973609+210234788+210943893+212236569+213605917+214100656+213370533
4017+212111347+211156505+210661974+210500518+210777504+211423520+211893177
4007+211933997+212094203+212862523+213923601+214705384+215018552+214847872
3997+214198781+213404040+213012133+213219117+213775260+214421728+215151886
3987+216077424+217124172+217839913+217673089+216660004+215684909+215743968
3977+216936348+218346846+218930086+218413686+217382398+216665667+216676628
3967+217233205+217989140+218885775+219955781+220928254+221438939+221450716
3957+221159157+220747343+220533654+221152156+223098856+225775193+227417515
3947+226988192+225788169+225812696+227076016+227820435+227054442+225554904
3937+224592523+225038521+227192778+230239292+232071505+231168652+228843663
3927+227882585+229204895+231107717+231878626+232089014+233159247+234871362
3917+235336259+233153931+229204721+225739949+224188370+224538050+226563715
3907+230823714+237777941+246039157+252287075+253993718+251264819+245580530
3897+239086128+234659219+234497849+238103146+241584906+241330728+239325212
3887+239963482+243564193+246521476+247360146+247887107+247846374+245482840
3878+242628754+242749390+246084754+250523023+254819690+257787604+257453071
3868+255011440+254119809+255176805+254967563+251791606+247722715+245551296
3858+247251287+254456548+266603556+275585793+271813984+260370089+250383314
3848+245451973+246033303+250864418+257401742+263451205+268378725+271562151
3838+271302118+267561142+263024175+259528276+256707731+254156634+252700087
3828+252993870+254852346+258728897+265485781+272882723+275536513+273199226
3818+270907553+269361880+265350519+259238193+254902668+254981668+259538767
3808+265619827+269228859+271051379+274885234+279984284+281369769+278712522
3798+275938044+273862509+271375299+269375776+269559050+271852060+275086954
3788+278707398+282610682+286372450+290171234+295361965+302309817+308950702
3778+313808880+318867128+326765792+337917346+351151661+364679741+376879624
3768+387794213+397899662+405904215+411247891+416255313+422555499+428305673
3758+431513921+434228993+440484537+452199860+466535934+476022064+477819675
3748+478394908+482675282+488710745+491519582+492253648+496762962+507735707
3738+523265811+538394212+548784428+553374201+553385770+551460140+551123817
3728+554955344+562493055+570045183+573912180+573594791+571090176+568474045
3718+566825227+567029570+570503618+577436775+583652506+583158914+576647124
3708+569687842+565437345+564258114+565420148+566968358+566537819+564144965
3698+562023433+562138806+565463609+572419660+582241348+591073002+592983312
3688+587372794+580500815+576932065+577024475+579357923+582425924+586102474
3678+591642538+598427492+602725236+604499849+607649143+610728886+607158260
3668+596967488+587231053+581721978+579464368+578520400+578657451+580559944
3658+583124104+583611860+582400911+584190775+592372366+604019805+609032647
3648+601399887+587937744+576207622+567884256+562163541+558582736+557299666
3638+558352928+561093674+564376197+567835306+572614067+579132735+583830725
3628+581909646+575880575+572163414+573784578+580168106+587614241+591028326
3618+589727921+588613446+590671680+593835009+595395482+595875248+596458610
3608+595907209+593300006+590771038+590609634+592322270+594144547+595998021
3598+599217907+603778150+607736758+609843073+611529237+615386055+621781221
3588+626838531+626100643+621203904+617261207+616267838+616762334+617453947
3578+618643878+619588055+617757371+613100201+609886985+612024358+618883240
3568+625774917+627867613+624889312+620243538+616625873+614956177+615446990
3558+618129024+622115841+625330447+626014209+624435185+622497570+621437846
3548+620817173+619822136+618555915+617420944+616224690+615103824+615079575
3538+616409093+617273505+615664257+612339037+610057630+609987524+610494110
3528+609820075+608378901+607140681+605578054+602988360+600549996+600203981
3518+601780434+602534094+600492674+597583646+597377426+600391023+603647735
3508+604761931+604221300+603358416+602668887+602177101+601553370+600079749
3498+597499782+594566296+592460398+591788100+592241533+593096357+593734540
3488+593726341+592975321+591842018+590741161+589854584+589294082+589141293
3478+589494256+590732407+592856440+594322766+593155347+589606468+586024238
3468+584249139+584388309+585345340+585749511+585194497+584570905+584508720
3458+584294788+583033153+580850687+578402352+576465605+576008524+577108061
3448+578016628+576847368+573902765+570793840+568465082+567357799+567906385
3438+569631528+571031083+571472287+571459016+570645012+568256778+565328225
3428+563679581+563138116+562046709+559792712+557109810+554886940+553839828
3418+554230971+555363858+556220940+556555386+556785959+557143682+557483131
3408+557823032+558386453+558917287+558567451+556920509+554744678+553194419
3398+552539561+552119827+551312527+550142225+549079549+548541662+548615833
3388+549217850+550181482+551184752+551761062+551463961+550205140+548384843
3378+546447436+544506347+542657945+541322278+540902162+541264018+541809096
3368+542059367+542227893+542947646+544055381+544273968+542802744+540467767
3358+538566733+537399349+536543656+536000732+536469833+538359159+540746073
3348+541828551+540769418+538774655+537839580+538639410+540124357+541081179
3338+541352746+541347222+541220141+540905809+540453662+539831981+538818810
3328+537548733+536736014+536934104+537823947+538511808+538358464+537317778
3318+535845512+534772448+534912591+536426268+538615787+540452272+541123493
3308+540170909+537818910+535391141+534465828+535267465+536492345+536971589
3298+536918888+537069801+537375482+537259484+536719721+536538619+537299435
3288+538577572+539449871+539450635+538689610+537582848+536771936+536780308
3278+537517849+538456154+539243269+539744053+539874399+539622531+538744882
3268+536959812+534978285+534178073+534810211+535800523+536328335+536409141
3258+536117981+535334792+534230323+533476281+533664470+534455024+534807466
3248+534370223+533938051+534027994+533988981+533149824+531836113+530756518
3238+530402652+531206095+533078815+534632826+534056551+531115422+527456312
3228+524898649+524075369+524495381+525250813+525563303+525062380+524026315
3218+523333521+523656885+524628646+525221110+524831530+523544048+521681576
3208+519646861+517794847+516172397+514764956+513928544+513986526+514465597
3198+514386910+513446868+512351118+511758341+511470273+510898271+509846121
3188+508678286+508015020+508319868+509435871+510362122+509918312+507856152
3178+505082820+502797314+501605333+501299860+501146099+500414256+498865074
3168+496809132+494848276+493597236+493254938+493299267+493027493+492395146
3158+491833497+491507562+491325175+491267749+491197052+490745842+489724438
3148+488312689+486800089+485456014+484530320+484126705+484115136+484124481
3138+483697243+482657982+481244704+479758402+478307223+477019012+476109923
3128+475562274+475103005+474621641+474331662+474399476+474591139+474471388
3118+473909357+473162228+472462902+471824616+471291176+470992720+470795603
3108+470311425+469492279+468774159+468342161+467730381+466579603+465373657
3098+464808707+464717027+464331025+463556834+463126191+463386606+463762185
3088+463521955+462502183+461102697+459979260+459575193+459746325+460021921
3078+460080320+459711063+458783249+457593353+456714072+456324840+456204915
3068+456271965+456510215+456518448+455752351+454244163+452685914+451736456
3058+451484414+451585405+451661973+451486499+451014063+450414408+449920954
3048+449513170+448857756+447693950+446267298+445205386+444895501+445083759
3038+445099011+444469339+443385680+442520920+442270649+442285553+441919180
3028+440936441+439619638+438469937+437903007+437933544+438117113+437977908
3018+437424040+436710436+436170152+435917867+435660683+434976435+433895242
3008+432963224+432601819+432580662+432228984+431153350+429627617+428158026
2998+426952080+426058520+425606129+425509169+425346375+424910312+424431033
2988+423996499+423322568+422394650+421742363+421687994+421779014+421339478
2978+420312271+419205752+418378130+417758916+417220647+416822486+416535426
2968+416100197+415435751+414846552+414557095+414418480+414266595+414116273
2958+413853392+413252833+412428407+411767330+411394669+411086799+410611827
2948+409864386+408835686+407685984+406669964+405870760+405214894+404748225
2938+404546696+404355971+403785810+402902255+402176180+401855316+401788128
2928+401756132+401591115+401093354+400193957+399154349+398387348+398045641
2918+397866415+397494761+396883398+396246849+395776706+395548357+395469322
2908+395238020+394670673+394016719+393589619+393299293+392887827+392337989
2898+391770538+391215802+390675553+390206522+389851127+389553853+389174834
2888+388633369+388009951+387424227+386880261+386330701+385806502+385399482
2878+385119335+384743825+383972378+382902302+382028058+381532937+381064323
2868+380461402+380098781+380179413+380282384+379958394+379300757+378620955
2858+377966445+377244468+376529370+376003261+375726831+375571645+375329643
2848+374910464+374437994+374069119+373762882+373355967+372799737+372193689
2838+371639961+371175898+370825644+370614040+370450551+370055517+369177591
2828+367917762+366711955+365948985+365652093+365547281+365417699+365273387
2818+365124489+364842466+364396989+363956445+363613035+363281854+362913952
2808+362552339+362222235+361926489+361631021+361200726+360513073+359648591
2798+358830487+358179416+357626521+357069111+356526047+356057537+355596601
2788+355048535+354510996+354166926+353976166+353650926+352957158+351974315
2778+351036635+350439759+350241287+350282906+350281377+349970450+349339737
2768+348660213+348155886+347805319+347501861+347156854+346644918+345940729
2758+345265478+344817013+344440148+343838443+343007069+342210331+341648195
2748+341306314+340978642+340399727+339559702+338812469+338437307+338284067
2738+338092021+337868987+337705499+337526029+337226810+336796792+336205127
2728+335404533+334487349+333674561+333136640+332879109+332737715+332491683
2718+332084976+331681986+331366265+330935796+330241264+329550276+329256233
2708+329353228+329468566+329299693+328821386+328172990+327485233+326793446
2698+326089743+325439123+324973184+324731008+324561752+324281084+323943789
2688+323802221+323896333+323904428+323558656+322949898+322279928+321604608
2678+320936479+320333558+319825201+319418703+319130947+318889953+318545258
2668+318100510+317759115+317635335+317609697+317528578+317325936+316923711
2658+316270000+315512518+314929434+314685869+314734054+314839352+314704524
2648+314247131+313705979+313339953+313151972+313005541+312833993+312625098
2638+312331750+311908194+311418145+311029364+310826480+310684356+310453784
2628+310186039+309987462+309754006+309307591+308737882+308325999+308137393
2618+307949204+307605898+307221738+306995890+306983349+307067838+307094067
2608+307033063+306971120+306902091+306681663+306271517+305846328+305572295
2598+305432708+305312471+305124108+304828988+304429889+303971975+303513679
2588+303084773+302701273+302424217+302323505+302341535+302289355+302046206
2578+301690950+301398262+301257667+301219835+301202916+301207571+301263642
2568+301297792+301160811+300776407+300198986+299586824+299130994+298892084
2558+298722342+298469223+298184281+298018500+298015060+298098716+298171149
2548+298175457+298141585+298137069+298112160+297899965+297447575+296926329
2538+296540362+296352173+296343140+296482797+296662718+296716913+296609113
2528+296479497+296432111+296406021+296327160+296236730+296196362+296204734
2518+296243852+296267337+296140464+295763009+295268617+294949040+294942161
2508+295090121+295141849+295023419+294861911+294797953+294836620+294857360
2498+294749734+294549698+294399828+294356263+294331667+294252146+294126733
2488+293946256+293690913+293460098+293419278+293571371+293714085+293684660
2478+293545802+293436266+293346288+293186794+292976823+292790683+292612395
2468+292398915+292201450+292115884+292172268+292295632+292343886+292235496
2458+292049947+291925576+291890905+291866622+291768098+291585328+291431150
2448+291445741+291584494+291626912+291444698+291130558+290872801+290818484
2438+290993611+291268946+291485588+291609681+291644734+291505321+291166705
2428+290822462+290696597+290773912+290844001+290778741+290701061+290840023
2418+291220744+291587760+291698304+291611800+291608396+291848730+292185504
2408+292350174+292284098+292157677+292099591+292101050+292154481+292273676
2398+292413367+292513211+292557749+292554448+292568483+292731868+293055302
2388+293316758+293280837+292900324+292161290+290883970+288873052+286195725
2378+283158035+280061391+277094276+274345054+271750166+269129293+266459417
2368+264067188+262437686+261781838+261773066+261902023+262242844+263576844
2358+266569718+271127773+276787987+283404710+290795990+297839795+302830994
2348+304741025+303905551+301859719+300204683+299292329+298505249+297393380
2338+295999488+294522983+292992421+291351889+289766091+288531293+287715360
2328+287149316+286656471+286151049+285736161+285716776+286278946+287218537
2318+288108084+288608851+288661135+288551407+288706940+289288305+290079589
2308+290789719+291276641+291485414+291407682+291164030+290955431+290879002
2298+290903581+291012110+291222412+291470754+291621666+291609889+291486595
2288+291346904+291258924+291215950+291123175+290866078+290419177+289894127
2278+289472846+289249465+289139842+289013265+288871367+288770255+288639249
2268+288367057+288023283+287812338+287830282+287994222+288165093+288240775
2258+288169505+287961601+287701603+287511538+287463822+287529968+287641172
2248+287762955+287860280+287859342+287728961+287558403+287488453+287566775
2238+287691772+287747113+287804209+288055782+288476733+288747691+288645068
2228+288311959+288013625+287824758+287679838+287555450+287482182+287477527
2218+287545375+287672595+287777251+287738810+287554668+287404485+287461321
2208+287681697+287873117+287932784+287920833+287909369+287854722+287671327
2198+287395904+287204467+287242543+287495175+287840426+288136745+288241331
2188+288100129+287876869+287821753+287951352+288034070+287935511+287779213
2178+287715308+287732818+287763268+287802021+287854305+287884877+287893961
2168+287946836+288050432+288100858+288053958+288041278+288176801+288358424
2158+288428496+288433898+288540812+288761570+288938138+288961710+288881859
2148+288815939+288856203+289053355+289379395+289672083+289720146+289493778
2138+289233797+289229264+289535049+289956347+290268455+290405489+290462898
2128+290550079+290662013+290735941+290803806+290974000+291269867+291616455
2118+291971051+292340134+292707758+293057143+293394542+293680422+293853812
2108+293962723+294130936+294394547+294696511+294988262+295225227+295357449
2098+295408899+295455452+295498356+295492659+295482480+295560472+295730735
2088+295925699+296100200+296233395+296315661+296384620+296503607+296670604
2078+296794280+296796295+296731330+296754468+296932443+297172847+297423534
2068+297784279+298255221+298571360+298539885+298356247+298319804+298430348
2058+298501670+298496459+298530679+298673948+298917132+299266447+299730302
2048+300219413+300582555+300792527+300966125+301130274+301151500+301004270
2038+300889974+300969981+301195447+301484279+301864479+302378534+302991912
2028+303638745+304278247+304885233+305448341+306052200+306903828+308072324
2018+309180059+309658053+309439987+309083480+309105158+309521488+310065281
2008+310548035+310935599+311274076+311653546+312184658+312909136+313689234
1998+314334712+314991411+316142502+317895090+319539460+320268246+320101666
1988+319637672+319299508+319226310+319440450+319807136+320117681+320333801
1978+320574414+320899863+321232225+321441502+321548780+321879614+322743609
1968+323821050+324238978+323557405+322304698+321263179+320681727+320384071
1958+320221034+320139220+320033644+319777780+319369788+318976769+318810223
1948+319028081+319852715+321458663+323264612+323789784+322220974+319638749
1938+317682374+316868231+316735626+316770853+316754004+316646343+316488170
1928+316486085+317147613+318793965+320762082+321987552+322540134+323142916
1918+323342118+322078920+319912017+318609597+318956133+320202587+321090623
1908+320967919+320153707+319408176+319145677+319267825+319586117+320157042
1898+321152357+322385122+323244567+323631993+324461943+326237667+327759891
1888+327561002+326054168+324740492+324308320+324524858+325002331+325483348
1878+325858232+326153804+326522991+327563781+330380087+335358050+340493179
1868+342209914+339550253+335406096+332629394+331732186+331852666+332179401
1858+332374851+332470526+332686473+333170685+334004596+335397411+337653805
1848+341127991+345904807+350514000+351753401+348621825+344354999+342036246
1838+341836558+342328101+342832533+344372161+348151091+353162370+356311004
1828+356369229+355330628+354414764+352729018+350149016+348157831+347599899
1818+347833668+348106346+348743416+350563296+353381131+355589861+355747374
1808+354302761+353021046+353397077+355921911+359764033+362867435+363537336
1798+362459721+362208860+364786429+369640508+373040801+371389413+366420552
1788+362727639+362292550+363975239+366024615+367831050+369161575+369606219
1778+369825014+371781667+376925759+384248461+389669295+389606797+385436516
1768+380467377+376579015+375196344+377064061+380415440+382169626+382064362
1758+381982652+382234486+382680589+385111067+391141979+398782904+403153707
1748+402247224+398860861+396226560+395628955+396902714+398821987+399838875
1738+400634779+404289686+411681625+417340363+415225189+408494604+402244514
1728+397777306+395402343+395280647+396712406+399581413+405544616+415761964
1718+427096531+432119204+428106888+420408433+414065413+411022077+411923906
1708+416524205+422807819+427925473+432055525+438385865+447448822+454155575
1698+454837635+451184396+444138193+435748195+430622064+430689217+434372333
1688+440389140+449971571+462546824+469744808+465229796+456326716+450882501
1678+450938815+455232738+460343931+463660326+466624731+470778476+472946942
1668+469660701+464644940+463589386+466906650+470167530+469872548+468215150
1658+469797509+477727196+492904754+509954130+514622520+507973089+505012644
1648+508646741+511166155+505773843+497181793+492484499+493488985+499727332
1638+510275583+521351368+524872593+518658321+511210310+508710282+510997977
1628+515147275+519240155+523536336+527474933+528946817+528770822+530960514
1618+536967664+542274480+541441785+537014772+534550977+535564600+538378162
1608+540970010+542814138+544556443+546655983+548861830+550784264+552559016
1598+554682944+557305572+559954117+562053657+563537909+564712624+565759007
1588+566732852+567830304+569249209+570918280+572828555+575727995+580955777
1578+588771932+595976204+597684949+595594962+595902554+600203911+604460453
1568+604879354+603356818+603324023+606434616+614870159+631533429+652629652
1558+660179661+649728405+637760103+631399678+629731371+630564864+632162717
1548+634705581+640540661+651529838+666931681+684064780+697478773+698235073
1538+688226273+680594346+680920837+685711340+688615991+688886967+691374663
1528+698567818+708526592+718753980+729338708+739866462+746899463+749290302
1518+750098644+750529704+749819886+749226310+751542180+758673705+771141714
1508+786072546+792654754+783477154+770458161+764247536+765371321+770712044
1498+776051794+777474208+775089900+773662622+777188433+785110513+792045962
1488+792429011+787268452+781815309+779357420+779852750+781802941+784649993
1478+789230316+796131164+804425661+811218467+812391027+807548274+802222976
1468+801232386+804583870+808396289+809221028+809177603+813107029+822465001
1458+832430376+833572504+824803105+814970369+808912047+806738543+807031545
1448+807374155+805964387+803538112+801792472+801197437+801856047+804543918
1438+809014322+812105530+810963055+807820362+806181167+806360428+806642868
1428+806248147+806109810+806991940+808744528+811561842+815978676+820353822
1418+820578246+815740148+809718720+805692299+804009262+803475509+803215234
1408+803605369+805011038+806321171+806446862+806615006+808790038+812969248
1398+817568192+821063779+821910265+819143812+814833422+812726551+814060029
1388+816482552+816786323+815062500+814608929+817674984+823442390+829612993
1378+834932941+839742204+844252491+847384900+848265988+847803106+847403105
1368+847714449+849358646+853008689+857698723+860400211+859153793+855705592
1358+853064343+852217162+852133854+851844605+851610107+851950216+852626544
1348+853084006+853245966+853473308+854072859+855020788+855993313+856536376
1338+856181467+854720769+852704571+851243456+850891813+851194055+851655617
1328+852551365+854338832+856795887+859203819+861214667+863158744+865367961
1318+867612404+869521254+871141133+872681943+873994716+874734271+875069794
1308+875807821+877490928+879633929+881329055+882359805+883179194+884168881
1298+885410783+886682076+887519252+887784253+887834696+887811142+887292745
1288+885908545+883812374+881367826+878748116+876008065+873357158+871132517
1278+869441420+868042491+866758969+865783318+865308346+865075237+864652793
1268+864076240+863806863+864085551+864740339+865626638+866821294+868310409
1258+869739702+870617316+870908511+871372504+872953405+875705615+878558364
1248+880282950+880630980+880501537+880960528+882230501+883885677+885706842
1238+887680657+889473821+890718225+891571937+892466366+893678530+895539230
1228+898409141+901872350+904588430+905653503+905746886+906238672+907476683
1218+908747837+909627188+910650921+912620150+915558013+918655474+921429987
1208+924414055+927986696+931285999+933271834+934066627+934459194+934920061
1198+935655865+937012689+939411449+943027168+947228056+950345041+951105093
1188+950588364+951433947+954733597+958886265+961901183+963794052+965700957
1178+967539701+968280646+968335883+969734187+973345390+977441362+979936631
1168+980850028+981338410+981956026+982997267+984810790+986767165+987376582
1158+986384881+985510046+986433031+988975964+991691072+994000757+996747687
1148+1000442406+1004126911+1006518863+1007511954+1007764934+1007518068
1140+1006708754+1005958916+1006514763+1008897196+1012289881+1015459533
1131+1017503315+1017997255+1017418340+1017273541+1018495433+1019933272
1123+1019949044+1018980688+1018773844+1019829120+1021291069+1023122170
1114+1026412927+1030876731+1033401043+1031538676+1027949290+1027947900
1105+1032845960+1038339124+1040065865+1038496012+1036430691+1034699364
1097+1032609377+1030357499+1029756281+1033028208+1040022578+1046791621
1088+1049303149+1048564288+1048330415+1048969293+1047684034+1043696592
1080+1039475485+1037487148+1038198911+1040422093+1042764505+1044909034
1071+1047752959+1051469704+1054466834+1055899809+1057093353+1059554090
1063+1063761787+1069254326+1073741823+1073601333+1068144785+1061235043
1054+1056813762+1055560881+1055999167+1056988020+1058940782+1062749103
1045+1067536062+1070435433+1069352364+1065306557+1061481909+1060083188
1037+1060726234+1061779010+1062175815+1061507061+1059668178+1057079387
1028+1054580435+1052959306+1053048936+1055644328+1060362988+1065352832
1020+1068774769+1069991936+1069341038+1067717338+1066193551+1065176559
1011+1064142265+1062447069+1060324912+1059013668+1060007176+1063526803
1003+1066944640+1066981882+1064220292+1061808886+1060448310+1058701976
994+1056741363+1056161266+1057370860+1058892840+1058291969+1053927176
985+1047071768+1041432068+1039040951+1038070163+1036164301+1034282687
977+1034913921+1037821977+1040003610+1039433171+1036671789+1033025360
968+1029387893+1026337262+1023873884+1021893052+1021023289+1021697810
960+1022965351+1023183939+1020828465+1015029376+1007340683+1001398047+999130884
950+999125742+999479539+999974382+1000528145+999900732+997089603+992589321
940+988005038+984838860+983376633+982592193+981373706+979821363+978998500
930+979338609+979475069+977461720+973663335+970921756+971032856+972463747
920+972494457+970770287+969463142+970123281+971933676+973095259+972507103
910+970006622+966294533+963215762+962952499+965918710+969795331+971425632
900+969724182+966208932+963335686+962942007+964807918+966360748+965315477
890+962251784+959208518+957128050+955791306+954620621+952995670+951259827
880+950904016+952371245+954106045+954998598+955907200+957540350+958860349
870+958776694+957653812+956126829+954166285+951962141+950092131+948834317
860+948937635+951723196+956527734+960059590+960198760+958233700+955904282
850+953357944+950697588+948652833+947549128+947281904+947842059+949375782
840+951811715+954420794+955473361+953104199+948179112+944692557+945407725
830+948257139+948844461+946119905+942835193+941076699+940690385+941195581
820+942909051+946216830+950688277+954968165+957427999+956964283+953646151
810+949397738+947099239+948163895+951714441+956160944+960184308+962046259
800+960614743+957453499+955412287+955411940+955921374+955243101+953616621
790+952953148+954892153+959141886+963862144+967896972+970961290+971609200
780+968083250+961789179+956891189+955878018+957664165+960177221+962637959
770+964664788+965226750+963525786+960440137+958034359+957279796+957264024
760+957071562+957902068+961499374+966867056+970860543+971513456+969125673
750+964915127+960533172+958022339+958368771+960460287+962188695+962238930
740+960920876+960089953+961717614+965321452+967555195+966096651+962934434
730+961571496+962657483+964189468+964669860+964494768+964298970+963826222
720+963399887+964576060+967969024+971668746+972927671+971353580+968714068
710+966221717+963770359+961036075+958198473+955196827+951683175+948196690
700+945711287+943916316+942054505+941271732+942889874+944932058+943847113
690+939697711+936694744+938121952+942213963+943449821+938964478+932144853
680+927777836+926967341+927697447+927552579+925421668+920530626+911280418
670+898130592+888486358+890936117+900681377+908630067+913500682+916381362
660+915384102+910125436+905636967+905872090+908364997+908889509+907927962
650+908371945+908891524+905789477+900321743+897385131+898629813+900997584
640+900881690+897989754+893862030+889506964+885681203+882470905+879399708
630+876155712+872420972+868198823+863961736+860821752+860846904+864830386
620+870229960+873607568+874397010+874293970+873870275+871676970+865503379
610+855980042+849088504+851583287+862746931+871690449+868122394+858362752
600+856587583
##END=
