##TITLE=<SNM>
##JCAMP-DX=4.24
##DATA TYPE=INFRARED SPECTRUM
##DATE=3/5/2025
##SAMPLING PROCEDURE=Instrument type and / or accessory
##ORIGIN=Admin
##XUNITS=1/CM
##YUNITS=ABSORBANCE
##RESOLUTION=4
##FIRSTX=4497.3318
##LASTX=599.83466
##DELTAX=-1.4281778
##MAXY=1.7636659
##MINY=0.20019388
##XFACTOR=1
##YFACTOR=1.6425419e-09
##NPOINTS=2730
##FIRSTY=0.21957174
##XYDATA=(X++(Y..Y))
4497+133678016+133919295+134687785+135552303+136037365+135616442+134150976
4487+132186277+130671315+130380539+131375802+132825011+133544739+132998839
4477+131765318+130955641+131289382+132690364+134370628+135254695+134823947
4467+133586579+132427421+131800572+131753878+132130947+132521996+132575902
4457+132406437+132244483+131966463+131395878+130775262+130619341+131182432
4447+132156013+132951411+133233052+132982728+132248874+131258201+130564492
4437+130608291+131253048+132012158+132521733+132654992+132403216+131818298
4427+131027128+130239396+129671361+129404363+129318043+129183350+128915481
4417+128748647+128967890+129469001+129871100+130026966+130044647+129882539
4407+129349323+128512965+127801846+127635565+128074524+128772933+129196224
4397+129004795+128338247+127665394+127334456+127356782+127597000+128017896
4387+128606706+129071474+128859715+127755162+126281794+125184108+124691216
4377+124591297+124642000+124505929+123834700+122922881+122681176+123503209
4367+124654774+125144291+124799409+124140509+123536249+122964386+122460825
4357+122290635+122566632+123034322+123373715+123512744+123567085+123600833
4347+123533863+123303253+123026112+122857944+122776014+122687118+122611131
4337+122574398+122527750+122473173+122445176+122374796+122216344+122148676
4327+122423594+123005482+123459046+123338080+122768213+122410349+122667368
4317+123250907+123724430+124003694+124100165+123893360+123471865+123295768
4307+123643698+124175418+124376943+124217439+124075644+124175672+124323981
4297+124099431+123280872+122256025+121880534+122681829+124285089+125733600
4287+126233604+125624490+124383258+123241381+122649151+122554031+122684614
4277+122905327+123165494+123336320+123443406+123821283+124568708+125109400
4267+124857198+124089760+123587152+123638110+123948663+124388955+125225231
4257+126451477+127417964+127553246+127099727+126718466+126787767+127359105
4247+128215512+128787783+128627417+127951816+127237286+126623727+126142929
4237+125988949+126222499+126642506+127020292+127182463+127104136+127119068
4227+127664859+128690513+129637858+130069623+130098154+130136901+130318976
4217+130283867+129687809+128734467+127911137+127460330+127378238+127546832
4207+127666927+127536544+127466499+127872590+128567651+129056887+129324339
4197+129739320+130366994+130882484+131049681+130937950+130711830+130447490
4187+130186606+129993545+129881560+129758779+129531271+129245603+129095152
4177+129294528+129903042+130713890+131402791+131866199+132269041+132623213
4167+132568409+131895211+131085779+130875762+131371239+132020668+132378377
4157+132493800+132587433+132725327+132851782+132903257+132844987+132687397
4147+132486253+132300675+132143158+131999430+131906397+131948572+132153446
4137+132481934+132891871+133278312+133473768+133509694+133665814+134011920
4127+134167913+133756307+132860618+131925938+131411446+131486526+131921529
4117+132418267+133015804+133884721+134854202+135491919+135565466+135196979
4107+134676218+134279009+134197842+134497980+135007338+135319633+135158060
4097+134699171+134337469+134263451+134422928+134620144+134572661+134227662
4087+133978962+134107476+134251358+134008672+133681046+133760099+134087644
4077+134215015+134225748+134493054+134924211+135049359+134630142+133825762
4067+132979970+132412025+132239993+132312950+132341128+132113901+131698920
4057+131449757+131619676+132015814+132310455+132535060+132908419+133361239
4047+133631177+133679558+133661586+133606274+133442724+133228960+133084071
4037+132996517+132880803+132698982+132485627+132440530+132861498+133710267
4027+134503351+134924837+135193350+135506026+135567226+135113979+134538768
4017+134471980+134878769+135068030+134637399+133982726+133734988+134051139
4007+134589572+134929019+134951046+134930407+135226445+135848141+136427561
3997+136647286+136521756+136247609+136011210+135990018+136270489+136676035
3987+136927738+137000758+137050273+137074323+136964697+136799958+136855615
3977+137360690+138256878+139129379+139533628+139452270+139162292+138752065
3967+138267692+138154328+138819035+139831571+140278277+139925730+139365034
3957+139059851+138966029+139053238+139658223+141112176+143006812+144112790
3947+143762855+143072248+143564251+144925652+145374226+144196162+142528318
3937+141770605+142546072+144652058+147057729+148315654+147856492+146701380
3927+146274551+146811306+147267501+146920152+146534029+147206192+148699382
3917+149536484+148611538+146352171+144142583+143076521+143506843+145567660
3907+149679931+155909002+162744945+167540864+168876501+166995509+162361507
3897+156327058+151859636+151452239+154689088+157970054+158239057+157260096
3887+158260866+160769441+162123185+162558914+163774310+164136628+161614136
3878+158800071+159191945+162553344+166732421+170566744+172741686+171662969
3868+169111937+168468949+169477213+168819438+165211353+161233184+159935633
3858+162892383+170656575+181659021+188495636+183896270+173264415+164474252
3848+160362562+161071249+165241708+170664866+175831759+180509779+184011467
3838+184382312+181173850+176700858+172868712+169794879+167483947+166665506
3828+167495214+169301470+172522905+178427516+185141295+187426172+184950529
3818+182440484+180405342+175979433+170068998+166535359+167515318+172640080
3808+179051380+183220931+185715445+189491706+193399748+193434186+190469125
3798+188220681+186718192+184554644+182775677+183262554+186041983+189955050
3788+194383808+199265113+204305596+209597991+216294188+224971678+233973727
3778+241421795+248315745+257138913+269058630+283340519+297326642+307549294
3768+312807288+314351236+313866210+313835220+316967822+323593694+331116098
3758+337169816+343005442+352136315+366977983+386295419+403907281+414891347
3748+422775253+432916820+445101549+453942770+458425325+464258919+475617515
3738+492680374+512072056+528081546+537076338+540634454+543009652+547734103
3728+556183884+566525036+574320870+576890282+575299995+571097076+565065312
3718+558659346+554089519+553206341+556063045+559408513+558518295+552757421
3708+545747477+541338805+541515202+544987678+547824496+548096511+548087875
3698+549778608+552558055+555950189+561403884+570441133+581159644+587221744
3688+584834462+578707660+574622932+573840525+575040934+577183635+580913538
3678+586794017+591225260+589153067+584074445+582282687+582503318+578998437
3668+571573321+565361641+562594713+561633769+560435211+559348420+560341624
3658+563574744+566237090+566834065+568395794+574592378+584772192+591391314
3648+587111030+576062298+566740151+562133855+560281967+558649476+557200422
3638+557453930+559852860+563275114+566886573+571637804+578438984+584222573
3628+583549974+577543612+572595192+573271093+580710507+591908238+600378812
3618+602592093+602256538+603806146+607271365+610682043+613371277+614980362
3608+614299090+611678222+609696096+610243538+612893872+615862089+618137132
3598+620258822+622950960+625867141+627907545+628948141+630462369+633112340
3588+634492883+631955405+627163930+623649941+622643528+623310865+624861671
3578+627222935+629994108+631943938+632382297+632934239+636740057+644912707
3568+653475671+655815742+650675975+642824475+636336098+632272562+629998898
3558+628387491+626937566+626144164+626124060+625757406+624726244+624712818
3548+626555162+628111629+626876747+623255852+619346468+616116033+613186426
3538+610375771+608599435+609184870+612462842+617326748+621883003+623990032
3528+622318895+617962006+613718627+611222734+609794437+608152257+606031838
3518+603993139+602716235+602521114+602749583+601788748+598796690+595294493
3508+593929264+595599603+598449086+599831842+598927435+596969368+595130435
3498+593429796+591643044+590178495+589736869+590231076+590632023+590191196
3488+589281491+588463050+587387617+585564288+583538761+582314947+581939765
3478+581383070+579813031+577691051+576343058+576361456+576836540+576560061
3468+575589573+574958633+575034148+574954169+573995258+572747384+572367666
3458+573093754+573968441+573788597+572131068+569876128+568625533+568989139
3448+569699732+569408012+568570521+568071850+567437608+565951503+564101030
3438+562628316+561369266+559947790+558590363+557707620+557395252+557506874
3428+557723078+557536993+556533955+554767634+552650335+550601911+549082422
3418+548692942+549608635+550954994+551444955+550891490+550259279+549810070
3408+548562813+546319594+544485669+543860571+543468624+542505902+541656979
3398+541459318+541037723+539662987+538177717+537731446+538188059+538586248
3388+538392651+537679264+536773732+536214678+536291101+536251293+534973700
3378+532821927+531567159+531981060+532817645+532739299+532083864+531983056
3368+532687153+533526641+533885602+533590036+532698765+531386372+530127213
3358+529561083+529814083+530184511+529800185+528718293+528075849+528714265
3348+529903678+530107653+529010702+527913895+528007228+529182816+530503157
3338+531011298+530245620+528637007+527217528+526519092+526080514+525294442
3328+524280881+523557370+523277770+523195215+523147242+523194054+523294826
3318+523195614+522861510+522752537+523145573+523381373+522653652+521469065
3308+521107164+521631418+521664585+520283244+518075334+516134213+515056349
3298+515095867+516255560+517933339+519293814+520177537+520989192+521856549
3288+522457914+522393721+521527235+520365835+519851743+520300227+520995905
3278+521255510+521194836+521036511+520588644+519915646+519624652+519995117
3268+520542631+520638939+519987823+518654056+517256457+516726434+517301926
3258+518281196+519047636+519492600+519291745+518005261+516095748+514686030
3248+514167945+513813447+512833271+511352210+510187182+509904244+510343910
3238+510927495+511051963+510333423+508925555+507483396+506533991+506018266
3228+505545723+504912424+504300934+504045538+504077907+503670247+502174018
3218+500054034+498503881+497940944+497713128+497394047+497266604+497167247
3208+496176402+494125147+492222891+491562956+491874090+492187002+492090149
3198+491731260+491036127+489824940+488457352+487390193+486479545+485598689
3188+485169074+485202423+484725344+482948935+480264345+477709594+476105916
3178+475635623+475740386+475566458+474681827+473223302+471497043+469713957
3168+468062524+466826625+466251605+466233461+466329878+466206209+465882338
3158+465500878+465056277+464395725+463422480+462205632+460798708+459088960
3148+457046487+455022340+453565738+452981137+453039307+453067938+452546080
3138+451615545+450814668+450442135+450345209+450110026+449343478+447999223
3128+446518924+445526374+445287671+445439427+445366234+444872572+444181393
3118+443370682+442320832+441156095+440234052+439622888+438860259+437443573
3108+435590016+434184979+433793322+434094004+434390696+434203993+433370239
3098+432103060+430884435+430010292+429502296+429364619+429416946+429170151
3088+428447039+427733906+427491793+427595359+427709702+427696965+427379445
3078+426426557+424924413+423631869+423133090+423089290+422849244+422422098
3068+422266821+422446665+422558831+422304307+421653263+420565528+419036277
3058+417437571+416343559+415874499+415572692+414996837+414071455+412864406
3048+411487020+410297498+409789029+410017644+410333060+410043227+409299395
3038+408795680+408642327+408261810+407363463+406234796+405088820+403864098
3028+402631066+401657675+401109835+400895009+400708344+400186558+399174266
3018+397913692+396896502+396468230+396540516+396653226+396340641+395481812
3008+394349842+393364295+392718477+392218935+391579939+390815676+390161330
2998+389654314+389053565+388203735+387223087+386311749+385625433+385270173
2988+385103066+384630523+383528020+382239431+381584141+381690030+381753461
2978+381083838+379958509+379052723+378475235+377880800+377149669+376415307
2968+375690018+374894511+374070446+373295224+372532921+371741043+371054909
2958+370725740+370797373+370909539+370582112+369712287+368645455+367726678
2948+366960165+366224679+365619539+365310402+365170620+364945380+364651556
2938+364409260+364016152+363136602+361851352+360669813+360014414+359884394
2928+359966333+359878625+359305382+358142749+356663721+355400679+354772279
2918+354834295+355227621+355322732+354725721+353699749+352813849+352317610
2908+352126589+352111276+352072121+351721397+350988705+350150850+349476908
2898+348878954+348067408+347012333+346061114+345521692+345305996+345120238
2888+344829026+344460158+343984385+343298977+342440909+341670187+341254580
2878+341221667+341352014+341322330+340870798+340003513+339045835+338349468
2868+338006183+337915898+337933534+337849781+337482183+336921787+336464195
2858+336196715+335878687+335302251+334548077+333855047+333450653+333421187
2848+333506791+333234304+332501104+331720258+331227357+330922755+330549024
2838+329961194+329184521+328488589+328216029+328325256+328337703+327869406
2828+327005351+326115895+325493192+325173421+324968684+324614404+323964920
2818+323162664+322571858+322383741+322327132+321946143+321123784+320179786
2808+319485523+319099781+318799207+318398986+317908807+317372869+316786454
2798+316236981+315870616+315634962+315277742+314650177+313849553+313062393
2788+312407321+311891668+311391582+310725188+309862150+308983979+308232344
2778+307547698+306874445+306305122+305861464+305371467+304693352+303849873
2768+302932438+302087398+301512940+301244572+301041014+300625008+299944407
2758+299148629+298426859+297866826+297368337+296705227+295746315+294643322
2748+293769632+293397390+293413375+293439484+293238920+292866604+292412659
2738+291822270+291067080+290302745+289708600+289269406+288816803+288233890
2728+287568549+286968018+286512167+286103455+285549971+284786326+283993776
2718+283462755+283306826+283305193+283062407+282364915+281380093+280476376
2708+279856195+279411321+278937200+278407340+277982225+277778395+277686895
2698+277466300+277017163+276492601+276087263+275795725+275455216+274978573
2688+274475747+274118092+273891509+273591063+273099940+272505451+271909329
2678+271346665+270889018+270586539+270333375+269978587+269526420+269137303
2668+268960235+268942291+268818984+268410907+267840749+267305918+266818950
2658+266336355+265913980+265578008+265239694+264840163+264418895+263984381
2648+263464882+262853047+262278063+261842388+261494586+261170533+260938526
2638+260877961+260914176+260872046+260633615+260228840+259811945+259511970
2628+259287093+259015168+258728456+258613677+258721217+258801069+258561858
2618+258047021+257610930+257499906+257566858+257462548+257060512+256577990
2608+256256297+256085797+255938504+255798704+255739101+255789560+255896954
2598+255936381+255803639+255547663+255304697+255118575+254976471+254929878
2588+255010346+255123529+255137028+254991404+254719570+254435435+254251091
2578+254140830+253949501+253566626+253046346+252558217+252259730+252214969
2568+252389605+252666610+252899634+253051390+253279497+253771726+254464574
2558+255024335+255176836+254978903+254665701+254324829+253878776+253317418
2548+252761195+252325466+252048770+251915320+251850818+251719002+251403151
2538+250919739+250410128+249991110+249684966+249514974+249522831+249634253
2528+249661324+249522613+249373905+249448422+249747980+249950032+249749032
2518+249246588+248812782+248633066+248625355+248707348+248871841+249039619
2508+249060993+248892471+248641575+248391387+248085661+247678908+247310004
2498+247194481+247370478+247629411+247701951+247503092+247175974+246876942
2488+246597506+246251463+245833316+245417055+245065188+244789018+244577677
2478+244434992+244350550+244259376+244099962+243871184+243574602+243191219
2468+242761949+242391866+242161908+242083962+242071261+241934981+241537155
2458+240976940+240524827+240348177+240342226+240259417+240001027+239707475
2448+239535706+239463329+239371829+239208406+239003868+238798587+238590710
2438+238365416+238173906+238131848+238286308+238499337+238521255+238241982
2428+237845717+237587237+237451211+237243553+236962157+236804304+236850862
2418+236991006+237095098+237087496+236957476+236823047+236862238+237107709
2408+237407158+237611514+237711306+237775590+237838169+237894506+237975664
2398+238141319+238371168+238556418+238660257+238785214+239011724+239298164
2388+239619930+240073204+240766596+241705078+242779731+243784256+244536925
2378+245134063+245995904+247492278+249553567+251753276+253715752+255375785
2368+256962516+258813878+260983976+262879338+263643401+263222840+262681332
2358+263094036+264493666+266254997+268198658+270759216+274069139+277543412
2348+280508418+282850884+285003564+287155446+288618380+288508881+286673885
2338+283673788+280291742+277107847+274280136+271704283+269368512+267374556
2328+265617943+263726646+261472831+259123742+257168052+255709526+254413444
2318+253045258+251704233+250530459+249519238+248664727+248041498+247657425
2308+247358956+246949228+246314713+245430282+244388834+243441697+242813551
2298+242452340+242139283+241810658+241572990+241471401+241423138+241310101
2288+241048537+240664228+240299061+240050543+239883218+239770526+239744634
2278+239723261+239513425+239089290+238644671+238307863+238020970+237727799
2268+237473764+237297223+237175894+237105096+237128048+237239743+237315730
2258+237227459+237011835+236803433+236618346+236367868+236068818+235864643
2248+235819737+235823511+235740502+235583247+235472115+235469630+235532771
2238+235586114+235572797+235514391+235564922+235879703+236407367+236941364
2228+237369436+237748338+238156923+238612302+239166366+239946414+240959467
2218+241968675+242768028+243481360+244390104+245579826+246917875+248270693
2208+249626143+251030309+252461655+253849800+255219619+256677292+258255224
2198+259905350+261593198+263297303+264979745+266587668+268059185+269381286
2188+270619162+271819752+272945081+273905626+274593919+274975325+275193325
2178+275457684+275831451+276184515+276291910+276034137+275557839+275076714
2168+274558103+273849161+272977432+272065948+271089528+269905848+268498053
2158+267070154+265797115+264601424+263382490+262247635+261324957+260658963
2148+260285014+260138410+260349335+261847832+265782581+272124427+279719879
2138+287657327+295735556+303938815+312278099+320813376+329464084+338142626
2128+347008015+356254029+365811612+375410201+384797085+393814194+402204427
2118+409477605+415244720+419563470+422836217+425682833+428931594+433443759
2108+439920341+448761599+459829708+472274115+484515309+494586622+501175008
2098+504397532+505178415+504333085+502324577+499113230+494305934+487649871
2088+478929598+467883696+454659133+439536051+422527115+404148632+385678050
2078+368180024+352210887+338156270+326073764+315776703+307265231+300468244
2068+294964779+290431313+286714056+283456169+280392877+277646270+275322892
2058+273422886+272059181+271209478+270708104+270701173+271510995+273247796
2048+276034972+280175747+285983269+293882543+304368538+317582287+333421079
2038+351919203+372814843+394998963+416783951+436368721+452310897+464192004
2028+472530744+478085647+481600798+483569352+484063813+483240655+481377989
2018+478169653+473013738+466009382+457837132+448961473+439365352+428733679
2008+416888424+404139887+391060730+378129700+365749995+354220918+343534486
1998+333587314+324687887+317358390+311415786+305790630+299720583+293624625
1988+288301205+283973582+280466179+277601854+275195557+273100811+271275050
1978+269629387+268042910+266545411+265245954+264240539+263706070+263704328
1968+263794795+263298664+262105241+260801538+259893756+259318046+258830426
1958+258481153+258423002+258548976+258626559+258602936+258611972+258831460
1948+259432027+260569023+262191697+263632133+263752918+262202511+260071604
1938+258601376+257984751+257767567+257664545+257667666+257808917+258066472
1928+258481063+259337896+260840748+262501996+263613935+264373408+265331902
1918+265931145+265154580+263473772+262484106+262987766+264398446+265521725
1908+265645431+265055097+264514477+264401821+264572466+264856256+265376500
1898+266344284+267567083+268416532+268742852+269324803+270541270+271326180
1888+270620468+269054494+267858820+267318891+267137759+267196999+267438260
1878+267667655+267752188+267852797+268644820+271122477+275428798+279578482
1868+280451645+277435999+273243713+270461581+269555668+269663062+269912416
1858+269964743+269907154+269947016+270190019+270742287+271828516+273673582
1848+276535983+280490601+284230701+284944814+281878256+278004669+276020693
1838+275934545+276365212+276781454+278274072+281925267+286605355+289392314
1828+289324509+288302910+287321736+285524025+282950404+281135566+280920378
1818+281613897+282257466+282937449+284468043+286916652+288986831+289390227
1808+288485276+287799649+288580949+291176633+294841872+297852873+298819478
1798+298349711+298644370+301426647+306177207+309526267+308264713+304036865
1788+301025537+300967767+302806627+305068063+307292085+309156456+310075160
1778+310567263+312572686+317669161+325052510+330790340+331255154+327670257
1768+323328138+320153804+319482910+321899767+325626695+327752885+328137865
1758+328694741+329792273+331182904+334269747+340366285+347696580+352136206
1748+352129492+350092572+348749115+349248076+351489008+354260218+355963144
1738+357216896+360993756+368107630+373435623+371530065+365433708+359808008
1728+355831237+353854917+354083241+355836934+358941776+364921902+374889975
1718+385885291+390770970+386881435+379504582+373719323+371371776+372840934
1708+377697618+383985031+389071890+393236779+399540449+408418502+414990377
1698+415871996+412824489+406886929+399914978+395990244+396786658+400857778
1688+407153610+416887626+429209233+435833400+431250618+423106382+418837673
1678+419982742+424926735+430326869+434055975+437799269+442938165+446222741
1668+444283000+440715449+440866770+444963365+448837332+449535623+449364742
1658+452549563+461813867+477920137+495903661+502402270+497947113+496550604
1648+501400357+505756048+503168783+497331233+494695341+497322378+505139913
1638+517438624+530669247+536916090+533537056+528681279+528941392+534671710
1628+542980186+551488900+560279753+569360257+576970588+583060811+590769555
1618+601929618+612958682+618105852+618383020+618588120+620340688+622459547
1608+623627224+623954543+624680304+626875005+630637423+635429405+640949036
1598+647441549+655098690+663284186+670768452+676970951+682365532+687547103
1588+692677436+697652310+702103330+705639237+708654920+712617430+719231000
1578+728902056+738774365+744152835+746227641+751058016+761278909+773953599
1568+784261003+792077885+800779179+812538032+828957286+852739822+881987194
1558+900008856+898594566+892026936+887732463+885137722+883451271+882467720
1548+882235912+883820684+888313943+895477930+903538087+906889942+897666680
1538+880794115+868357039+862608358+858853343+853038473+846952168+844661521
1528+846767535+850680185+854366543+858005001+860779513+860357700+857622380
1518+855255310+852657448+848614306+845357018+846409372+853203221+864470443
1508+874983600+874333100+860278665+846028129+839240812+838996594+842266583
1498+845065698+843540729+838282517+834451805+835573179+840537384+844595550
1488+843506908+838211175+832816521+829980029+829723472+830828226+832634645
1478+835416560+839631417+845208527+850172660+850294588+844548012+838251963
1468+836212211+838542920+841750058+842370366+841584875+843524617+849918136
1458+857039956+856893280+848510595+839661826+834319136+831808584+830504028
1448+828993139+826506319+823533529+821253478+820258968+820633969+822692299
1438+826080515+828023305+825749640+821262768+818147729+816801225+815437374
1428+813614045+812806055+813540598+814795656+816496623+819744040+823237491
1418+822655213+817060031+810490660+805972434+803722067+802828365+802598226
1408+802923004+803614582+803687666+802467952+801133060+801398979+803462753
1398+806307373+808852545+809648196+807191060+802449590+798654876+797527842
1388+797634892+796709764+795282337+796158113+800649268+807415247+814261932
1378+820087035+824999131+828979567+831415947+832555029+833925193+836127588
1368+838089392+839364046+841104059+843626586+845135589+844360476+842522413
1358+841156458+840216888+839105966+838179314+838339635+839436477+840203462
1348+839982830+839478136+839670172+841052094+843826969+847702533+851492167
1338+853956706+855084466+855756956+856680414+858235865+860641981+863761737
1328+867126801+870353607+873347226+876291639+879678548+884059241+889551148
1318+895630921+901410591+906212662+910020367+913274752+916354011+919656732
1308+923726291+928341841+931873177+932853027+932046924+931810471+933570441
1298+936474647+938373963+937964489+935860218+933395751+930944783+928172666
1288+925297491+922899359+920886679+918830525+916933313+915588623+914590266
1278+913712458+913295509+913454523+913552283+913108843+912458416+912221455
1268+912852940+914590121+917134422+919557375+921164137+922287107+923747846
1258+925880568+928327979+930293485+930896230+929880455+928194367+927216331
1248+927252909+927386377+926679776+924973875+922531471+919507515+915964132
1238+912116074+908349447+904897147+901666059+898645442+896210804+894588220
1228+893285479+891692578+890154618+889707549+890617073+891815087+892250543
1218+892348376+893293607+895233566+897217289+898711268+900105528+901630424
1208+902844405+903558118+904441369+906294818+909166219+912422273+915315084
1198+917316588+918310009+918802148+919723647+921683419+924551917+927723348
1188+930543437+932689368+934356150+936014297+938081990+940772096+943837130
1178+946478537+948097347+949190561+950679895+952567817+954299918+955934985
1168+957770508+959349836+960109345+960679140+962298458+965125878+968253618
1158+971031468+973109322+973842486+973159835+972318968+972633658+974158845
1148+976359498+979287073+983063135+986707326+988635383+988245286+986417892
1138+984853587+985339412+988868425+994703761+1000488439+1003810610+1004055265
1128+1002474557+1000605722+999317642+999371856+1001881247+1006886821+1012144670
1118+1014977823+1014970783+1013752230+1013152607+1014325727+1017035501
1110+1019060592+1018189533+1015478090+1014351927+1016405613+1020109316
1101+1023304987+1025469279+1027076913+1027863420+1027362282+1026603353
1093+1027736412+1031944011+1038130834+1043649158+1046576225+1047320638
1084+1047544245+1047706670+1047456936+1047593016+1049175393+1051488756
1075+1052552431+1051579984+1049905073+1049066166+1049261178+1050128752
1067+1051729563+1053945022+1055730103+1056034125+1055295010+1055024591
1058+1055828952+1056748636+1056490919+1055503448+1055916334+1058875044
1050+1063117117+1066427313+1067762133+1067209974+1065585648+1064388142
1041+1064967154+1067379294+1070354696+1072666608+1073741823+1073038778
1033+1070678676+1068831469+1069502000+1071030743+1069726115+1064994733
1024+1059828476+1056679762+1055606216+1055579363+1055924244+1056301930
1015+1056359120+1056065405+1056049511+1057159345+1059137334+1060270610
1007+1059296421+1056991258+1054861440+1053349535+1052503370+1053014088
998+1054999262+1056944810+1057180319+1055467233+1052639668+1049561788
990+1046785099+1044584736+1042927026+1041524710+1039639691+1036536264
981+1032671950+1029422717+1027480436+1026503198+1025929847+1025363463
973+1024802523+1024588568+1024210810+1022016108+1017325805+1011432916
964+1005748973+1000732077+996482674+992878617+989365063+985588638+981979283
954+979041548+976713887+974858188+973550585+972666390+971611859+969800795
944+967466893+965525627+964301123+963072047+961385814+960056655+960158624
934+961524216+962926677+963478183+963339345+963145494+962963038+962052425
924+960043591+958056385+957629638+958528347+959012648+958467819+958060885
914+958554765+959171517+958897324+957828641+956963171+956976598+957137862
904+955815235+952717977+949762606+948718381+949246154+950151976+951134802
894+952336154+953401644+953715899+952810875+950681129+948382426+947408382
884+947704638+947654633+946374898+944544456+943078129+942301710+942109673
874+942133551+942221295+942560661+942744496+941661806+939254021+937139589
864+936489089+936466591+935683204+934300775+933594972+934229142+935718331
854+937274218+938541977+939228257+938884899+937621059+936426093+936459478
844+937476633+937597907+935827558+933664428+933412661+935685599+938679291
834+940147506+939601153+937786895+935563962+933882011+933367374+933732286
824+934380826+935277939+936507959+937575046+938316411+939881369+943732257
814+949467439+953915701+954159193+951758739+951079426+953828537+957490799
804+958868729+957455092+954895841+952901812+952386958+953061044+953458834
794+952607299+951268705+950781864+951536293+953464495+956652836+960456912
784+963231061+963842225+962612205+960020294+956364999+953071278+952032351
774+953115839+953754582+951950848+948894087+947277818+947698904+948320809
764+947794559+946794533+946518817+947295889+948940899+951119126+953146176
754+954212755+953968173+952649828+951128415+950903865+952785908+955461572
744+956105322+952978090+947472539+943568017+944494451+949435868+954260437
734+956330816+956864032+957046416+955561581+952324252+950146533+950311716
724+950652679+949108840+946436661+944806384+945468132+948092847+951016358
714+952322873+952099846+952293044+953107711+953329503+953509420+954518735
704+954685080+951718169+946793953+943484265+943303695+944439802+944042230
694+940035521+932444496+924843165+921625939+922398657+921524913+915762225
684+908997624+906144222+907146281+908691353+908545258+906048059+901090748
674+894812552+888680670+882580358+876788422+876354998+886022352+898143941
664+902534069+898973558+893695243+891295805+890488105+888173653+885104700
654+884138495+884629327+883136654+879694152+878283345+880991522+885380127
644+887171813+884182331+878500638+875428709+877897603+881836018+880252117
634+871544799+860617015+853002403+850761253+852195647+854467279+855815815
624+854743649+850756463+846224666+843826170+843628110+844660288+847873377
614+854549072+862119268+864660883+859122383+850504115+847194282+850832014
604+853673804+847947767+836623791+829659533
##END=
