##TITLE=<SNM>
##JCAMP-DX=4.24
##DATA TYPE=INFRARED SPECTRUM
##DATE=3/5/2025
##SAMPLING PROCEDURE=Instrument type and / or accessory
##ORIGIN=Admin
##XUNITS=1/CM
##YUNITS=ABSORBANCE
##RESOLUTION=4
##FIRSTX=4497.3318
##LASTX=599.83466
##DELTAX=-1.4281778
##MAXY=1.9699717
##MINY=0.43124568
##XFACTOR=1
##YFACTOR=1.8346791e-09
##NPOINTS=2730
##FIRSTY=0.45214227
##XYDATA=(X++(Y..Y))
4497+246442157+246653636+247352708+248064206+248317221+247957175+247116700
4487+246230255+245795357+245925357+246407200+247073037+247674824+247724628
4477+247011261+246009468+245446569+245715048+246722786+247873178+248289379
4467+247574469+246292729+245364050+245238972+245917235+247224430+248568027
4457+248934034+247858429+246123890+244915426+244701868+245242058+246075207
4447+246730453+246840782+246235291+244943837+243310465+242063941+241935858
4437+243111558+245094515+246918021+247540065+246547677+244595129+242791473
4427+241701102+241220266+241138413+241371302+241716858+241698730+240905297
4417+239668341+239201053+240432714+242637919+243972095+243571066+242321001
4407+241426677+241092264+240794140+240189673+239452411+238947389+238826632
4397+239023735+239450381+239922510+240064059+239712573+239272851+239121702
4387+238817763+237647342+235963013+235052381+235482909+236483922+237143326
4377+237394668+237556928+237606586+237241017+236420685+235725381+235987298
4367+237348081+238943052+239805651+239726218+239002651+237978847+237139834
4357+237074274+237876657+238876923+239284222+238925135+238257007+237891634
4347+238091271+238497498+238551607+238314771+238382069+238963357+239669365
4337+240060111+239869798+239074855+238120965+237590797+237573010+237822922
4327+238249941+238757449+239098295+239251767+239394193+239421093+239081385
4317+238506838+238070495+237852096+237729601+237859162+238603717+239942213
4307+241261769+241971416+242117920+242176560+242355876+242362147+241935745
4297+241359363+241104529+241168789+241232823+241249830+241274163+240974659
4287+240104344+239143485+238699767+238736251+239001449+239609993+240659186
4277+241818123+242676011+243112663+243231097+243269595+243520027+244083138
4267+244723667+245031537+244760573+244017578+243115831+242415654+242315982
4257+243021454+244219343+245305458+245933625+246141044+246126538+246083102
4247+246078700+246003149+245757331+245418207+245071254+244671199+244102062
4237+243314380+242554799+242312050+242786908+243633198+244462351+245314977
4227+246403382+247633954+248556689+248740407+248260384+247716425+247574762
4217+247677910+247572764+247055493+246313294+245708518+245402938+245218196
4207+245086052+245420822+246542008+247978634+248944528+249250595+249228292
4197+249089082+248793947+248309375+247764507+247384010+247281430+247350222
4187+247417683+247476486+247684700+248135468+248634952+248802637+248541614
4177+248274971+248495839+249235943+250144382+250839946+251021780+250593104
4167+249893431+249555005+249871989+250407111+250535811+250226512+249869861
4157+249599936+249382187+249502083+250239019+251212873+251686788+251471102
4147+251081005+250970157+250970043+250721853+250383752+250396423+250692451
4137+250824189+250794398+251042020+251670171+252321518+252705296+252764116
4127+252517225+252136955+251954195+252088337+252310050+252450056+252632995
4117+253008830+253667357+254727547+255926979+256340646+255270418+253273638
4107+251640769+251138882+251743821+253031295+254298123+254814695+254503284
4097+254046749+254037425+254343850+254494122+254327963+254050908+253963727
4087+254278615+254933731+255520655+255575023+255046203+254458678+254531483
4077+255547295+257001431+257910602+257691910+256786086+256178289+256310822
4067+256812417+257265801+257693648+258147990+258353833+258035826+257364092
4057+256865795+256854749+257067317+257046833+256781830+256614632+256716595
4047+257105246+257815526+258633666+259060231+258813648+258066186+257160816
4037+256422044+256157448+256532941+257479083+258772665+260029633+260698914
4027+260488458+259886476+259779575+260384270+261049571+261296462+261462799
4017+262001690+262673716+262844520+262287355+261362201+260591980+260366986
4007+260886498+261939216+262797998+262864419+262413927+262173063+262312306
3997+262418703+262244211+262017707+262138577+262701444+263217220+263117044
3987+262658203+262646816+263182507+263457207+262899002+261929665+261513334
3977+262196081+263540782+264557958+264729250+264283355+263604783+262959251
3967+262688660+263090014+264084806+265270854+266250815+266847746+267072610
3957+266974919+266638768+266288241+266244090+266743963+267709273+268600364
3947+268855588+268645522+268613700+268790352+268498076+267506776+266514129
3937+266330232+267108606+268303572+269180011+269408497+269207804+269011269
3927+269126162+269640086+270365067+270922817+271139690+271243488+271476036
3917+271597215+271067729+269909524+268905505+268637692+268895856+269470857
3907+270949051+273866957+277381550+279805171+280513177+279894025+278071298
3897+275506875+273609654+273398256+274304373+274618205+273625411+272909575
3887+274038753+276286907+277663804+277985888+278433439+278504490+277093188
3878+275468702+275700275+277900835+280828990+283511961+284860139+283890996
3868+281893842+281091849+281539985+281475465+280068679+278378827+277810811
3858+279346411+283663484+290046000+294085270+291691474+286108449+281736212
3848+279931808+280549660+282789433+285417986+287598826+289405504+290802056
3838+290940194+289558651+287723969+286295611+285329555+284846007+284915920
3828+285048048+284838437+285402587+288392405+292964182+295670219+295777299
3818+295807870+295711868+293157452+288678525+285393978+285370684+288611990
3808+292994558+295880870+297579591+300017474+302352565+302088862+300075692
3798+298613774+297291132+294900194+292182526+290669473+290885094+292635536
3788+295606543+299096900+302028824+304085398+306113383+308595481+310750915
3778+311976387+313104037+315378182+319475345+325278637+331437995+336226725
3768+339706231+343171800+347093465+351621221+357405280+364347171+370967595
3758+376450882+382180394+390073786+400898649+413690191+425617234+434807506
3748+442972009+451876909+459933618+463952096+465490944+469601655+479182138
3738+494375989+512143880+526533171+533777360+536059724+537919260+541717860
3728+546743882+550674188+552357705+553336042+555416819+558455985+561764606
3718+565763526+571400740+579270319+589075455+598728679+605308558+608877015
3708+612909008+620567417+632484778+645542006+653462201+653199700+649181741
3698+646723521+647399462+650814512+656488048+663746857+670415233+673285333
3688+672029031+669901926+669088952+669832272+672258394+676408188+681871917
3678+687914644+692324340+692152999+688730997+685811255+684159577+682598214
3668+681234312+680729257+680788320+680682215+680251492+680725034+683949771
3658+690284432+697877865+704956432+712163975+720150121+726645077+728055112
3648+724228961+719043262+715473635+713853860+713582262+714575608+716660349
3638+718460626+718679139+718347309+720472659+727471566+738292790+746107400
3628+744602371+738002089+733791738+733360431+734839599+737194183+740050639
3618+743178692+747551806+754363584+762240050+767220037+766716671+762295085
3608+757677922+755309368+755342700+756777360+758296554+759027074+759862205
3598+762327962+766011556+769288468+771107394+770723583+767534713+762764793
3588+760050504+760725275+761569762+760114115+757756737+757521331+760227043
3578+763600378+765313849+765246209+764225378+762762519+761538184+761347936
3568+762853679+766661182+771668198+774646677+773265102+768959692+766083159
3558+767960563+773399472+777111590+775678489+772128095+771519924+774943486
3548+779858172+783162049+782571031+778119556+773203181+771225974+772142325
3538+773652292+774287298+774810156+776572943+778915441+779453894+777209443
3528+773760476+770602989+767598454+764602172+763410390+766172306+771518559
3518+775161414+774652655+771754356+770020743+771027149+773409218+774197047
3508+771603547+767648745+766008697+767534453+770627809+774457858+778451191
3498+780509097+779517505+777772197+777536725+777684804+776556049+775437625
3488+776138386+777371232+776897691+775238215+774325113+775205662+778246388
3478+782527043+785227492+784192691+780752755+777858094+776181790+774670394
3468+773844294+774953882+776609004+776053203+773013647+769220894+765538729
3458+762245248+760169474+759538562+759354486+759484567+761680481+766204859
3448+769324205+767641208+763793876+763798229+769563380+776383799+778900692
3438+777651342+776227338+775491944+774116997+772227248+771858317+774178074
3428+777836912+780708312+781965069+781578399+779775198+778081740+778329167
3418+780248805+781647339+780802981+777790000+773803035+770446788+769191785
3408+770664846+774219918+778560935+782849646+786004209+785847943+781756303
3398+777242711+776791001+780840082+785320082+786120386+783444562+780222555
3388+777875248+776259306+775952881+777527758+779257668+778514607+775200984
3378+771433896+768613047+766907569+766712318+768617921+772379550+776926800
3368+780834754+782589679+781016946+776529149+771401278+767846531+766363204
3358+765878031+765656465+766289197+768118908+770208652+772186638+775005472
3348+778444239+780727155+781813156+783521558+785613511+785884849+784317769
3338+783405187+784768634+787423730+788662294+786809127+783098892+780147703
3328+779086262+779181451+779668118+780196824+779859731+777927683+775312482
3318+773456650+772516194+772670251+775538922+781276328+786022727+785927408
3308+782385136+779210365+777980443+778897508+781968903+785317873+786009472
3298+784129405+782542117+782912543+784322317+784839847+783450670+780711561
3288+777884799+776036310+776050409+777915013+780149782+781342213+781278992
3278+780602532+780440678+781506017+782593253+781423303+778194862+776191991
3268+777878367+782109380+785680956+786720175+785907916+784775392+783466264
3258+781139035+778110719+775979716+775895443+777061104+777432569+776104534
3248+774098414+772604106+771644547+771216098+772428022+775658672+778379458
3238+777403915+773701088+771347609+771263270+770554127+768371338+767495143
3228+769247729+771568071+772960237+774188990+775324957+775748468+776175097
3218+777367724+778856184+779510163+778200515+774412441+769001861+764341035
3208+763467114+767982265+775617347+780942939+781062364+778744751+777314379
3198+776274185+774268975+772619765+773350220+776081663+778495309+778901212
3188+777409113+775277785+773799071+773197333+772512555+770497274+767178907
3178+764791185+765644119+768977950+771302776+770304751+767172734+764446035
3168+763454118+763818501+764095687+763774383+763733188+764150332+764117844
3158+762909883+760837358+759239154+759019797+759771824+760598963+761006684
3148+760758153+759622705+757845234+756141965+754800154+753421633+751872616
3138+750750683+750443024+750549194+749986051+747879218+744550131+741309215
3128+739952396+742110039+747230112+751292189+750435032+745953668+742389759
3118+741991653+743563217+744962920+744899049+743215663+740968483+739482297
3108+738454969+736462364+733819158+732897480+735131664+738946574+741212856
3098+740723915+739487106+740007430+742069299+743302795+742641799+741303562
3088+740168244+738564583+736073225+733652171+732464808+732584168+733022298
3078+732696056+731273936+729467485+728397858+728232690+727963301+727066769
3068+726643583+727928409+730218798+731492968+730844837+728998882+727030382
3058+725650366+725358431+726224296+727175992+726421366+723519688+720355119
3048+719074970+719717449+720560312+720418925+719892493+720054217+720669730
3038+720413467+718503380+715318474+711731173+708774071+707367090+707268067
3028+706907388+705349469+703712020+703577651+704915433+706522408+707329469
3018+706579911+704392964+702530960+702709772+704230980+704999511+704320062
3008+702904439+701037757+699032611+698038615+698341076+698603317+697874747
2998+696755803+695910601+694982230+693519110+691899205+690828018+690405157
2988+689997760+689001815+687756753+687528364+689281730+692460853+695336217
2978+696518382+695710216+693315412+690152272+687277559+685426600+684664892
2968+684697574+685095290+685288592+684967678+684217210+683052328+681453800
2958+679759757+678596630+678209960+677953502+677027470+675701969+674931034
2948+674679513+673841459+672142868+670785723+670565261+670547588+669546640
2938+667978130+666889724+666028018+664346516+661884982+659908751+659528709
2928+660779813+662478209+662917119+661435026+659106822+657490945+657130136
2918+657256449+656496494+654184794+651154984+648736659+647275749+646211254
2908+645214919+644648462+644859113+645484827+645865324+645916070+646023280
2898+646293968+646459461+646138351+644854824+642483347+639770162+637613169
2888+636220158+635639147+636138484+637447806+638553170+638573053+637320844
2878+635168659+632661967+630127335+627835648+626380455+626117434+626473630
2868+626580320+626197744+625429343+624251011+622891658+622034500+622137811
2858+622750596+622776001+621658162+620176849+619568158+619913828+619904991
2848+618407240+615943172+614009434+613082298+612291741+611126859+610177111
2838+609821955+609487461+608635761+607481341+606508072+605940900+605598414
2828+604923058+603403800+601177152+599046994+597883607+598073140+599272589
2818+600498028+600709458+599653411+598070151+596832627+596005618+594984527
2808+593351302+591297749+589424699+588308419+587977109+587853720+587488622
2798+587045099+586797802+586629061+586282546+585633181+584554326+583052416
2788+581597159+580783015+580552547+580127022+578889303+577153091+575827330
2778+575392903+575408237+575031964+573919648+572462766+571109780+569796819
2768+568316416+566960961+566333167+566556813+567026976+566937569+565907122
2758+564246347+562695186+561690079+560939091+559969786+558875728+558098230
2748+557704478+557288050+556432387+554985771+553065224+551132201+549859850
2738+549458106+549350116+548930244+548231367+547440420+546452662+545349052
2728+544489783+543787527+542715040+541140455+539447322+537994794+536963144
2718+536364557+535875194+535037366+533723723+532174024+530741313+529689391
2708+529018876+528531657+528135078+527825730+527456571+526830856+525904467
2698+524796049+523814724+523330168+523252100+522853735+521542139+519647517
2688+518122735+517592860+517859714+518199374+518009645+517167465+515884132
2678+514439498+513109319+512131859+511591685+511378370+511271063+511045240
2668+510549542+509731272+508570841+507083486+505473392+504133953+503336313
2658+502994574+502792435+502488577+502077802+501643245+501185980+500710261
2648+500242892+499623058+498604664+497327439+496313658+495876080+495818707
2638+495700938+495223693+494506136+494013166+494000691+494137594+493879186
2628+493019170+491775180+490570924+489723675+489167029+488564641+487767813
2618+487009386+486625218+486702247+486959485+486925145+486301217+485202936
2608+484079346+483387096+483203540+483142431+482783408+482120788+481462131
2598+481037223+480820107+480585156+480085883+479294709+478464548+477898319
2588+477697057+477684777+477520778+476986874+476199663+475493834+475138352
2578+475141893+475229058+475117300+474891803+474838328+474897520+474711853
2568+474190554+473551129+472909366+472337841+472128262+472448104+472907157
2558+472890978+472241125+471371102+470790611+470662804+470784633+470906170
2548+470976473+471020462+470964615+470766147+470518168+470270774+469934785
2538+469482490+469052157+468772762+468652135+468656781+468753789+468867204
2528+468873929+468636768+468110824+467500671+467151330+467150030+467211335
2518+467047564+466654072+466199568+465864976+465791651+465986156+466275914
2508+466417041+466230041+465726383+465170355+464854801+464782256+464742069
2498+464645125+464566245+464541262+464527065+464463648+464252575+463819578
2488+463276675+462874931+462739165+462736111+462633839+462350059+462071866
2478+462111598+462519190+462889908+462742609+462080865+461379584+461018125
2468+460943565+460895094+460779567+460744480+460909681+461108733+460987521
2458+460398778+459644184+459246599+459444514+459926536+460133190+459806688
2448+459143840+458515721+458224501+458358221+458641611+458605615+458083829
2438+457364939+456816123+456573342+456549334+456534292+456369806+456126180
2428+455984761+455962832+455943339+455906758+455936484+456069164+456251193
2418+456339203+456144763+455666056+455219836+455112237+455271524+455445172
2408+455595915+455791264+455858741+455558586+455058632+454857143+455183742
2398+455732493+456042329+455949707+455588313+455137057+454729466+454479147
2388+454385940+454226263+453699733+452713827+451367046+449611764+447201528
2378+444156579+440993894+438167424+435514278+432631702+429552771+426629878
2368+424081212+422117131+421086911+421022163+421449604+422030518+423041895
2358+425053343+428428369+433249457+439455013+446619250+453614940+458993779
2348+461697964+461437639+458930948+455688830+452871068+450536723+448124896
2338+445172634+441678509+437987182+434441954+431330047+429011394+427751973
2328+427422157+427575889+427816039+427948329+427912235+427874355+428313264
2318+429570249+431297169+432741543+433589572+434198263+435063120+436326505
2308+437690991+438650550+438937287+438798662+438711270+438873319+439144657
2298+439399621+439676384+439980957+440218703+440376074+440531560+440672362
2288+440728501+440731327+440710990+440576653+440309604+440092228+440063444
2278+440121467+440108147+440030241+439983329+439963414+439849609+439525154
2268+438973251+438340194+437936534+438008949+438437690+438820331+438893526
2258+438713024+438476156+438369888+438497013+438754316+438895183+438851065
2248+438833034+439023153+439339259+439572358+439606146+439465571+439289422
2238+439273211+439505921+439871831+440211588+440498975+440753679+440915728
2228+440943570+440914753+440951400+441147788+441517791+441881622+441954785
2218+441705798+441437059+441412726+441649042+442083404+442615521+442992834
2208+443035166+442957455+443123272+443553833+443987577+444313072+444658028
2198+445154181+445822584+446572890+447179631+447418384+447361953+447399963
2188+447834390+448557795+449228603+449652373+449871861+449998986+450132510
2178+450390821+450870405+451530135+452175894+452651450+453071550+453739921
2168+454780082+456031089+457357045+458785532+460274122+461675840+463059364
2158+464752692+466938177+469443277+472034178+474691905+477439786+480063369
2148+482243851+483947608+485487756+487193364+489154262+491272042+493439399
2138+495607764+497699067+499588653+501296763+503085118+505218265+507728986
2128+510480830+513221532+515542426+517148329+518213116+519104613+519757780
2118+519693974+518672331+516945086+514791374+512203235+509234762+506272429
2108+503622985+501114539+498422570+495540156+492650499+489810417+487004383
2098+484271933+481625154+479054559+476675706+474650743+472932725+471301611
2088+469692946+468274400+467122091+466046063+464871533+463728158+462885392
2078+462376211+461932558+461306031+460551600+459914450+459494968+459157030
2068+458760484+458329599+457982012+457826493+457890689+458013850+457906835
2058+457469128+456953871+456692930+456738445+456844128+456735229+456369124
2048+455966633+455810789+456011401+456438615+456846727+457073654+457146394
2038+457187394+457261271+457375368+457565551+457879091+458308872+458803660
2028+459249425+459438244+459241726+458824680+458489309+458321055+458159883
2018+457851606+457364322+456733474+456002272+455175491+454242896+453286911
2008+452461397+451819763+451305547+450918227+450707154+450586884+450327080
1998+449808705+449222690+448905187+448946089+449059991+448913407+448467284
1988+447915902+447467213+447241748+447201431+447133629+446833636+446334982
1978+445896299+445723789+445710079+445534385+445105644+444776575+444919911
1968+445378217+445585229+445256745+444686259+444275192+444091246+444006323
1958+443971561+443940990+443745511+443305334+442845762+442684493+442866911
1948+443199554+443603214+444137346+444565762+444321747+443294516+442201659
1938+441720060+441727760+441694395+441430367+441130245+440907509+440675968
1928+440512425+440809103+441779026+443006511+443935045+444609068+445239754
1918+445372596+444469144+443047706+442180185+442225733+442672472+442856840
1908+442586152+442154292+441854852+441614930+441229040+440793541+440666449
1898+441047596+441719183+442237136+442486512+442838712+443423687+443657144
1888+443055568+442035549+441252919+440823040+440585425+440520059+440656735
1878+440933791+441237325+441514348+442001080+443217195+445292156+447211957
1868+447384824+445583344+443304132+441898808+441524484+441644299+441803067
1858+441882694+441929931+441947995+441927982+442032073+442477740+443297569
1848+444575346+446513469+448537166+449045274+447539271+445629997+444703608
1838+444633824+444681029+444686454+445332571+447231287+449732034+451170950
1828+451009680+450367170+449890801+449137832+448015054+447178559+447011540
1818+447247596+447545931+448012683+449004502+450473762+451736497+452156856
1808+451928240+451860730+452663113+454519692+456899259+458708016+459187958
1798+458867272+459168888+461059092+464038189+466093690+465685026+464009924
1788+463314231+464311963+466239788+468245940+470117919+471724829+472772820
1778+473568380+475251670+478796638+483725944+487668888+488575427+487321301
1768+485804544+484950733+485420961+487583120+490429829+492326336+493320072
1758+494496714+495788266+496839765+498632181+502226238+506698278+509641086
1748+510188050+509772954+509884517+510982864+512823849+514691604+515891020
1738+517071203+520049553+525320662+530031585+530901055+529264223+527723101
1728+527037349+527368951+528777979+530935200+533923393+538803999+546258710
1718+554447254+559100738+558636033+556158710+554688833+555213445+557720137
1708+561836209+566602166+570894581+575189660+581327381+589344454+595789249
1698+598331808+598539925+597557039+596172670+596367402+599285714+604352378
1688+610870530+619325994+629328721+636444649+637275036+635643890+635947326
1678+639407469+645218103+651398837+656595842+661732874+667751300+672903342
1668+674960013+675582998+678036475+682954670+688233609+692047804+695347457
1658+700257530+708186627+719612188+732039478+738298508+738210466+739288930
1648+743796674+748485830+749716597+749017005+749649477+752367665+756775346
1638+762677726+768686665+770992582+768288884+764543629+762673437+762382412
1628+762392353+762389234+762778828+762928141+761560016+759434471+758752942
1618+759515560+758352953+752986037+746313957+741457099+738397206+735717419
1608+732679682+729711534+727422835+725820018+724472620+723054723+721597516
1598+720267857+719098427+718118140+717516532+717316407+717087953+716336576
1588+715020366+713498638+712123171+711032361+710437250+711052049+713778163
1578+718466604+722681179+723487590+722424655+723350947+726931424+730456738
1568+731716029+732193860+734167492+738324953+745228021+756246575+770625730
1558+781108106+783640789+784012449+786170352+790538983+796645191+803593417
1548+810632933+818221103+827269924+837485510+847254715+853370084+851820417
1538+845348072+841156954+841318223+843482429+844939311+846010693+848723747
1528+853568974+859475317+865635130+872119040+878034415+881114581+881266364
1518+880841878+880553712+879633853+878779229+880135334+885161778+893865708
1508+904062062+909226514+904649831+896984340+893085417+893580141+896161684
1498+897910567+897467628+896409631+897174978+900392373+904706295+907925898
1488+909020996+908799430+908081905+906832165+905025325+903516397+903801315
1478+906752440+911868810+917735453+922415837+923706121+921568751+919262638
1468+919445284+921713646+923545892+923349990+922871900+924830783+929733968
1458+934662429+934565746+929427544+924316437+921411315+920079316+919463283
1448+919035744+918563111+918307043+918521332+918957318+919720846+921651399
1438+924571011+926272526+925669098+925077300+926082472+927344298+927413562
1428+927282766+928592023+930764611+931870949+931673944+931758217+932574960
1418+932606993+931132502+929178492+927618949+926659715+926028283+925115116
1408+923806249+922634999+921734568+920908404+920670399+921683172+923581953
1398+925474951+926763741+926485386+923739909+919627866+916367262+914582514
1388+912942921+910078993+906580710+904492200+905181591+908467730+913147594
1378+917839219+921492209+923622043+924538198+925105435+925798594+926463294
1368+927401931+929776268+933904294+937834601+939158218+938357134+938076115
1358+939339500+940942901+941628004+941261282+940321670+939324100+938650759
1348+938448035+938966735+940891701+944524939+948789089+951926109+953238160
1338+953430098+953370776+953522299+954261980+955566300+956552044+956448603
1328+955847514+955755248+955807034+955155589+954708232+956091432+958608195
1318+959512915+957855323+955911450+955877857+957196406+957834466+957009861
1308+955808463+955648169+956905641+958612094+959068222+957479700+955025768
1298+953407552+952793338+952295690+951828126+952044300+952712378+952640060
1288+951232820+948958416+946387138+943682661+940803724+937604652+934146978
1278+931056741+928917746+927418825+925761948+923897604+922701079+922775541
1268+923545047+923631335+921982060+918960567+916276622+915243770+915182628
1258+914229567+911731971+908857908+906748541+905207906+903551094+901903574
1248+900969940+900919909+901281693+901835805+902861899+904407407+905951876
1238+906918647+907226242+907127999+906870500+906869981+907698939+909555290
1228+911915462+913865379+914886989+915335776+915949730+916950678+917931224
1218+918642641+919604410+921739181+925316670+929121639+931118663+930817046
1208+930096922+930648824+932015260+933043693+933728146+934547682+935222259
1198+935481186+936042445+937881383+941270833+945649406+949987498+953070913
1188+953887526+952509070+950706908+950843551+953993696+959276729+964624217
1178+968288773+969643123+969046063+967467417+966056538+965519515+965964467
1168+967516214+970501255+974839413+979725055+983695516+985214580+984502773
1158+983936381+985028035+986435276+986561393+986075181+986103510+986476470
1148+986970154+987925230+989137414+989881774+989863581+989371781+989105836
1138+990047592+992514388+995388322+997218554+997917950+998780371+1000917482
1128+1004217655+1007939065+1011428122+1014049561+1015809749+1017949589
1120+1021078942+1023617082+1024331748+1024897425+1027517629+1031358399
1111+1033349640+1031939021+1028257766+1024844340+1023977371+1026032483
1103+1029572741+1033045619+1035819101+1038214555+1041113569+1044199518
1094+1045048878+1042058053+1037388585+1034468129+1034093480+1035008011
1085+1036458525+1038501292+1040326910+1040120482+1038081420+1037624901
1077+1040907531+1045234318+1047186769+1048078363+1050266870+1051686131
1068+1049765194+1046740712+1046327987+1049073854+1053015726+1056548057
1060+1060292988+1065756003+1071566441+1073741823+1071510108+1068896531
1051+1068737471+1069547976+1069118942+1067741785+1067013215+1067647961
1043+1069155913+1070344186+1069786956+1067172470+1064135902+1062172016
1034+1060698110+1058307790+1054708729+1050894664+1048544303+1049218360
1025+1052994154+1058290896+1063328646+1066677746+1066852985+1063539102
1017+1058792897+1055075516+1052760047+1051172369+1050708119+1051984369
1008+1054246883+1056263399+1057503847+1057811507+1057223608+1055836575
1000+1054147535+1053196293+1053463667+1054189249+1053661648+1051118245
991+1047788767+1045483175+1044614452+1043751381+1041631814+1039114141
983+1037590854+1036591075+1035042968+1033315268+1031903414+1029790929
974+1026047882+1021432993+1017033823+1013248997+1010094694+1007479688
965+1005532955+1004308166+1003259851+1001394338+998328596+995102625+993114763
955+992207574+990896627+988529568+985972455+984176790+983044071+981577378
945+978724757+974675285+971205461+969761574+969668204+969192843+967688074
935+966132104+966111052+968112169+970664539+971764900+970893513+969076017
925+967688204+967643566+968954123+970741665+971835983+971435864+970160979
915+969700367+970275271+969959879+968015291+966799988+968288448+971038408
905+971987701+969746824+965503531+961581346+959300055+958020946+956576215
895+955062284+954279199+954251389+954192002+953616903+953152458+953932294
885+955993969+957684762+957275676+954879248+952157097+950662594+950979610
875+952639606+954118709+953800849+951682126+949386929+948511969+949733444
865+953001325+957239745+959986132+958967575+954680943+950309972+948694485
855+949997570+952451761+954861510+957325318+959600567+960454605+959251583
845+956928512+954987497+954137942+954086416+954584649+956027431+958636459
835+961964832+965211531+966937476+965420622+960990459+956800315+956206699
825+959775286+964749944+967478853+966773218+964354893+962418037+962126686
815+963697795+966542880+969731620+972617704+975269552+978128151+981154712
805+983109437+982171905+978156090+973153233+969530131+968138939+968397087
795+969311943+970600603+973067270+977312578+981946115+984119287+982260921
785+977738363+973768811+972583202+973149464+972670594+970753686+969993991
776+971941439+974837009+976018850+974675090+971972952+970147204+971053938
766+974721613+979043397+981010791+979236764+975683706+973999669+976227161
756+980965439+984830834+986185185+986303375+986591152+986716555+985936393
746+984554948+983387142+982707693+982038575+980971676+980213152+981693555
736+986592646+992700089+996149901+995815666+994196671+994871377+998795055
726+1003070837+1004297575+1002495803+1000226337+998935663+998497727+999151186
716+1000836392+1002033697+1001278876+999384254+998577127+998216773+995208535
706+990229458+988262518+991215007+993860682+990885971+984525969+980103278
696+979438708+981097664+983078703+984090958+984050738+983224509+981034313
686+977450391+974219741+973686097+976965933+982732709+987715554+988903827
676+985618533+979899580+973793697+966310072+956829489+951225153+957983585
666+973952172+988286754+994844152+995470646+996062379+997772860+995591436
656+986805051+976877047+972760391+975057601+979315904+982286521+983869391
646+984555728+984440981+983647240+982575338+982699506+984837137+986176478
636+982610295+975196129+969665930+968507351+969881584+973406507+980267406
626+989514142+998947033+1005829439+1006366982+999564431+990000939+984258205
616+985956861+993442499+1004366254+1019621800+1037096585+1051379122+1060909281
606+1067161619+1071119150+1068869891+1053489787+1030006648
##END=
