##TITLE=<SNM>
##JCAMP-DX=4.24
##DATA TYPE=INFRARED SPECTRUM
##DATE=3/5/2025
##SAMPLING PROCEDURE=Instrument type and / or accessory
##ORIGIN=Admin
##XUNITS=1/CM
##YUNITS=ABSORBANCE
##RESOLUTION=4
##FIRSTX=4497.3318
##LASTX=599.83466
##DELTAX=-1.4281778
##MAXY=1.7160487
##MINY=0.18424921
##XFACTOR=1
##YFACTOR=1.5981949e-09
##NPOINTS=2730
##FIRSTY=0.20308441
##XYDATA=(X++(Y..Y))
4497+127071115+127337382+127586839+127848324+128295761+128613561+128248788
4487+127272461+126534049+126811747+127867848+128567054+128123523+127004860
4477+126331556+126626466+127447626+128130358+128489779+128659480+128624330
4467+128293476+127897022+127887371+128409716+129119821+129502701+129339899
4457+129039003+129302436+130122115+130450068+129476641+127828026+126728803
4447+126470069+126521228+126579287+126603389+126360897+125827001+125620862
4437+126255119+127190589+127324441+126357830+125154983+124655640+124853201
4427+125088197+124953814+124469977+123669626+122531524+121267662+120353059
4417+120143964+120487115+120857585+120998327+121184364+121639931+122029943
4407+121859104+121167003+120525483+120406782+120709123+120882451+120460216
4397+119495498+118540746+118205073+118671008+119614469+120588735+121412124
4387+122138183+122733606+122860903+122057206+120280119+118223114+116781785
4377+116229176+116151061+116034515+115681956+115285818+115333304+116155882
4367+117417972+118388853+118723632+118564252+118014906+117099780+116207573
4357+115982581+116638469+117720443+118616670+119102092+119339959+119516159
4347+119588390+119367623+118788301+118039371+117441151+117206164+117273845
4337+117346748+117174007+116852990+116786792+117270573+118116880+118764927
4327+118849595+118559785+118282180+118099948+117889455+117669470+117551245
4317+117535945+117598675+117740611+117812040+117628670+117425729+117788600
4307+118891282+120091220+120519823+120012416+119340230+119434884+120400246
4297+121384778+121495973+120762744+120051771+120110250+120878461+121682783
4287+121888120+121377822+120582143+120100068+120197986+120623391+120942935
4277+121011651+121003026+121067071+121169763+121292789+121602273+122256874
4267+123108785+123798798+124148746+124216734+124023369+123639063+123476774
4257+123938551+124797455+125400263+125416523+125088710+124902263+125123795
4247+125501882+125524651+125113986+124745055+124772355+125069540+125398389
4237+125693392+125929320+126027583+125924947+125616779+125238766+125100542
4227+125416989+126015322+126489006+126587856+126373867+126149453+126245525
4217+126668777+127081558+127308115+127569851+128051926+128615435+129009838
4207+129050303+128713036+128308096+128286073+128721641+129288749+129726061
4197+129990920+130012113+129684244+129170365+128867549+128905189+128965523
4187+128804241+128585739+128500510+128511867+128673764+129210746+130115420
4177+131036224+131649344+131936739+132140379+132537589+133150849+133662704
4167+133717145+133278370+132620384+132015394+131577784+131429621+131749192
4157+132441825+133005138+133018638+132610566+132238698+132182261+132394339
4147+132691291+132895947+132863780+132583201+132287452+132323852+132820155
4137+133565401+134278006+134864376+135319319+135546501+135499454+135393499
4127+135518306+135857597+136056212+135788285+135151473+134675095+134775213
4117+135195257+135327654+135111735+135100025+135531826+135946583+135931525
4107+135713490+135720221+136012707+136468079+137089022+137761665+138099921
4097+137902528+137465710+137176348+137083250+137028352+136946890+136946993
4087+137229540+137922686+138888197+139687195+139875423+139470213+139034570
4077+139083445+139502631+139798362+139732853+139424079+139026514+138596569
4067+138182650+137887116+137820675+137974376+138183592+138335373+138513531
4057+138785449+139042402+139271505+139701003+140376677+140886424+140882704
4047+140660715+140760815+141118315+141136254+140701954+140506034+141005983
4037+141686691+141898312+141907542+142394354+143247057+143595317+143018606
4027+142192774+142125354+142988043+144007501+144493315+144554404+144678531
4017+145023277+145282113+145027314+144146574+143042708+142361963+142517492
4007+143445018+144666569+145636285+146191477+146583680+147004591+147299212
3997+147217256+146734827+146077829+145538395+145263671+145197584+145263922
3987+145551513+146159226+146839384+147060655+146656909+146184903+146329011
3977+147141538+148116177+148755562+148857611+148510795+147972321+147473613
3967+147211606+147438117+148208659+149122396+149685046+149808903+149658045
3957+149294298+148812213+148548818+148897143+149978120+151388047+152238410
3947+151943854+151066294+150717521+151129248+151446106+151033903+150305150
3937+150069940+150764037+152299340+154050069+154970397+154468304+153291583
3927+152811988+153439849+154225999+154207519+153643591+153340989+153406694
3917+153223519+152376457+151217702+150467383+150479924+151074844+152156230
3907+154156043+157367709+161050775+163888438+165239840+164955652+162794147
3897+159412239+156737667+156308784+157763129+159021779+158758737+158485123
3887+159950088+162146352+162918955+162745794+163438082+164253407+163357991
3878+161653406+161372202+163033264+165874992+169132336+171376412+170949440
3868+168822769+167452756+167076114+165982719+163629480+161568709+161430531
3858+163986058+169507971+176812006+180959468+177861878+171393120+166219859
3848+163767919+164059100+166489707+169992731+173709008+177259620+179829636
3838+180031849+177998228+175697016+174199362+173027983+171817630+171023023
3828+170913301+171374528+173028747+176735383+181172852+183094998+182243124
3818+181165430+179907937+176887211+173163997+171321514+172473257+176010462
3808+179911890+182285193+183931226+186539935+188978691+188822704+187019716
3798+185746820+184540197+182494604+180672148+180313482+181121869+182381638
3788+184131910+186499265+189028181+191578113+194776848+198595891+201689994
3778+203323216+204656735+207265183+211936193+218462963+225319104+230642235
3768+234448094+238050267+242020765+246787511+253513660+262588088+272210603
3758+280188036+287172024+296059194+308852248+324302438+337453617+345298653
3748+351674417+361028034+372764130+381580812+385753300+389966514+398160817
3738+411428804+428676762+446373490+459595865+466130057+468362647+469660139
3728+471155481+472488739+474098838+477320528+482118228+486933010+491105274
3718+495430074+500810434+508223482+518381926+529441976+537588728+542553808
3708+547566365+554811698+564670477+575283993+582099352+582769618+581480330
3698+583439808+589136393+595706761+601426170+607032724+612262785+614231289
3688+612860885+612514116+614970251+618091766+620147130+622063421+625933334
3678+632319204+638096867+638458927+634458668+631095705+629819993+628356314
3668+625288131+622533859+622417126+624915964+628041545+630785112+634264585
3658+638791151+642125396+643470626+646190847+653140319+662190766+667072157
3648+665970687+664443010+665579313+667588021+667803213+665587444+662942931
3638+662340021+664536546+669050804+676021012+686151298+697436908+702637618
3628+697692005+690925652+690672270+697102595+705963957+712839510+715834297
3618+716084621+715775371+716311896+718295392+721347763+723406445+721858182
3608+716810456+711607135+709344374+710697585+714244039+717760135+719792189
3598+720110464+719259468+718368789+718390047+719365012+720910143+721905770
3588+719956809+714973379+711034657+711350321+715639020+721709897+727186590
3578+730247314+730431029+728728663+726365504+724451749+723954905+724898617
3568+726349318+727441687+727695070+726833929+724845808+722209426+719731398
3558+718346859+718792311+720650869+722261191+722599457+722836354+724940537
3548+728803998+731482598+730429388+726916798+724368656+724282803+725188027
3538+725089568+723616416+721503133+719610562+719234555+721387519+724916817
3528+727009961+725848371+722148187+718754568+718883609+723526684+729842589
3518+733431485+732715720+730024141+728436792+728513620+728299472+726488726
3508+724222758+722859477+722217481+722309600+724308909+728056010+730914148
3498+730795699+728770508+727593105+728728364+731098087+731967657+729730629
3488+726209685+725386137+729293010+735660307+739697638+738517103+733937578
3478+729980207+728366603+727900565+727513070+727532762+727671201+726608667
3468+724742202+724615549+727137062+730017502+730992020+730362257+729619863
3458+729497163+730351516+732307862+734066245+734014107+732858858+732524396
3448+732994462+733110077+733636234+736098598+739246145+739681676+735913316
3438+729844603+724610700+722565742+724105055+727082164+728458199+727462796
3428+725788923+724652694+723598813+722365990+722031529+723369896+725604537
3418+727616228+729232965+730598111+731030882+729764419+727543503+725993374
3408+725803841+726771795+729362603+733777209+737466652+737238855+733961073
3398+731091822+729838188+729378863+729727273+731195278+732604058+732480164
3388+731039907+729793360+729816259+730815391+731780138+732374545+732761592
3378+732672159+732061044+731276357+729807532+727129976+724705280+724441530
3368+726113166+728320357+730495475+732749956+735124378+737261157+737977519
3358+736457003+734373481+734665128+737691392+740110493+738577595+733954659
3348+730173619+729662380+731652962+733947722+734778281+733581411+731223547
3338+729355442+729216928+731345204+735134821+738311756+739240178+739281650
3328+740172403+740726010+738950023+735742282+733894763+734653194+736780350
3318+738429012+738806959+737832218+735902501+734048045+733124174+733298193
3308+734701155+736985696+738432070+737958275+737027467+737099819+737402505
3298+737117124+736712622+736042059+734438524+732512238+730993363+729370285
3288+728086443+729409221+734043495+739191023+741488916+740677153+738791444
3278+737221699+736070254+735196358+734378703+733231062+732244759+732754581
3268+734943498+737442933+739007606+738977546+737373489+735991785+737152629
3258+740543786+743465400+744609983+745107871+745517818+744838303+742839367
3248+740619570+738842240+737732043+738146092+740534686+743704014+746031071
3238+746987240+746453250+743783750+739145672+734343944+731365567+730909897
3228+732308458+734368931+736230249+737628662+738532617+738728192+737915535
3218+736106281+733720819+731504602+730360392+730905943+732769797+734282780
3208+733830243+731913654+730577300+730512258+730478095+730079487+730825237
3198+733316765+735515901+735261102+733111718+731034760+729386024+726977290
3188+723949237+722578497+724450705+728235399+730956366+730860294+728584629
3178+725934299+723830116+722061961+720830630+721033291+722678373+724224473
3168+724280640+723161567+722428273+723331706+725206226+725716496+723425764
3158+719519488+716278182+714533373+713618826+712963628+712730012+712860694
3148+712368624+710589131+708618613+708320179+710217002+712962807+714466764
3138+713634415+711232991+708946213+707789919+707484548+707227735+706682930
3128+706162292+706364207+707570028+708900936+708710807+706198468+702591894
3118+700026149+699255411+699020452+697698942+695110149+692528665+691222222
3108+691340820+692031970+691978788+690229728+687392624+685568750+686050378
3098+687360476+686965671+685007909+684228593+685982128+688627908+690290891
3088+690871052+690398599+688250036+684789360+681644051+679838228+679072636
3078+678845361+678925545+679077783+679112766+678928230+678527086+678332331
3068+678954710+680100039+680330894+678651203+675880186+673845149+673464516
3058+674025582+674347288+674198034+674080778+674028491+673513745+672495219
3048+671690692+671556803+671602079+670936513+669366469+667813208+667391625
3038+668044884+668573578+668236208+667401546+666280533+664474263+662116847
3028+660157295+659185313+658826312+658415619+657553061+656098184+654295568
3018+652760507+652029153+652147303+652664137+653036192+653048499+652643848
3008+651409608+648943888+645992811+644238082+644365780+645168592+645199025
2998+644633931+644686293+645581075+646011459+644844573+642634175+640767337
2988+639732327+638982847+638015415+636895149+635953898+635379704+635002354
2978+634437484+633527710+632412367+631097048+629465019+627871629+627061731
2968+627243208+627773692+627941221+627499425+626368566+624737172+623394068
2958+622864218+622466467+621335907+619825908+618722797+617909618+616828175
2948+615410146+613966830+612846563+612271102+612032227+611655138+611068861
2938+610512905+609949862+609216531+608332789+607321499+606182212+605188077
2928+604612503+604064491+602850353+601016037+599332392+598292422+597640841
2918+596869693+595865190+594967574+594443729+593962176+592893824+591235802
2908+589692871+588852876+588840121+589404394+589651809+588433867+585848654
2898+583426979+582231004+581871032+581582854+580998367+579854866+578190354
2888+576665996+575789788+575329008+574979219+574760931+574411179+573360132
2878+571661458+570169285+569540418+569505920+569219606+568192428+566767983
2868+565574805+564759089+564045674+563249016+562343755+561298638+560251730
2858+559671942+559866771+560377750+560301370+559208702+557381322+555217281
2848+552934045+550894607+549599800+549112988+548849275+548182814+547146163
2838+546283530+545825026+545302970+544161744+542548102+541189856+540506575
2828+540123481+539423641+538336753+537328894+536703830+536199229+535417265
2818+534402506+533503511+532820155+532079029+531001577+529554830+527925040
2808+526512530+525780168+525789044+525998083+525769987+524987351+523979305
2798+522970887+521864568+520537389+519035819+517426652+515849187+514760509
2788+514577241+514902528+514649407+513242156+511295060+509757462+508778506
2778+507837629+506674100+505463393+504247614+502918831+501651510+500689300
2768+499906441+499090129+498292613+497539031+496643242+495559525+494504301
2758+493560067+492473738+491025612+489426366+488102953+487152230+486315368
2748+485472949+484797425+484380840+483984842+483185573+481735134+479846069
2738+477992136+476404712+475025805+473893044+473185223+472817457+472278060
2728+471098606+469422122+467856852+466741546+465870857+464976971+464037660
2718+463047590+461956339+460889181+460037028+459318838+458468960+457451367
2708+456508438+455713980+454735733+453283280+451617612+450300651+449498847
2698+448839546+447980270+447019439+446195146+445484042+444809339+444337110
2688+444154178+443950995+443382172+442417425+441159540+439773733+438620685
2678+437956536+437542636+436960461+436188828+435514013+434993487+434348769
2668+433402558+432344835+431420180+430582274+429666869+428716145+427901325
2658+427238742+426567992+425771893+424910976+424121180+423456845+422892124
2648+422359440+421690517+420692616+419416381+418205749+417405623+417085818
2638+416980646+416664198+415938550+415036646+414276611+413634429+412892557
2628+412087844+411515552+411264072+410996667+410343222+409341628+408328099
2618+407535693+406968063+406533092+406131985+405676091+405109394+404409180
2608+403585633+402726021+402025472+401663822+401576851+401404846+400793768
2598+399758981+398663591+397862979+397451317+397272339+397073184+396713212
2588+396275481+395902047+395547036+395057502+394460558+393942494+393560556
2578+393185928+392719293+392190301+391655156+391115833+390546786+389964164
2568+389466388+389188093+389203123+389452365+389733308+389819049+389656928
2558+389369607+389078856+388896819+388985283+389327651+389561304+389359127
2548+388842256+388335753+387919168+387488710+387063957+386745011+386478016
2538+386120954+385703138+385427938+385461355+385811816+386305676+386660724
2528+386762763+386797485+386867152+386720060+386167610+385435994+384820664
2518+384379838+384140180+384162930+384305285+384336799+384309499+384411576
2508+384495452+384194929+383523694+382939244+382749637+382784358+382676278
2498+382211060+381429581+380593502+379989958+379665156+379453022+379282509
2488+379288514+379569942+379961688+380137310+379929018+379471035+379008764
2478+378695673+378591806+378659235+378721257+378611647+378362517+378109769
2468+377910800+377789106+377826625+378043943+378252720+378177757+377769415
2458+377319935+377163259+377273018+377295843+377001175+376529021+376127391
2448+375833283+375531790+375196695+374932833+374824752+374844369+374890093
2438+374842281+374594232+374124353+373566159+373105678+372767487+372427655
2428+372058994+371787487+371688729+371730985+371909739+372202430+372404010
2418+372282838+371915893+371634540+371644908+371894150+372226821+372450181
2408+372341690+371835485+371158246+370648684+370515019+370772056+371233059
2398+371565507+371543465+371248723+370920602+370687359+370526581+370366473
2388+370117529+369669691+368932034+367820793+366167282+363737664+360452237
2378+356531080+352346323+348197480+344261443+340633052+337357247+334488033
2368+332080493+330096922+328435207+327063982+326120419+325996414+327297896
2358+330505861+335586258+342117765+349762228+358068864+365823535+371392272
2348+373788810+373236620+371045615+368624425+366243737+363337526+359716295
2338+355831576+352124903+348487113+344641255+341012379+338571684+337604998
2328+337354152+337127324+337017714+337307608+337880757+338564784+339536094
2318+340952446+342526107+343842173+344869687+345864232+346979202+348235670
2308+349635239+351035815+352112334+352667507+352853497+352966315+353160733
2298+353441378+353806459+354280515+354809992+355222698+355377808+355337007
2288+355314220+355474663+355813525+356164471+356316261+356201430+355943088
2278+355665464+355385453+355160751+355151204+355401117+355673855+355627199
2268+355160154+354516480+353990845+353643629+353425826+353392149+353567771
2258+353807540+353990547+354136146+354216107+354133274+353946613+353861058
2248+353971228+354170719+354296850+354306099+354317512+354451140+354652197
2238+354790822+354893010+355093284+355365911+355516396+355520014+355647749
2228+356063737+356502289+356644420+356621111+356780509+357153832+357511118
2218+357737387+357861280+357939712+358124583+358607478+359360576+360110466
2208+360633752+360954675+361230360+361536253+361824357+362070578+362345405
2198+362663233+362893641+362962264+363035362+363356658+363971130+364709757
2188+365380582+365903048+366298561+366594049+366762175+366814537+366940706
2178+367400105+368225928+369193397+370115217+370986017+371818740+372580340
2168+373348841+374318249+375582996+377065882+378673146+380394422+382273753
2158+384393674+386854024+389681132+392774154+395948591+399002304+401822587
2148+404476386+407068350+409520942+411695724+413670941+415656861+417747692
2138+419975955+422429778+425106961+427831919+430491051+433223467+436232836
2128+439461873+442583835+445323711+447633762+449494371+450752368+451268792
2118+451027754+450034477+448306414+445982340+443298855+440484464+437685923
2108+434863514+431793205+428344165+424706972+421196508+417928685+414832567
2098+411847216+408947793+406086373+403233009+400406124+397639657+395006296
2088+392628965+390581918+388848559+387402484+386203487+385125327+384034859
2078+382934284+381920458+381049881+380345155+379857784+379584710+379348260
2068+378932309+378374861+377951078+377797721+377727905+377509767+377181161
2058+376955265+376877841+376739849+376389538+375951322+375602353+375347292
2048+375164099+375122888+375235146+375414871+375631405+375927863+376348215
2038+376951275+377749126+378585429+379254314+379763279+380321696+381024520
2028+381658721+381952196+381948876+381908449+381863881+381567461+380867434
2018+379853160+378660988+377389714+376164649+375092045+374175633+373368533
2008+372673354+372132614+371720691+371294111+370718314+370028767+369362045
1998+368784122+368348889+368191356+368281236+368234357+367744487+367042707
1988+366529939+366212036+365846546+365380582+364960603+364685851+364502658
1978+364258414+363855106+363364192+362930489+362654394+362637760+362910051
1968+363199199+363104805+362650329+362278237+362185484+362097915+361806754
1958+361509923+361424667+361402961+361158492+360670637+360192701+359975868
1948+360135677+360727213+361684948+362546425+362572867+361563777+360229959
1938+359385302+359190138+359305864+359386869+359297659+359069638+358800816
1928+358667076+358962527+359802820+360784535+361420601+361839126+362348351
1918+362585846+361991140+360863638+360042477+359893894+360126876+360244877
1908+359997873+359507108+358993817+358532665+358191266+358171798+358609231
1898+359367774+360092602+360451715+360530333+360841597+361535246+361906592
1888+361318861+360217652+359450531+359194762+359099175+358956746+358850642
1878+358872981+358948690+359008772+359369489+360660455+362962189+365034522
1868+365140552+363205241+360940951+359681014+359413162+359499164+359496665
1858+359338758+359175705+359179733+359413870+359897885+360669108+361750625
1848+363307988+365550685+367830974+368418072+366691165+364344789+363058224
1838+362942199+363232242+363553016+364407892+366376992+368934309+370619632
1828+370876743+370462359+369711573+368332368+366736628+365885519+366033356
1818+366618477+367160970+367797073+368883923+370311762+371415208+371673327
1808+371322791+371099991+371684105+373374089+375802067+377905019+378763102
1798+378727187+379232870+381433161+385001545+387797885+387776739+385834752
1788+384493140+384910732+386601835+388787880+391165771+393425063+395132316
1778+396549413+398755635+402623870+407722205+411908119+413161007+412070389
1768+410452906+409462911+409908847+412100449+414997598+417019470+418151709
1758+419388298+420824453+422342993+424835827+429094764+434135777+437627594
1748+438547027+438100382+437916667+438896667+441119597+443778841+445790719
1738+447597735+451128637+456784048+461241059+461323369+459190581+457777586
1728+457639296+458723983+460991481+463930437+467411401+472583730+480490489
1718+489468770+494866696+494606937+491877727+490046246+490406552+493224897
1708+498193110+504041596+509215492+514040529+520377095+528219931+534399075
1698+537175910+538053535+537634713+536609362+537310955+540957024+546648984
1688+553550196+562492375+573361139+581345173+582619617+581358488+582355159
1678+586884149+594015769+601422403+607283719+612450826+618274288+623565103
1668+626362972+628032519+631530266+637493808+643672094+647742468+650609482
1658+655164989+663591566+676463554+690586193+697836486+698210480+699814612
1648+704691154+709136044+709775877+708702378+709198700+712078543+717178109
1638+723988247+730107160+731451942+728219064+725260453+724843719+726004787
1628+727323239+728368169+728948554+727886915+724496055+720800720+719325181
1618+719743407+718869884+714515621+708526719+703300648+699431891+696526090
1608+693892840+691040073+688035739+685287099+683025680+681144074+679602151
1598+678724301+678658140+678735490+677986159+676294832+674533912+673534929
1588+673185027+672578686+671102625+669168433+667828573+668126784+670743549
1578+675355521+679605955+680571820+679484075+680009412+683137043+686905253
1568+689273857+690719560+692861634+697063137+705078500+718857353+736580300
1558+747887317+748623594+747927745+751012934+757361808+765117224+773024654
1548+780901652+789637553+800175995+812240324+824132499+832029637+831051837
1538+824078422+819162794+818680272+820321624+821350070+821860937+823912086
1528+828493774+834794761+841433043+847914836+853833027+857822321+859486050
1518+860109548+860345774+860271632+860789510+863203838+868470262+876773168
1508+885623639+888183865+881923306+875150837+873361796+875820580+880123749
1498+883819756+885056905+884043824+883032906+883907996+886836696+890257093
1488+891844293+890901923+889240730+889171884+891301427+894327467+896932074
1478+899230041+901960481+905183364+907864724+908293541+906183764+903920780
1468+903865508+906133118+908666566+909414628+909384792+911298174+915982871
1458+920902153+921514089+917406942+912792062+910174625+909785117+910690639
1448+911015851+909494887+907093314+905711312+906200771+908435561+912046759
1438+915819668+917132973+914957483+912137311+911258492+912062273+913078636
1428+913725555+914456089+915391820+916113552+916901222+918848542+921768963
1418+923065784+921144496+917903637+915653780+914890874+914975310+915453655
1408+916247590+916719372+915608504+912787586+909943546+908441229+907952516
1398+907523251+906738788+905428093+903491589+901518834+900297647+899536457
1388+897838789+894439053+890987627+890143791+892510157+896245324+899393542
1378+901773559+904245246+906971136+909324822+911171147+913011804+914842689
1368+916307039+918053190+921220727+925156764+927295407+926314326+923856363
1358+922175553+922212624+923900744+926548613+928925571+930073510+930230149
1348+930399543+931178113+932648057+935055896+938544692+942160365+944166089
1338+944012061+943123769+943054773+943892568+944733793+944913257+944634365
1328+944760571+945925368+947710679+949043377+949515905+949657551+949857303
1318+949997383+950097856+950363918+950745818+951030901+951116008+951038659
1308+951102060+951698556+952582596+952938912+952477872+951730108+951128465
1298+950498478+949429007+947728729+945704283+944061738+943157931+942407631
1288+940824012+938141608+935174792+933011310+931827419+930606157+928322287
1278+925165491+922029207+919242004+916629640+914422673+913072669+912178261
1268+910516024+907528248+904119263+901522712+899963559+898859553+897728694
1258+896331550+894405637+891897102+889225290+887017427+885675629+885133733
1248+884982688+884993130+885312152+885862103+886033287+885557254+885251958
1238+886137117+888091597+890136108+891792005+893300139+894709367+895687839
1228+896132171+896321256+896645574+897517679+899174322+901245760+903000862
1218+904385027+906121407+908329270+909943247+910219529+909995311+910613587
1208+912368018+914770038+917586928+920811079+924011286+926393615+927495980
1198+927562812+927343070+927776587+929559436+932537739+935852143+938944121
1188+941756461+943996472+945342074+946465548+948780373+952882970+957630919
1178+960794950+961117403+959818120+959039252+959344698+960074486+961396444
1168+964064825+967425848+969840922+970984162+971940928+973406620+975157918
1158+976964636+979051215+981524469+983789244+985117542+985519060+985355111
1148+984800311+984559982+985838678+988577770+991314326+993387256+995708346
1138+998541347+1000235807+999884041+999550624+1001891630+1006428489+1009680164
1128+1009261341+1006597361+1005130475+1006873642+1010667213+1013794695
1120+1015077195+1015416803+1015715536+1016084905+1016960293+1019248713
1111+1022856629+1026114644+1027104900+1025380902+1022473983+1020857096
1103+1022006900+1025203677+1028381433+1029963187+1029708985+1028628027
1094+1028359876+1029516915+1030884821+1031656155+1033138109+1036700600
1085+1041546784+1045650276+1048059233+1049242006+1049409162+1047631236
1077+1043712578+1040079226+1039502497+1041720951+1044484807+1047165421
1068+1050626172+1054239085+1056012909+1055701794+1055853585+1058234123
1060+1060694399+1060202254+1057714008+1056960202+1059401009+1063161834
1051+1066284021+1068143698+1068420575+1067038573+1064582027+1061929981
1043+1060072915+1060165257+1062789556+1067156649+1071495024+1073741823
1034+1072428667+1068179799+1063346072+1059554440+1057299586+1057230888
1025+1059506255+1062296516+1063047861+1061311854+1058496680+1055548810
1017+1052714541+1050747529+1050805560+1053131797+1056398539+1058372413
1008+1057707891+1055260371+1053021553+1052352780+1053293434+1054771732
1000+1055748339+1056397644+1057097671+1057170918+1056003958+1053591943
991+1049701331+1044348382+1038647323+1033914441+1030590862+1028372407
983+1026653631+1025134532+1024168070+1024283386+1025536795+1027061712
974+1027201345+1024599647+1019274670+1012138351+1004428285+997955965+994232285
964+993098294+993034147+992502321+990494732+986913444+982960475+979705518
954+976384848+971736477+966345637+962012333+959701462+959074608+958837412
944+957383579+954575043+952463998+952738937+954311964+955057118+954847296
934+955114851+956480145+957936216+957853272+955890586+953783047+953391748
924+954547519+955883798+956892478+957602127+957202996+954802319+951121901
914+948182535+947308713+947814582+947779525+946368507+944743117+944146547
904+944222628+943762110+942302012+940490893+939253968+938929800+939172963
894+939613267+940299122+941262899+941947933+941415361+939259636+936231955
884+933689482+932477470+932650370+934059374+936603339+939595664+941211730
874+939434252+934425834+929650436+929114582+933064791+937326190+937907321
864+935309278+932385426+929965429+927120345+924020461+922202480+922581322
854+924408105+926228771+927770993+930392457+934887024+939433058+940851610
844+937793645+931929010+926225638+922681571+921591513+922576623+925492568
834+929790889+933798757+935726981+935416240+934375859+934172079+935140854
824+936497123+937224599+936664204+935079690+933860815+934236077+935612262
814+936293865+935946276+935974919+937540040+940392210+943164271+944149679
804+942525036+939268513+936647123+936509803+938801803+941843582+944245229
794+946007044+947317142+947452299+946039043+944348387+944277079+946154434
784+947976219+947627138+945614626+944334513+945165520+946965525+947049364
774+944055323+939597156+936274919+934911042+934609176+934466710+934181179
764+933821730+933776976+934268077+934915144+935481282+936302443+937223927
754+937407792+937120396+937907619+940012547+941473019+940738233+938764135
744+937512665+937768061+939230397+941496813+943969545+945753065+946583624
734+946932332+946906002+946282206+945328425+944451918+943908978+944507935
724+947120075+950454396+950869041+946444962+940085869+936526064+937461496
714+940491713+942195497+941775332+940911207+940665583+940183508+938847452
704+937803939+937951179+938432807+938102149+937002694+935536777+933465787
694+930835894+928414033+925807263+921043576+913748902+906649206+902720776
684+902563541+904521975+906081800+905895922+905060141+905520809+907451271
674+908454432+905257059+896434186+884423711+876691268+879117157+885521899
664+887987395+886339852+884078285+883450386+883751879+883054239+880508484
654+876309815+870833122+864746582+858946243+854356052+851447192+849889232
644+849131398+849408201+851285407+854442427+857434603+858175057+855972938
634+853849810+855671520+860129911+862023302+860474367+859664395+860522105
624+858714790+852023102+843391850+835692526+828968465+823067653+819349568
614+819033754+821841469+826474773+831535105+835546628+837130620+836839868
604+836168633+834043938+827592205+817165648
##END=
