##TITLE=<SNM>
##JCAMP-DX=4.24
##DATA TYPE=INFRARED SPECTRUM
##DATE=2/5/2025
##SAMPLING PROCEDURE=Instrument type and / or accessory
##ORIGIN=Admin
##XUNITS=1/CM
##YUNITS=ABSORBANCE
##RESOLUTION=4
##FIRSTX=4497.3318
##LASTX=599.83466
##DELTAX=-1.4281778
##MAXY=1.8494163
##MINY=0.40318501
##XFACTOR=1
##YFACTOR=1.7224031e-09
##NPOINTS=2730
##FIRSTY=0.42282742
##XYDATA=(X++(Y..Y))
4497+245486913+247354244+249610558+251136125+251078368+249128918+246221675
4487+244111275+243805743+244872388+246283186+247407606+248048984+248055075
4477+247354036+246268063+245398600+245071145+245127431+245280508+245404881
4467+245466305+245371556+244943987+244218604+243905026+244954057+247269910
4457+249548095+250732400+250829243+250129364+248809561+247471885+246965572
4447+247436276+248172560+248470012+248203567+247520385+246558905+245628848
4437+245145495+245153385+245295735+245328835+245271857+245145893+244990462
4427+244978091+245142554+245243757+245131964+244867665+244497836+244148839
4417+244155189+244621706+245076630+245027784+244668198+244497161+244566181
4407+244632157+244613851+244502559+244347630+244517353+245335825+246239756
4397+245963223+244152957+242233095+241937356+243312943+244781964+245055711
4387+244337820+243557275+243100344+242629882+241901418+241227130+240862474
4377+240473716+239781467+239238299+239355370+239856284+240176230+240309842
4367+240582325+240931564+240867665+240107763+239075359+238649556+239335748
4357+240708497+241693941+241471116+240246946+239075601+238830214+239459082
4347+240189968+240197512+239267541+238156254+237905693+238553906+239110207
4337+238853399+237924224+236794181+235968182+235883156+236390075+236742688
4327+236533913+236122834+235917243+235887119+235935964+236162492+236612658
4317+237144250+237569120+237704289+237435110+236902427+236542616+236838147
4307+237883338+239179366+240015401+240043500+239366495+238304193+237314959
4297+236799406+236726666+236730939+236594040+236335987+236077293+236043951
4287+236267554+236308942+235894836+235589511+236038829+236890488+237289005
4277+237091044+236850899+236927516+237162851+237245610+237050521+236686350
4267+236401097+236482524+237113901+238106439+238921330+239308289+239561999
4257+239751499+239448995+238699041+238310664+238701862+239338621+239592539
4247+239420220+239089357+238830525+238802581+239087834+239659206+240286760
4237+240537805+240218362+239736844+239608492+239770913+239832891+239791987
4227+240015193+240574280+240903897+240280860+238772855+237493610+237533632
4217+238782043+240176212+240841988+240557790+239498221+238115627+237048549
4207+236768521+237407408+238776748+240198049+240658094+239716790+238122721
4197+237172765+237494960+238549113+239280985+239188779+238608133+238012710
4187+237438017+236739435+236048311+235704228+235890942+236505121+237328421
4177+238142602+238688210+238842343+238853244+239013986+239216602+239201098
4167+238965175+238573025+237950230+237191314+236675069+236604231+236688565
4157+236469391+235870612+235317789+235325869+235997718+236910404+237461687
4147+237399881+237021487+236735992+236634200+236657766+236799389+236946774
4137+236937067+236762534+236407412+235819413+235334105+235582728+236676903
4127+237919829+238438981+237887577+236680709+235654327+235342341+235653514
4117+236254802+237046767+238144177+239368624+239923575+239129482+237522471
4107+236367720+235987423+235613666+235004937+234845994+235327876+235776433
4097+235896998+236145847+236616032+236675086+236051668+235355093+235177515
4087+235359160+235369316+234978897+234412318+234082839+234230760+234709199
4077+235186357+235537793+235852115+236136244+236287625+236326141+236459321
4067+236932534+237798277+238699993+238986406+238288222+236984857+235861026
4057+235359281+235387173+235651438+235882222+235880405+235624272+235280380
4047+234998985+234815178+234744635+234773980+234779811+234666634+234562489
4037+234645403+234839644+234950313+235036359+235394423+236170486+237170222
4027+238054323+238594723+238715185+238448619+237975492+237630302+237695966
4017+238081956+238258565+237750418+236800462+236225664+236403139+236758520
4007+236595493+236077622+235951641+236590804+237636964+238436386+238693954
3997+238605001+238334732+237781130+237061249+236651277+236700071+236840725
3987+237001935+237666672+239012446+240399193+240943330+240339550+239180491
3977+238571157+239188831+240579765+241535448+241283520+240193533+239227952
3967+238906640+239035390+239300935+239655936+240077050+240420475+240650273
3957+240892339+241154147+241350256+241752511+242896933+244603313+245568842
3947+244895730+243611277+243352912+244106914+244445910+243689745+242592542
3937+242191413+243140850+245560727+248586633+250476544+250254584+249043910
3927+248717874+249725448+250828482+250968184+250805902+251500296+252643783
3917+252387599+249757804+246081401+243420116+242523504+242939290+244590994
3907+248328752+254485316+261392351+266270189+267802071+266287578+262146578
3897+256623815+252390938+251631312+253926713+256086046+255669222+254861616
3887+256903843+260838109+262982942+262966608+263068158+262460087+259213329
3878+255658840+255460862+258870457+263852734+268859045+272196833+271984199
3868+269678555+268588672+268864651+267783419+264270388+260693614+260174791
3858+264700292+274752917+287191679+292059948+283452034+270577260+261431594
3848+257475872+258101488+262110364+267862873+273943442+279508961+283229988
3838+283168580+279617432+275414004+272209654+269621854+267417362+266312944
3828+266397416+267090391+269298137+274663808+281235897+283571717+281346306
3818+279152974+277104189+272155929+265642237+261923356+263101068+268249140
3808+274008293+277326252+279816396+284534045+289397936+289307460+285065343
3798+281112459+278171215+275270616+273323865+273652704+275990878+279413138
3788+283523633+287897216+291770369+295568982+301201860+309246015+317253074
3778+323021121+328039059+335099310+345385003+358422284+372028584+382987424
3768+390124915+394462681+396575383+397673243+400320703+405019266+408724444
3758+409266124+409223871+412761939+421481179+432757005+440803548+444167100
3748+448439531+456985882+466157901+469426184+468329535+470650077+480727376
3738+498174161+517430261+529990228+533399459+533359386+535340137+540752750
3728+549371046+560710650+573378829+585361542+594240694+597232686+594161447
3718+589089525+586701675+589153406+595443097+600832144+599303342+590865341
3708+581436584+576029784+576154952+579841305+582590678+581259335+577316660
3698+574511018+575585726+581258366+590530221+601091201+608542045+607688673
3688+599456229+591093945+587129053+587537398+590872816+595678899+601476776
3678+608776048+615322788+615353241+610018109+607101210+607924544+605645148
3668+596400285+585054245+577096603+573738138+573141677+573668304+575454156
3658+578127709+579353056+578970249+581212894+589390177+600988077+606846029
3648+600781067+588546010+577832316+571779777+570220314+570973850+571751435
3638+571762855+571206641+570540692+571281112+575938010+584721686+591296041
3628+587581555+577219487+569260807+567297360+570561663+576066362+579896535
3618+580984083+582302622+585242499+587587230+587727728+587365270+588066170
3608+588952556+589412325+590257530+591773874+593240179+594131479+594913079
3598+596536908+599040340+600748537+600203501+599353036+601988938+608567999
3588+614254239+613650650+607722033+601605439+598808760+600498270+605468591
3578+609815390+609828332+605680031+600652819+598215829+600900040+608988733
3568+617954330+620801741+616557928+610138398+604645049+600192635+596639340
3558+594196329+592919040+592758747+593250353+593687628+594534079+597002075
3548+600365731+601609246+599234823+595471681+592916133+591863987+591884197
3538+593039260+594541623+594582112+592649532+590411248+589717545+590529806
3528+591056225+589997712+588032188+586324267+585004759+584151179+584185577
3518+584476125+583738266+582355568+582192369+583744634+584999983+583632512
3508+579965227+576785015+576030580+576625553+576172394+574118487+571650560
3498+569346906+567052630+565489706+565907810+567923789+569424699+569161213
3488+568051033+567557870+567968637+568212606+566661483+562888271+558994666
3478+557861163+559914239+562370746+562006246+558542891+554526368+552313726
3468+552205549+552918111+552956835+551781355+550250580+549570754+549676232
3458+549572900+549109117+549136767+550191266+551766647+552616697+552021655
3448+550671798+549444583+547775247+544638950+540653190+537630156+536270229
3438+535514618+534263559+532835874+532254224+532794832+533789083+534242761
3428+533440640+531794732+530875921+531537267+532523490+531955544+529512914
3418+526197983+523009188+520742943+520129560+521266420+523035143+523785252
3408+523117504+522199731+521841771+521529249+520776060+520080904+519964665
3398+520122916+520091113+519869603+519323009+517882624+515583883+513447408
3388+512238464+511923139+512459282+513610054+514163327+513106336+511245840
3378+510146077+510129466+510445795+510589408+510724750+511263523+512175759
3368+512718132+512251269+511225111+510827182+511694881+513174509+513950192
3358+513469106+512402910+511571305+511009969+510388211+509803136+509719010
3348+510260517+510847669+510812267+510282388+510020078+510458218+511193759
3338+511336333+510227780+507906096+505110628+502999830+502548021+503644635
3328+504884931+504949644+504024154+503196840+502935257+502683086+501745034
3318+500419747+499848687+500410265+501157121+501377212+501466841+501660424
3308+501379462+500447812+499626623+499485883+499762312+499936689+499791934
3298+499540248+499712203+500548895+501328834+500921181+499199487+497274002
3288+496297088+496545591+497514337+498551119+499508203+500640807+501715170
3278+501979314+501337520+500525398+499965896+499535784+499291642+499434840
3268+499873984+500409504+500823524+500619040+499407778+497546728+495819048
3258+494730808+494416175+494815938+495539747+495849224+495420219+494942559
3248+495223625+495928851+496038585+495278821+494147809+492956238+491826852
3238+491157131+491172739+491278943+490600640+489168664+487926638+487368693
3228+486851652+485619488+483797438+482016777+480759697+480313009+480717790
3218+481504096+481856000+481293107+480203414+479556948+479866390+480515590
3208+480306711+478737835+476540558+474781491+473728237+472876007+471907261
3198+471077801+470538405+469943605+469014863+467961159+467181220+466813260
3188+466504890+465641483+464052155+462342020+461250770+460862565+460613301
3178+460004348+459231676+458840807+458731315+458090767+456526944+454549827
3168+452711617+451097200+449787485+448999725+448573801+447896536+446632085
3158+445236134+444372345+444018885+443660337+443186241+442859462+442511192
3148+441636053+440280347+439093378+438544535+438543081+438637935+438386284
3138+437768990+437184503+436763389+436080933+434908222+433670936+432814000
3128+432335336+432131199+432094413+431790473+430824702+429570321+428776263
3118+428569045+428470143+428157344+427656429+426990826+426115480+425128738
3108+424254118+423586786+423044206+422594473+422327733+422223017+422075078
3098+421777817+421438960+421062625+420405708+419324598+418015436+416807323
3088+415937618+415522905+415509617+415642744+415657694+415483386+415137607
3078+414557999+413721584+412814781+412061108+411474856+411010554+410775202
3068+410784545+410747206+410421187+409881480+409209890+408376347+407547441
3058+406932086+406286451+405215757+403900366+402946950+402588956+402411187
3048+401958928+401411780+401288065+401524456+401440191+400714098+399707216
3038+398730925+397752420+396841015+396199048+395741943+395117210+394129673
3028+392977413+392134561+391980809+392421510+392895432+392841725+392141101
3018+391109961+390175058+389609950+389362590+388965665+387917844+386345854
3008+384916474+384001019+383388744+382824120+382341131+382078268+382096747
2998+382269498+382232193+381699303+380861330+380165413+379692114+379074094
2988+378093893+377042785+376328008+375993303+375785463+375471106+374969672
2978+374344731+373709443+373105750+372599887+372382183+372432361+372232791
2968+371269270+369759674+368508373+368037150+368128993+368286136+368338391
2958+368344793+368222047+367875334+367413662+366870702+366081557+365101287
2948+364329169+364010694+363891028+363470225+362498260+361226888+360195852
2938+359713658+359569907+359297285+358684179+357933343+357296879+356798248
2928+356444268+356345988+356375576+356079595+355209889+354053857+353079089
2918+352480968+352133494+351846337+351593959+351453184+351416329+351389579
2908+351203090+350593652+349547147+348596568+348270688+348386997+348371113
2898+347995297+347367588+346571557+345726525+345088676+344784701+344628457
2888+344362791+343944756+343473498+342970611+342440143+342074155+342118693
2878+342494405+342778377+342596872+341873997+340794132+339751052+339185114
2868+339200410+339447977+339544042+339447631+339310663+339120782+338625854
2858+337601358+336171597+334800284+333862198+333315569+332932936+332689036
2848+332703778+332949235+333234627+333388933+333325155+333017131+332543901
2838+332099358+331800193+331515425+331053130+330459437+329919418+329460203
2828+329005660+328605828+328350197+328161943+327886171+327483640+327022798
2818+326605664+326360483+326326674+326285424+325916460+325207774+324493862
2808+324008001+323649591+323260591+322826257+322311950+321627660+320866997
2798+320314693+320135713+320213506+320273028+320075430+319584551+318992624
2788+318493577+318066788+317566980+316931346+316226916+315599484+315201936
2778+315053859+314962015+314667869+314086704+313372861+312739961+312231987
2768+311737024+311213477+310729207+310277017+309779425+309263491+308816007
2758+308419497+308005754+307572008+307145737+306732167+306307246+305843705
2748+305430999+305268007+305342409+305278528+304741104+303839630+302932135
2738+302192581+301550164+300954361+300522034+300367175+300380948+300307307
2728+300015306+299586059+299153801+298744557+298264059+297619774+296884233
2718+296315596+296110835+296114503+295904344+295255906+294392775+293679832
2708+293248544+293014922+292825353+292502449+292006240+291574502+291448780
2698+291520794+291479302+291174427+290654203+290020178+289407262+288973396
2688+288810542+288892315+289064201+289093667+288842812+288375187+287807397
2678+287168476+286507891+285967007+285598804+285281385+284937424+284683765
2668+284638190+284721191+284783845+284813674+284834576+284684855+284143798
2658+283305013+282585149+282252659+282119929+281837531+281363159+280953602
2648+280773723+280751524+280811322+280985682+281221311+281301042+281072680
2638+280612254+280097531+279630045+279229210+278928886+278795187+278815328
2628+278814843+278584180+278133270+277748457+277681305+277797580+277705996
2618+277272199+276777098+276489768+276363129+276242512+276101615+275976689
2608+275852040+275660343+275361836+275057861+274935548+274999032+275023861
2598+274896582+274749007+274641314+274426397+274070029+273807114+273796473
2588+273848900+273709163+273444085+273322568+273426557+273595709+273678208
2578+273661840+273606142+273559633+273526152+273482618+273429948+273394582
2568+273387384+273398873+273390567+273277719+273051935+272941924+273221329
2558+273777959+274133652+274023589+273686860+273441334+273281335+273070276
2548+272832761+272642154+272433725+272115873+271744072+271463023+271339187
2538+271299270+271191785+270927312+270599079+270388331+270315245+270218609
2528+270019246+269813655+269682569+269623653+269641475+269682067+269579272
2518+269269708+268917805+268690360+268601822+268635320+268775939+268897664
2508+268825806+268526503+268115372+267728500+267460895+267348497+267331315
2498+267310396+267307126+267471554+267852578+268262982+268453970+268323490
2488+267934887+267469252+267137438+266992406+266889904+266736740+266620189
2478+266569457+266405617+266015977+265600364+265438307+265525772+265622200
2468+265574877+265416696+265197764+264907943+264568480+264276461+264129924
2458+264143697+264214154+264158232+263863687+263424698+263059178+262888694
2448+262875128+262938093+263028915+263106656+263120983+263003307+262680888
2438+262179419+261687017+261411990+261401141+261543837+261679439+261680615
2428+261525184+261299574+261095955+260955976+260916820+261005877+261151203
2418+261190653+261043078+260843335+260824630+261042351+261294175+261365567
2408+261279797+261239533+261369910+261596818+261778134+261886829+262009558
2398+262220063+262559837+263173047+264418413+266831940+271007597+277550946
2388+287105373+300237577+317184658+337823145+361943465+389346014+419540813
2378+451568666+484196405+515952986+545200666+571261629+595157878+617549168
2368+636520949+649267683+655352855+656464937+654131834+649212383+641783479
2358+630442837+613625734+591630469+565903899+539422618+517874976+506693069
2348+508135496+520887905+539474769+555756628+565207048+569185194+570422514
2338+570299215+569379885+568592783+568993930+570310185+570888339+569566201
2328+566768068+563263879+558641725+551841464+542990551+533545045+524307068
2318+514709540+504508562+494701705+486058493+477776806+468268491+456769736
2308+443755710+430265719+417245983+405229045+394268060+384117882+374486129
2298+365180291+356175314+347566950+339391674+331586816+324179367+317335331
2288+311155859+305587451+300568371+296134816+292363127+289258078+286682251
2278+284408807+282288268+280314248+278510228+276863352+275396268+274184055
2268+273263358+272583394+272014583+271374675+270541686+269587127+268695741
2258+267944490+267271153+266628460+266023642+265437061+264834492+264234346
2248+263676004+263167458+262713417+262332393+262022898+261773254+261597337
2238+261489074+261359857+261103447+260722683+260329685+260033081+259876145
2228+259843824+259845052+259735595+259462834+259143356+258912503+258771797
2218+258663153+258590845+258586623+258635295+258692948+258728453+258730668
2208+258713140+258700163+258674815+258562243+258314329+258020996+257871223
2198+257939136+258075499+258109966+258071381+258077956+258111818+258065948
2188+257935970+257821720+257776438+257743304+257632981+257449607+257338281
2178+257454815+257769344+258063024+258134294+257967530+257713266+257533162
2168+257450316+257374859+257285265+257268758+257338471+257370896+257290369
2158+257148625+256987571+256803487+256655289+256624057+256657140+256610734
2148+256456930+256339548+256407894+256654753+256941304+257164094+257371173
2138+257700981+258237418+258939824+259686888+260380988+261041763+261795852
2128+262746984+263879242+265119209+266454913+267945148+269647029+271567947
2118+273615347+275551457+277097752+278160782+278857979+279278038+279348045
2108+278967903+278140935+276961510+275583000+274168603+272790006+271419801
2098+270045391+268719100+267519811+266533173+265804433+265254898+264730226
2088+264164512+263611759+263125188+262719836+262432126+262293686+262242574
2078+262161061+262027276+261955141+262042277+262219613+262319831+262310557
2068+262381619+262714680+263228001+263666245+263881785+263890714+263753278
2058+263569799+263504931+263651659+263921599+264160377+264324027+264474941
2048+264638816+264764261+264867818+265087943+265463552+265786767+265859144
2038+265782735+265820092+266054994+266332323+266494675+266587435+266787507
2028+267155502+267556753+267845363+268023512+268230695+268673819+269451214
2018+270299793+270711512+270510454+270091381+269919721+270065254+270322183
2008+270522999+270630397+270683811+270731808+270789721+270860697+270931759
1998+270977231+271156539+271863357+273175979+274417019+274790655+274305745
1988+273536326+272856656+272376643+272168664+272204221+272348768+272534029
1978+272767582+273046692+273361135+273675180+273968497+274396048+275141693
1968+275957224+276239968+275826242+275271844+275118351+275351472+275710659
1958+276076024+276393790+276593083+276716399+276908945+277267752+277828102
1948+278680626+280052509+282067831+284130821+284920882+283804664+281813826
1938+280404465+280021347+280259139+280655424+280995735+281227799+281358971
1928+281560998+282324708+283944868+285766780+286873620+287510759+288384185
1918+288885723+287872490+285912815+284780834+285250742+286568139+287486501
1908+287404226+286678583+286021044+285766053+285780431+285860543+286082382
1898+286734990+287771200+288610470+289079306+289962542+291608934+292792339
1888+292276059+290700194+289472182+289017241+289009576+289231795+289656647
1878+290210837+290731996+291187058+292164214+294808456+299458538+304143086
1868+305574439+303005326+299145704+296600468+295846587+296062664+296412837
1858+296562990+296629087+296869872+297374594+298156955+299385555+301337721
1848+304382349+308664746+312831735+313903675+311002626+307149717+305115778
1838+304931157+305239735+305550908+306985583+310645358+315387352+318218152
1828+318136898+317093854+316123861+314384726+311930607+310220437+309924422
1818+310311311+310670586+311377196+313216237+315957858+318096271+318421979
1808+317461572+316767939+317573417+320273858+324085482+327078721+327744704
1798+326864444+326897007+329675138+334616009+338123313+336775740+332306818
1788+329098299+328909214+330579034+332574976+334482328+336052519+336773836
1778+337232948+339349421+344582536+352024555+357744120+358181292+354555880
1768+350068029+346603256+345572634+347652287+351099689+353036628+353342057
1758+353799749+354571452+355439601+358109312+364111154+371594700+376166331
1748+376121863+373960991+372473611+372731976+374530113+376702059+377901036
1738+378965813+382811455+390051344+395441533+393605399+387651763+382144260
1728+378222694+376303023+376552771+378166633+381057440+387050942+397388785
1718+408800299+413583889+409053162+401001912+394776588+392235713+393686168
1708+398572951+404814229+409760741+413782525+419967464+428685908+435079035
1698+435841567+432553420+426025194+418336610+413912157+414430790+418325433
1688+424512933+434225524+446636688+453385455+448623356+439807636+434613348
1678+435042906+439801718+445327008+448893798+451971543+456168742+458461530
1668+455588477+451191570+450694877+454458503+458266805+458822466+458274626
1658+461072655+470139507+486106872+503495381+508811965+503742880+502707794
1648+508293644+512919847+509816944+503473338+500827677+503630931+511416999
1638+523448921+536485060+543020554+540548578+537018539+538934438+546740889
1628+557517772+568553125+579560031+590398859+599310678+606466407+615460518
1618+628518563+642077972+650087003+653604653+657676684+663725590+670033552
1608+674858183+678144738+681030838+684306042+687617928+690364014+692851390
1598+695808223+699207730+702266235+704543762+706580712+709084698+712026236
1588+715087855+718321948+721640132+724401721+726460541+729222615+734744340
1578+743401532+751742430+754899284+754807164+757702261+765539925+775140049
1568+782772018+789395582+798097900+810168788+826543633+849217858+874961107
1558+887477368+882797595+876531021+874784273+875456104+875947849+875241342
1548+874595188+876955215+883841712+893497481+902221324+904443551+894690056
1538+879083593+868465790+864230698+861566005+856507025+850840648+848298943
1528+849131067+851213904+853911403+858363472+863418161+865388737+863844847
1518+861251510+857449471+851837426+847215236+847363486+853757616+865290112
1508+877279607+879452003+867696856+853851121+846209600+844688965+846965938
1498+849710848+849018945+844514553+840790792+841775319+846789589+850735586
1488+848757812+842083031+835660386+832678360+833099232+835005442+837085787
1478+839857343+844287472+849987207+854445090+854028024+848351059+841753725
1468+837960338+837334809+837845240+837447553+837212028+840478858+848812627
1458+858299175+859493550+850414724+840066914+833682058+831082146+830626253
1448+830273969+828506042+825709294+823366847+822295183+822850394+825685208
1438+830587633+834539444+834032404+830353838+827000287+824924510+823342484
1428+822434851+823265383+825515503+827671772+829620132+832555649+835389494
1418+834330981+828847114+822975597+819796388+819384375+819942839+819846704
1408+819203319+818867576+818642709+817992749+817705800+818927444+821429699
1398+823957770+825360539+824751206+822097932+819249275+818383099+819514907
1388+820384820+818820374+815651063+814003217+815845200+820661387+826702956
1378+832609702+837676296+841161140+842545638+842682745+843215393+844656366
1368+846494680+848848755+852264873+855767920+857065350+855618632+853519531
1358+852515417+852382739+852166939+851601831+851058525+850834350+851017967
1348+851588058+852284114+852948263+854175097+856725385+860126415+862753804
1338+863593196+863161596+862548248+862468309+863175507+864505259+865960836
1328+867156041+868230265+869681551+871833461+874634500+877814885+880896714
1318+883299513+884998852+886900286+889906467+893866376+897904078+901414462
1308+904357038+906934318+909161944+910701474+911460027+912279832+914236566
1298+917239771+920179647+922439388+924212297+925275725+924760241+922549641
1288+919834838+917599184+915582097+913654639+912891588+913823445+914828043
1278+914133303+912617581+912499577+914171023+916200083+917330229+917068266
1268+915625354+914367305+915028340+917659951+920297583+921310833+921357827
1258+922417724+925467024+929458009+932400308+933388434+933328220+933687079
1248+935102722+937104235+938654286+938937497+937813095+935946958+934602118
1238+934525363+934889275+934253156+932468204+930420319+928392090+926245233
1228+924622649+924377296+925115916+925389715+924271749+922279856+920863245
1218+921215460+923381142+926223085+928315335+929117698+929281105+929764475
1208+930874274+932482392+934690362+937424129+939849837+941119375+941541839
1198+942388705+944456592+947190151+949359778+950471722+950989559+951368074
1188+951817669+952828289+955147550+958885084+963044944+966361536+968488253
1178+969842367+970475301+970193543+969676052+970326290+972591775+975132927
1168+976177736+975499122+974578754+974878853+976553345+978841807+981052061
1158+982910862+984308025+985149077+985755158+987169417+990089291+993421387
1148+995111590+994955865+995246966+997972012+1002639119+1007108145+1009673105
1138+1010027051+1008984110+1008170119+1009235138+1012360500+1015793783
1130+1017781246+1018668739+1019779092+1021180892+1022086449+1022595496
1121+1023750767+1025827513+1027495014+1027595509+1027101342+1027714482
1113+1029358521+1030712220+1031324876+1031228672+1029267163+1024991997
1104+1020598827+1019188030+1022597019+1029965087+1037914665+1043703060
1095+1047720899+1050840102+1051636651+1049048297+1045259547+1043380537
1087+1044221797+1046879224+1050426496+1053843168+1055495789+1054170744
1078+1051294057+1050505189+1054117105+1060357379+1064548591+1064361860
1070+1062664667+1062845100+1063674733+1062258537+1059676620+1059105975
1061+1061051635+1064008330+1067341741+1070965561+1073653233+1073741823
1053+1071218043+1068437490+1068084860+1070212614+1072396637+1073125014
1044+1072762002+1071038371+1066805909+1061265843+1059131929+1063338506
1035+1070088796+1073098299+1071366362+1068910340+1067997446+1067321462
1027+1065992264+1064565271+1062758171+1060244842+1058903740+1060794032
1018+1064719058+1067037558+1065655760+1062145723+1059929932+1061189849
1010+1064933820+1067380222+1065919385+1062795130+1062294388+1065270601
1001+1068230480+1067388943+1063095298+1059589483+1060472200+1064947455
993+1068428977+1067120335+1061678895+1055856032+1052325093+1050696004
984+1049483704+1048554684+1048706948+1049899247+1051393928+1052926053
975+1054032183+1053819775+1052302461+1050473698+1048930223+1047180707
967+1044253773+1040302377+1036891034+1035271081+1035124007+1035281878
958+1034737741+1032624382+1028470821+1022936222+1017774395+1014445413
950+1012803313+1011414316+1009309194+1006796557+1004242670+1001543370+999290828
940+998680179+999449391+999187081+995972298+991006407+987295588+986580361
930+988269387+990383438+991173828+990269655+988720436+988147299+989477674
920+991922276+993515929+993492813+993440005+994482392+994767542+992047825
910+987236966+983077591+980934126+980466398+980767396+980817574+979689919
900+977430525+975555114+975566672+976820638+976735093+973798192+969525795
890+966488539+965833802+967458323+970740864+974298795+976581929+977426580
880+977784332+977680515+976130258+973193564+970145096+967607958+965092137
870+962353941+960163758+959491096+960486904+962429727+964222708+964955999
860+964356354+963161910+962790178+963904960+965357423+965475220+964175437
850+962664214+961902131+961868356+961887528+961824615+962463018+964047258
840+965096636+964233851+962380172+961455374+962250886+964496991+967121819
830+968308304+967165907+964761516+962528699+961226286+961789456+965252776
820+970592406+973935022+972246827+967488153+964076949+963316389+963368159
810+963760171+966591178+972511559+978084431+978942925+975001495+970374738
800+968728830+970495719+973565366+975160750+973868787+970607910+967355614
790+965733308+966847813+970670546+975051604+977044189+975544317+971767333
780+967627268+964723242+964377741+966836739+969906664+970367817+967928128
770+965427118+964781656+965681123+967646162+970788966+974759533+979039889
760+983580894+987119377+987109757+983310625+978789276+976200230+975438009
750+975241796+974899339+974049982+972731650+971863052+972280117+973492348
740+974276440+974149300+973684755+973878615+975037485+976357477+977345603
730+978335736+978712659+976535557+971465504+966340704+964542740+967072818
720+972300119+977775819+982378837+986101283+987424459+983737726+976052326
710+969728445+968440290+970480769+972160590+972733311+973712232+975360285
700+976827213+977809732+977995979+975741084+969253242+959804968+951789570
690+948893849+951713645+958162660+964504189+966926506+963701480+956779546
680+950899654+949838580+952856873+955032937+953454026+951013437+949890211
670+947502985+942259972+938848561+939002625+938154028+935308971+933867374
660+935056281+936309554+935880031+934500516+932908524+931564862+931547074
650+931165168+926057671+916785677+908859353+903748050+898434581+893383075
640+892942132+897500093+901213057+899919988+897322221+898265221+901232160
630+901547277+897379043+890198953+882709835+877478450+876849253+882161061
620+890394751+895092588+893309227+889330078+888523838+890779772+893205341
610+895254265+896949312+896007350+890645018+882934010+876598294+872983679
600+871592952
##END=
