##TITLE=<SNM>
##JCAMP-DX=4.24
##DATA TYPE=INFRARED SPECTRUM
##DATE=2/5/2025
##SAMPLING PROCEDURE=Instrument type and / or accessory
##ORIGIN=Admin
##XUNITS=1/CM
##YUNITS=ABSORBANCE
##RESOLUTION=4
##FIRSTX=4497.3318
##LASTX=599.83466
##DELTAX=-1.4281778
##MAXY=1.8257703
##MINY=0.317626
##XFACTOR=1
##YFACTOR=1.7003811e-09
##NPOINTS=2730
##FIRSTY=0.33827952
##XYDATA=(X++(Y..Y))
4497+198943357+198982231+198978323+198732859+197742294+195862207+193657382
4487+192191576+192347285+194040273+196228798+197768567+198116370+197570531
4477+197053384+197139388+197403711+197313184+197102687+197109768+197115464
4467+196856435+196532188+196529857+196939372+197421570+197627774+197702578
4457+197973281+198221916+197843845+196739057+195649851+195541097+196594531
4447+197803743+197923241+196749573+195052554+193642904+192971836+193156832
4437+193926927+194713865+195002532+194580994+193686722+193061854+193461554
4427+194844493+196289055+196893066+196503759+195487745+194297707+193444360
4417+193303444+193648758+193798543+193472666+193195724+193598965+194509204
4407+195093812+194960415+194631804+194747043+195334964+195955835+196016215
4397+195090272+193448058+191999114+191395209+191558103+192166373+193083623
4387+194186763+195121645+195376853+194636957+193145703+191593560+190539303
4377+190080379+190002525+189929245+189448291+188599133+188102808+188541066
4367+189487376+190035826+189958305+189658771+189313983+188860388+188462143
4357+188251488+188016523+187756354+188012071+189041756+190157059+190441503
4347+189800704+188927428+188536948+188829383+189410451+189696314+189555731
4337+189341938+189231694+189011364+188611682+188333180+188382887+188586391
4327+188695881+188716756+188755490+188746429+188612769+188520315+188619078
4317+188716615+188602200+188456675+188488574+188424583+187895675+187189694
4307+187070441+187802976+188729988+189017026+188648699+188302526+188269909
4297+188072819+187385784+186796952+187163999+188536878+190162528+191338369
4287+191860371+191835764+191505926+191135128+190720285+189940778+188691745
4277+187540459+187262623+187979839+189093110+189960040+190318412+190232600
4267+189989450+189890266+189876998+189557378+188787739+188050209+188047388
4257+188912338+190018825+190696308+190871699+190814439+190672121+190564033
4247+190660956+190830336+190649529+190009185+189290217+188836709+188650276
4237+188635694+188786267+189028786+189126095+188910322+188547096+188391790
4227+188671326+189447678+190601383+191686943+192206229+192156926+191940802
4217+191797818+191789195+192073883+192672145+193217966+193333591+192971346
4207+192277335+191513024+191075905+191121983+191273117+191172583+191124296
4197+191658392+192549106+192857193+192121995+190969429+190250828+190108089
4187+190151311+190085655+189882694+189641157+189514963+189606401+189901956
4177+190412724+191222359+192295055+193379756+194173933+194521753+194443145
4167+194057099+193518569+192970680+192467028+191958136+191457008+191211667
4157+191544976+192440089+193397055+193838942+193610935+192941410+192082331
4147+191277060+190839678+190875205+191083581+191097901+190870174+190641028
4137+190730258+191356877+192433657+193494399+193997104+193787308+193196443
4127+192649518+192348091+192369596+192706497+193055334+192928983+192232484
4117+191473116+191204902+191438237+191749882+191916212+192177414+192683923
4107+193026362+192724164+191954981+191405812+191542645+192183076+192650552
4097+192414097+191655009+190990146+190729031+190745646+190881374+191089821
4087+191337580+191610877+191888186+192026017+191868591+191495953+191180838
4077+191131903+191429964+192091708+192941603+193483077+193219964+192227699
4067+191233909+190995018+191590230+192391154+192760095+192634900+192296895
4057+191849207+191250139+190606273+190087601+189747212+189693106+190200053
4047+191311535+192471778+192931717+192546968+191864490+191430701+191321613
4037+191279602+191069420+190793862+190911608+191684998+192641999+193015128
4027+192689111+192241668+192115808+192227173+192356749+192522658+192879487
4017+193394356+193694521+193376444+192535348+191751670+191442864+191531094
4007+191815678+192273286+192939867+193855014+195016413+196079575+196438191
3997+195961216+195237672+194829595+194747552+194749006+194647649+194407163
3987+194300494+194660776+195289429+195616498+195491198+195260773+195220110
3977+195497333+196140954+196889718+197237731+196979841+196367260+195780269
3967+195601758+196141129+197243375+198190386+198392155+198001867+197550515
3957+197299058+197252331+197488225+198212697+199577478+201300648+202444520
3947+202269479+201422214+201234782+201866870+202198916+201596851+200660357
3937+200214491+200653434+202035671+203938596+205253653+205006525+203658517
3927+202758864+203186642+204291499+205013185+205413481+206232633+207339033
3917+207501454+205851950+203129049+200964045+200325173+201132460+203189499
3907+206847773+212190552+217788540+221240804+221469389+219173249+215260888
3897+210797799+207704871+207690323+210376208+212830072+212752498+212143563
3887+213934088+217096335+218344124+217721605+217581986+217374907+215302620
3878+212961593+213148587+215968710+219664281+222949672+224682131+223871444
3868+222055802+221730048+222528642+221856136+218918882+215884511+215110823
3858+217871337+224640171+233686199+238261548+233193764+224123918+217327339
3848+214541394+215555129+219207602+223792065+228196457+232233538+235242180
3838+235707044+233488408+230328107+227443538+224976056+223252027+222922838
3828+223844382+225325471+227908911+232870920+238733020+241080443+239306849
3818+237010534+234708645+230573763+225774351+223222880+224137694+227870475
3808+232205268+234883545+236769680+240042276+243512872+244033577+242346303
3798+241082669+239917221+237817330+236103800+236588329+239222124+242963230
3788+247277219+251903255+256364750+260924044+266890867+274713783+282808822
3778+289723216+296370116+304586598+315336656+328389671+341781516+352596494
3768+359962888+364891473+367757779+369055712+370162042+371466706+372009723
3758+371889944+373324657+378807932+389236197+402235160+412031091+416309360
3748+420332578+428729060+439915291+447681403+450790175+455069005+464666147
3738+479618582+497266297+513581024+524937441+530576179+533439891+537507487
3728+544568213+553350566+561409061+567749083+572212155+574321932+574833541
3718+575411752+576489338+577891591+579624681+579724163+574858745+566284785
3708+559258937+556907991+558782873+562252313+564208940+563709495+562732479
3698+563098159+564921617+568097622+573314349+580963662+588957447+592344967
3688+588685851+582039144+577255296+576360130+579567333+585921657+593975104
3678+601882657+605656749+602182997+596490838+594277757+593114956+587904014
3668+580010131+574142633+571370902+570124147+569221514+568954230+569806420
3658+570779651+570706003+571479568+576270042+584728078+591830869+591187003
3648+582689320+572362851+564530593+560528898+560190560+562212878+564633966
3638+566169178+567294858+569534123+573839243+580022189+586430812+588987874
3628+584794014+577844513+573525372+573181741+575783601+580238751+585806260
3618+591470797+596137566+598805644+598983015+597999409+598349805+600542344
3608+602421012+602574267+602149276+602566765+603568810+604271707+605482181
3598+608957756+613936923+616754750+615804584+614606519+617136695+622642860
3588+626020494+623813723+618563310+614389607+612777136+613294950+615426425
3578+618772160+621572320+621127909+617358374+614207818+615722418+621662548
3568+627210006+627606674+623409484+618558122+615299180+613397166+612237730
3558+611948677+612839041+614734745+616798146+617736183+617066026+616202093
3548+616712475+617855506+617687178+616169984+614796720+613913507+612559663
3538+610151124+607044384+604143270+602614719+603096847+604818404+605908925
3528+605057891+602927328+601282818+600635937+599526558+596674519+592861658
3518+589793198+588378641+588865536+591189106+594222162+595743423+594502942
3508+591721011+589296627+587524978+585573924+583277626+581291028+580064920
3498+579805172+580659150+582076687+582892106+582600038+581626772+580377248
3488+578951474+577547574+576465922+575705291+574687683+572955399+571260342
3478+570821680+571450158+571610108+570607117+569457180+569204583+569593258
3468+569687518+568884403+567081766+564646866+562435609+561159584+560523710
3458+559815765+559262723+559509186+560174996+560377711+560282926+560707987
3448+561446849+561178057+559151568+556174738+553687257+552502162+552556775
3438+553147255+553097934+551509967+548796250+546314203+544812853+543817187
3428+542551504+541003567+539844271+539390256+539107197+538515105+537984532
3418+537897073+537765237+537035594+536137798+535996742+536776617+537620079
3408+537696847+537157335+536687230+536389449+535711090+534414173+532869567
3398+531444564+530367399+529913173+529953204+529644101+528339472+526494877
3388+525020448+524224378+523893086+523884463+524149609+524399016+524269002
3378+523986609+524280254+525167113+525531601+524576493+522964794+521943750
3368+522049822+522891041+523569961+523390801+522461808+521295186+520245503
3358+519878877+520781054+522365866+523200215+522872918+522152459+521549957
3348+520991832+520338290+519532651+518692028+518051808+517600561+517166281
3338+516738801+516351809+516051784+515956052+515813138+515080376+513981688
3328+513397413+513340941+512957033+512196087+511971568+512548798+512963798
3318+512125104+510063666+508166525+508015899+509677444+511506511+512012722
3308+511332434+510454900+509870485+509548411+509521175+509754036+509745308
3298+509039432+508138061+508089897+508891610+509170603+508111946+506799150
3288+506851660+508509104+510613448+511964382+512282915+511938793+511021613
3278+509326451+507419846+506578908+507147198+507995638+508019159+507296176
3268+506556683+506300406+506535546+506903259+507025492+506813382+506431717
3258+506086438+505923193+506012229+506219502+506121912+505360055+504089289
3248+502789778+501699994+500756383+499888313+499092489+498462820+498157256
3238+498039827+497673551+496865983+495743354+494468871+493440571+493100620
3228+493000752+492118871+490570725+489743528+490394825+491665592+492130509
3218+491210735+489507476+488079318+487468367+487391459+487307751+487027287
3208+486597809+485904061+484877373+483890296+483308615+482835040+482008228
3198+481039624+480304653+479426698+477809461+475680650+473804541+472574401
3188+471901055+471556162+471303354+471049986+470970590+471059170+470722409
3178+469397450+467425188+465687296+464504970+463491638+462428739+461691245
3168+461592463+461679572+461046537+459311800+456997064+454928650+453549112
3158+452839485+452625096+452677817+452648197+452256892+451501730+450466349
3148+449171851+447841423+446922666+446594949+446576931+446429075+445692772
3138+444125871+442259648+441095129+440863213+440771793+440163331+439165598
3128+438157559+437311713+436658347+436163108+435763882+435438794+435167093
3118+434893008+434504262+433816579+432823052+431940715+431667857+431977136
3108+432276670+431982639+431020520+429723919+428314726+426726302+425028021
3098+423670776+423111425+423361743+423850847+423692510+422515547+421085040
3088+420537256+421025975+421713518+421968814+421864249+421556653+420901009
3078+419795064+418469999+417307549+416522802+416051435+415716286+415510626
3068+415521843+415480270+414814039+413434290+411983278+410993992+410348759
3058+409815802+409535338+409662933+409958401+409970564+409421799+408380879
3048+407186039+406180699+405493120+405051759+404677982+404109376+403167623
3038+402070968+401338942+401189052+401238933+400957522+400199556+399161967
3028+398144007+397440900+397073222+396516639+395155995+393141950+391358908
3018+390507068+390600451+391239691+391865119+391837567+390838291+389236232
3008+387746800+386830146+386537027+386590273+386448867+385687360+384502615
2998+383553536+383233741+383309002+383265360+382875703+382343097+381880564
2988+381352795+380546981+379581602+378726502+378042324+377532363+377366208
2978+377561422+377689859+377272194+376267240+374954479+373630886+372537421
2968+371751166+371093314+370378744+369651485+369016242+368517498+368267775
2958+368347417+368562998+368577860+368194022+367420668+366473727+365678744
2948+365171973+364800263+364400827+363976502+363547725+363054624+362430353
2938+361661520+360845856+360205950+359883106+359675728+359180980+358304953
2928+357451220+357026265+356889310+356537756+355743299+354706025+353662406
2918+352723493+352090458+351983334+352207362+352176550+351562304+350598398
2908+349659975+348927668+348506007+348441894+348528757+348398042+347865191
2898+347049036+346241293+345701186+345442104+345214816+344795468+344259743
2888+343867141+343682829+343439802+342872703+342103625+341508483+341222059
2878+341002062+340636067+340222783+339908772+339600685+339175449+338771701
2868+338555805+338316633+337651595+336545125+335464384+334835906+334628424
2858+334513553+334265337+333875084+333410938+332966633+332671691+332539819
2848+332381587+332043248+331608442+331231124+330968432+330863446+330928646
2838+330953955+330599176+329797498+328875866+328207848+327875153+327660800
2828+327286496+326696928+326108412+325700948+325360716+324876485+324250040
2818+323644452+323175749+322843580+322528027+322106191+321668020+321388642
2808+321130121+320562531+319739190+319103105+318838135+318621257+318119884
2798+317444435+316972717+316859213+316839162+316528902+315856151+315111891
2788+314569856+314153243+313581342+312808863+312115081+311696329+311407381
2778+311016988+310480071+309864353+309249791+308737937+308319221+307769439
2768+306935371+306044060+305463501+305235442+305068271+304704518+304094234
2758+303293572+302423469+301687867+301182989+300700650+300011669+299332294
2748+299112542+299340461+299507212+299300886+298860892+298318260+297562748
2738+296528419+295376274+294368480+293698095+293381893+293274331+293215090
2728+293110140+292883114+292493755+292005598+291525660+291099284+290686369
2718+290189746+289548351+288867713+288366358+288118002+287942103+287629476
2708+287204959+286858646+286652950+286436985+286069043+285584742+285106118
2698+284698181+284329889+283911348+283407521+282923868+282574628+282288116
2688+281908783+281465634+281130486+280930504+280718237+280407345+280035916
2678+279641615+279267907+279000973+278807828+278481881+277940126+277394936
2668+277050796+276824191+276539766+276244771+276141223+276259441+276350318
2658+276130233+275534794+274695871+273802457+273069222+272695917+272712778
2648+272919402+273056164+273005634+272798870+272493815+272121229+271721407
2638+271347594+271019281+270724322+270460315+270224561+269975908+269676918
2628+269372774+269140789+268946609+268678115+268371535+268235282+268379124
2618+268693679+269010266+269173248+269044268+268698411+268463727+268494626
2608+268508140+268186627+267613341+267080543+266693795+266366026+266030544
2598+265713326+265500164+265490086+265654453+265744804+265525000+265101428
2588+264815776+264811412+264921358+264977584+265003033+265061274+265104040
2578+265049093+264906986+264763563+264679592+264631446+264531052+264328109
2568+264107393+264003196+264018111+264051220+264092776+264237565+264515751
2558+264823155+264995987+264919955+264612131+264180813+263710340+263276638
2548+263010615+262976824+263052172+263048614+262872381+262517918+262049198
2538+261611868+261326513+261166896+261024683+260846943+260634132+260359872
2528+260003446+259654890+259476572+259520722+259651980+259687280+259570901
2518+259390497+259246111+259126473+258963859+258802349+258779669+258897712
2508+258966365+258851669+258626187+258397584+258151034+257864119+257642334
2498+257620093+257791032+258000268+258069288+257920521+257624475+257340417
2488+257192333+257181518+257194874+257098161+256849735+256515376+256174513
2478+255886056+255742038+255812426+255992479+256029076+255753781+255228870
2468+254673251+254311567+254247541+254374804+254425544+254206546+253803236
2458+253498830+253494167+253716233+253872292+253709239+253263391+252807343
2448+252539199+252431041+252390765+252397775+252426817+252383508+252180215
2438+251823070+251422634+251136438+251057357+251138051+251246314+251283331
2428+251242476+251183024+251155385+251145079+251107431+251050311+251030085
2418+251054851+251053624+250982868+250912498+250951617+251123871+251366986
2408+251609295+251785738+251820406+251682838+251467678+251353350+251447031
2398+251708742+252068954+252607659+253608057+255497101+258793743+264085327
2388+271972093+282968754+297430666+315540388+337291032+362400172+390224045
2378+419829207+450206531+480367119+509332691+536296977+560570296+581089049
2368+596686928+607246364+613801405+617422803+618479952+616470324+610182532
2358+598649024+581967424+560389454+534123999+506398591+483958896+472361836
2348+473431184+485833428+504814795+522881892+534856305+540932163+543624252
2338+544784845+544992608+544349092+543287105+542097804+540346310+537550638
2328+533836067+529309128+523520325+516182709+507857631+499244272+490213072
2318+480260310+469587265+459025095+448990308+439041508+428567708+417502693
2308+406113606+394526185+382883275+371656381+361374711+352156675+343697551
2298+335621039+327779141+320285607+313293901+306794034+300680179+294918472
2288+289567420+284740193+280594515+277241839+274621715+272514216+270683747
2278+269006288+267480225+266119984+264854756+263566304+262223064+260934367
2268+259858762+259066443+258489565+257996832+257502295+257001746+256528030
2258+256086458+255631216+255108706+254518682+253917493+253371252+252924948
2248+252594339+252342057+252069112+251682224+251185794+250677585+250258308
2238+249984766+249886143+249957004+250121844+250241044+250182084+249924421
2228+249597511+249358041+249241593+249204857+249245221+249359198+249456963
2218+249458400+249415442+249440295+249580580+249812635+250074083+250279515
2208+250379331+250399539+250383239+250363241+250428126+250703017+251192612
2198+251717418+252057737+252136555+252073458+252090828+252320675+252672929
2188+252943018+253048793+253069737+253074697+253076625+253154041+253399768
2178+253711921+253847894+253730166+253518354+253369446+253279499+253149397
2168+252909086+252590395+252308827+252160339+252146247+252186156+252171802
2158+252035688+251801862+251557100+251386108+251336297+251410944+251605492
2148+251942778+252439822+253120302+254116230+255604032+257582358+259902351
2138+262531922+265580630+269087630+272979186+277202841+281776035+286731453
2128+292086694+297873569+304148672+310903204+317967331+325071348+331990528
2118+338601375+344821408+350482300+355259733+358761528+360644017+360703608
2108+359016333+355891576+351578499+346265691+340356618+334328329+328321702
2098+322182257+315802204+309253577+302772464+296694889+291245791+286376219
2088+281900948+277771763+274150471+271211744+268935409+267155908+265736864
2078+264580075+263557979+262568518+261605786+260742150+260082896+259693642
2068+259531764+259473540+259385222+259172411+258839681+258482256+258189733
2058+258008768+257942867+257905079+257793100+257663577+257677826+257875652
2048+258131263+258301134+258376061+258495594+258725932+258882710+258796968
2038+258640506+258703042+258987678+259279009+259489875+259741578+260146238
2028+260646436+261113264+261507583+261874052+262304178+262950113+263834903
2018+264613200+264833864+264469288+263895301+263440794+263215662+263196102
2008+263255431+263246019+263172529+263186270+263373579+263622390+263701997
1998+263506625+263297092+263569214+264453548+265360423+265557337+265017790
1988+264306919+263853797+263715563+263782831+263916719+264037689+264197639
1978+264472618+264819982+265104583+265216562+265232424+265494819+266273764
1968+267257984+267733838+267445662+266891691+266628823+266712286+266916877
1958+267158940+267514823+267987890+268430461+268716113+268938196+269338702
1948+270069659+271180949+272663598+274101746+274577425+273675037+272251103
1938+271456068+271540723+272012107+272408530+272619342+272753142+272931233
1928+273258512+273979549+275280970+276795430+277931625+278795348+279801302
1918+280490703+280049237+278888907+278303054+278862003+280016427+280882078
1908+281084478+280946489+280975373+281311661+281761890+282195505+282737154
1898+283578022+284593528+285335983+285753455+286499257+287859849+288941519
1888+288809980+287855888+287042204+286671687+286524706+286430307+286339132
1878+286245311+286189172+286302203+287040381+289164022+292821297+296404399
1868+297272083+294818534+291305049+288988684+288340085+288645595+289112844
1858+289370225+289440368+289490074+289620965+289960197+290757335+292269324
1848+294776294+298342518+301756608+302512611+299940055+296574514+294735527
1838+294548270+294960852+295436741+296692890+299609078+303391442+305729839
1828+305811760+305152014+304558415+303326172+301451781+300102774+299886107
1818+300287472+300711096+301336699+302720269+304753874+306390040+306731884
1808+306139862+305800017+306685193+309064042+312271911+314841662+315653786
1798+315264585+315535691+317943038+322068508+325045829+324128158+320667727
1788+318183472+318159916+319710306+321555287+323295598+324767398+325613348
1778+326218551+327992793+332108483+337944749+342475720+342922549+340218472
1768+336867058+334373162+333872666+335860982+338837566+340459606+340758684
1758+341365499+342521710+343935741+346698709+351849815+357905937+361512367
1748+361477944+359864878+358923195+359500179+361386068+363594031+365010936
1738+366328850+369937909+376274390+380915150+379459124+374645515+370449517
1728+367852494+366970438+367684166+369309887+371897305+376944056+385342747
1718+394477180+398521255+395483642+389642574+385021690+383152171+384475589
1708+388685783+394031788+398241281+401695648+407082455+414709299+420497120
1698+421779034+419959221+415562365+409912691+406543329+407032188+410270659
1688+415499900+423788802+434380242+440379367+437124596+430698973+427224240
1678+428124629+432258337+436946944+440294888+443523894+447826385+450738822
1668+449568203+447079040+447543397+451201671+454752610+455837032+456295148
1658+459549043+467803243+481522559+496343999+501573940+498338169+498099453
1648+503159524+507586386+505890803+501414797+499779366+502701548+510061457
1638+521310960+533646497+540620991+539846234+537812839+540082321+547168041
1628+556758382+566790435+577291261+588331388+598181267+606260654+615196122
1618+627146278+639704967+647956047+652066654+655526383+659456604+663107517
1608+666030925+668621674+671539123+674967515+678220498+680457065+681858511
1598+683535270+686365996+690333795+694929334+699845475+704903374+709578626
1588+713316401+716212538+718837429+721609335+724795857+728996692+735150859
1578+743365483+751038878+754478277+755441342+759124855+767090317+776374640
1568+783437820+788937745+795586310+804673771+817203855+835296261+857831933
1558+872778620+873495538+870029428+868210071+867341160+866048169+864419785
1548+864134588+867137638+873366190+880596296+886338652+886907363+877838691
1538+864080115+855161472+852425461+850971223+846202168+839960085+837017257
1528+838245819+840841966+842725402+844581074+846537000+846830400+845501654
1518+844344812+842989286+840070925+836650315+835518922+838667025+846098969
1508+854277979+855046847+845721231+835842047+831436709+831646961+834039235
1498+836216210+835925335+832960282+830356564+831146394+835205612+838791605
1488+837843473+832838716+827389969+823789744+821961764+821120335+821481949
1478+823938793+828546812+833878339+837201850+835844781+830754493+826382526
1468+825385038+826824273+827746325+826565086+825779743+829011203+836838834
1458+844825328+845168434+837637427+830004134+825906076+824652696+824675131
1448+824277411+822331931+819523499+817490945+816904286+817627795+819871933
1438+823452177+826023366+825087642+822238338+820443238+819840945+818640216
1428+816331579+814528767+814634489+816505235+819327759+822321906+823876187
1418+822022267+817526560+813183967+810285587+808314378+806508832+805033982
1408+804648742+805212406+805305649+804192694+803231241+803994430+806362097
1398+809234958+811815261+813262488+812668468+810779985+809683155+810007401
1388+810142498+808764818+807392606+808479971+812075710+816150632+819310442
1378+822221582+826200878+830966288+834652254+836465722+837706133+839352815
1368+841030135+842681024+844887023+847201198+848254491+847811062+846924063
1358+846198382+845460501+844562566+843708588+843225618+843221692+843524275
1348+844003529+844785227+846101914+848135099+850846011+853671690+855698355
1338+856585634+856937293+857322393+857580668+857503059+857654982+859016538
1328+861939245+865721749+869178184+871650592+873582681+875980985+879281922
1318+883010444+886606673+890145624+893977484+897900343+901234441+903903009
1308+906756310+910424539+914442394+917930728+920369273+921470450+921311377
1298+920715884+920640519+921208319+922017078+922870916+923541984+923364051
1288+921740434+918930179+915824000+913116383+911111101+909937924+909369212
1278+908754511+907683059+906432974+905592667+905565185+906355085+907603137
1268+908969460+910394253+911893640+913445327+915012017+916422297+917660043
1258+919310371+921815098+924367218+925781003+926321391+927148518+928212468
1248+928276126+926945347+925271463+924111816+923105845+921733633+920398087
1238+919844940+919930892+919631884+918373105+916766594+915757959+915503540
1228+915623634+916105832+917141178+918340225+918939363+918750704+918384393
1218+918539260+919228977+919654599+919093809+917977419+917554181+918510235
1208+920424939+922391101+923759597+924576208+925577832+927565167+930661530
1198+934302347+937703257+940069592+940848275+940519611+940835165+943169811
1188+946721662+949422830+950579813+951373849+952914739+955209565+957767573
1178+959989347+961237259+961431386+961449894+962217710+963802208+965999724
1168+968822178+971670922+973152431+972816406+972309179+973649002+976750062
1158+979615141+980932389+981402249+982317641+983967268+985628323+986622796
1148+987305082+988728262+991000933+992747939+993218290+993545131+994837560
1138+996824965+998988339+1001388045+1004050794+1006581321+1008556316+1010163248
1128+1012286731+1015376574+1018368968+1019581335+1018721047+1017173917
1120+1016641311+1018107397+1021688834+1026813123+1031717977+1033224164
1111+1029512679+1023331029+1019465868+1019801262+1022937026+1026268810
1103+1027399081+1026091087+1025330983+1028262734+1034051221+1038824694
1094+1039593492+1036193423+1031974570+1031655722+1035919093+1040608577
1085+1042708153+1043649976+1045295116+1046779079+1046792750+1045976419
1077+1045917249+1047472021+1050146267+1052507414+1053660260+1054041504
1068+1053879977+1052649171+1051061660+1050721989+1051635559+1052576750
1060+1053749858+1056362269+1060323337+1064004116+1065750491+1065751613
1051+1065941744+1067566343+1070006922+1071551808+1071190965+1070177423
1043+1070618889+1072639805+1073741823+1071792978+1068143817+1065645330
1034+1065000973+1064987793+1064685840+1064163190+1064210232+1065513949
1025+1067811859+1069762667+1069936744+1068878192+1068505572+1068715123
1017+1067422062+1063884793+1060024680+1058824441+1061322508+1065007493
1008+1066491667+1065632711+1064142087+1061881054+1058411579+1055350269
1000+1053676245+1052177980+1050244137+1049192246+1049464262+1049000011
991+1046560344+1044395988+1045280744+1048547819+1050487620+1048581049
983+1044724582+1042786743+1043452974+1043703538+1041648129+1039370270
974+1039445004+1041076684+1040730283+1035686967+1027144731+1019800631
965+1017218365+1018063580+1018570106+1017359702+1015755575+1014894586
957+1014626635+1014304351+1013253371+1010965346+1007696239+1004598754
948+1002573351+1001000561+998206992+993550178+988030903+982706667+978349212
938+976357321+977771457+981189754+983520824+983356703+982148192+981599111
928+981415219+980330447+978340729+976663340+975713805+974514197+972509757
918+970901002+971182133+972679066+973030024+971707868+970940262+972157327
908+973835067+973897813+972217058+969809570+967500163+965799497+964828931
898+964203222+963402385+962486082+962228086+962999408+963832424+963740583
888+963558585+964902543+967368080+968205092+965623598+961305894+958232736
878+957212323+956939885+956655670+957035231+958170971+958579066+956874405
868+953330406+950025543+949305050+951503337+954670158+956560114+956193242
858+954225888+952650364+953019059+954451283+954661816+952810560+950112196
848+948466285+949101107+951370414+952569881+950333595+945510627+941518922
838+941049834+943939030+947622192+949455150+948983257+948122478+949211386
828+952899877+957349172+959309936+957276191+953532596+951703704+952732670
818+954795861+956621388+958252927+959313441+959189211+958372390+957813213
808+957678397+957824080+958268140+958708274+958824512+958764220+958688434
798+958873097+959890566+961385395+962105539+962305134+963818473+967031425
788+969858155+970150643+968252906+966600404+966800771+967751217+967255207
778+964878076+962318946+961254715+961722963+962695843+962961270+961338003
768+957536289+953730649+953737660+958638938+964451893+966212991+963777530
758+961311502+961764817+964485965+966930610+967125859+965918890+966172679
748+968751369+971884609+974867609+978831271+982649880+982325774+977189285
738+972316821+972155154+975267011+976597228+973686019+968899717+965421969
728+963841748+963491211+964550043+967106229+969818123+971346114+972028890
718+972722533+973362263+973271754+971589737+967957543+963645448+960834351
708+960370100+961794612+965170774+970460167+975669497+978557852+979310385
698+977955209+971921836+960567593+948924156+942972178+944019092+949407056
688+956009911+960779457+959633131+950986786+940125398+934122732+933467158
678+932820067+929451336+926238454+926091229+928260562+929389571+925575308
668+916448727+909359958+909163728+912238498+915259145+917705963+919769505
658+920911274+919326005+913882096+907737463+906560079+911627512+917523053
648+918182554+913017391+905342384+898177548+892033196+885453056+879138973
638+877272223+881975448+889856501+894661802+892609899+885712032+879212936
628+876925612+879603435+884756679+887935699+887082351+884734945+883473713
618+881972784+878022583+872055462+865607054+860150946+857577163+859153948
608+863887109+870160529+878903623+890914071+902974016+909610031+906450501
##END=
