##TITLE=<SNM>
##JCAMP-DX=4.24
##DATA TYPE=INFRARED SPECTRUM
##DATE=2/5/2025
##SAMPLING PROCEDURE=Instrument type and / or accessory
##ORIGIN=Admin
##XUNITS=1/CM
##YUNITS=ABSORBANCE
##RESOLUTION=4
##FIRSTX=4497.3318
##LASTX=599.83466
##DELTAX=-1.4281778
##MAXY=1.8372029
##MINY=0.33379826
##XFACTOR=1
##YFACTOR=1.7110285e-09
##NPOINTS=2730
##FIRSTY=0.35477394
##XYDATA=(X++(Y..Y))
4497+207345424+206628926+207089557+207856897+207894450+207148028+206064033
4487+204924892+204081558+204022425+204794311+205815098+206474970+206645055
4477+206509527+206170072+205647991+205107849+204733959+204508137+204341623
4467+204226822+204236437+204621562+205693347+207238496+208392912+208489563
4457+207746556+206857430+206197731+205695507+205301430+205223538+205627247
4447+206375846+207101070+207299946+206581689+205182031+203945612+203448387
4437+203478293+203583409+203727489+204181623+204931006+205440772+205258060
4427+204755086+204805197+205663302+206580052+206547951+205199118+203112572
4417+201482738+201278079+202397781+203747084+204364336+204304018+204145255
4407+204003805+203600218+203020206+202777227+203186319+204035784+204796471
4397+204978800+204540865+204028329+203941798+203996420+203496355+202485776
4387+201968833+202706093+204094447+204642358+203612480+201759855+200303467
4377+199788754+200099505+200848591+201485978+201584911+201212013+200745635
4367+200430477+200368923+200581838+200807781+200627507+199948284+199113815
4357+198614604+198905812+200086319+201417038+201728433+200729785+199332931
4347+198413533+197974117+197755332+197903227+198614935+199566677+200072890
4337+199730143+198810380+198028234+197829776+197951666+197902931+197745004
4327+198025517+198905673+199664809+199367348+197952101+196355535+195511104
4317+195551896+196048407+196526595+196588585+196059276+195314230+195086319
4307+195616690+196261653+196317373+196039925+196294085+197229472+197929841
4297+197558128+196392112+195439133+195376133+196137464+197286690+198443718
4287+199292783+199483525+198789026+197447769+196184754+195678575+196072792
4277+197089346+198406566+199745001+200775715+201193289+200864633+199910104
4267+198753546+197936251+197664830+197662757+197595071+197445174+197371706
4257+197473217+197808509+198371696+199003369+199580629+200158830+200637575
4247+200675354+200293469+200059740+200274693+200475764+200179069+199656013
4237+199488471+199705863+199845536+199644814+199188485+198543714+197854283
4227+197682700+198488221+199773357+200530438+200542456+200449411+200614496
4217+200796059+200928487+201315980+201897177+202103751+201722842+201242686
4207+201063962+200951025+200558864+200024155+199705305+199711907+199949050
4197+200369655+200949580+201493380+201699485+201498292+201188691+201131456
4187+201365203+201555196+201271669+200376326+199241348+198504750+198466083
4177+198836176+199267370+199858338+200748544+201539206+201715648+201467462
4167+201426008+201662629+201543874+200682443+199630792+199284196+199722985
4157+200087417+199776736+199245389+199250823+199887652+200701759+201251970
4147+201380304+201321798+201482860+201836145+201817595+201097073+200146324
4137+199809690+200427220+201439908+201974895+201879306+201803904+202114794
4127+202276031+201590780+200159735+198864149+198528996+199117751+199826481
4117+200078743+200098076+200270600+200488252+200465069+200224408+199941456
4107+199695377+199628615+199937223+200455942+200649332+200272411+199733366
4097+199586621+199878943+200160328+200075398+199791767+199736065+200032812
4087+200429049+200654226+200546410+199991863+199109339+198319529+197964520
4077+198072650+198561567+199309138+200028684+200406667+200348370+200009228
4067+199706124+199689455+199841094+199791994+199429338+198984349+198581214
4057+198094195+197531636+197236317+197563894+198500848+199657441+200559073
4047+200947037+200888635+200586976+200126659+199628389+199497564+199982649
4037+200558550+200433944+199691981+199219210+199496710+200110060+200497710
4027+200665112+200995510+201625964+202212160+202311354+201916475+201517991
4017+201565141+201929156+202059110+201613493+200760039+199947656+199597751
4007+199912803+200767024+201777029+202539631+202862122+202848153+202724748
3997+202589568+202459492+202430161+202513261+202525471+202439636+202580720
3987+203154880+203817330+203999607+203595532+203101668+203022052+203382844
3977+203921994+204438292+204783930+204801522+204495997+204101031+203878118
3967+203973080+204447035+205251005+206112489+206616890+206597957+206320562
3957+206077131+205900549+205814958+205983702+206476364+207110719+207568981
3947+207732621+207935817+208500380+209022861+208776190+207865798+207088285
3937+206853093+207177656+208202431+209842820+211319726+211880736+211762016
3927+211692032+211788822+211542953+210846067+210454098+211066751+212369078
3917+213160176+212441536+210489508+208607377+207805358+208099771+209156542
3907+211104948+214126828+217491787+219828731+220546257+219981346+218369765
3897+216063843+214233007+214052960+215271455+216104896+215474860+214827877
3887+215750601+217449567+218187906+218296471+219060694+219680941+218708106
3878+217267202+217490847+219636683+222524917+225138211+226523116+225992396
3868+224784735+224607770+224833696+223557094+220868538+218915604+219286637
3858+222378764+228019008+234483635+236889692+232613540+226229226+221810875
3848+220169109+220881305+223079150+225701067+228117923+230299135+231987196
3838+232393048+231450555+230283145+229613832+229098666+228365831+227717192
3828+227482244+227777528+229343229+232997480+237286435+238833291+237579001
3818+236493664+235826163+233572424+230034768+227659383+228026079+231036917
3808+234955901+237763665+239757426+242312423+244562452+244553865+243223460
3798+242623104+242462076+241665666+240820520+241425161+244079927+248219873
3788+252868644+257291437+261178128+264860595+269373368+275571800+283002086
3778+290407413+297630985+305871791+316314344+329012360+342252731+353371407
3768+361207109+366301149+369113215+370393283+371690907+373624630+374978653
3758+374900970+375086086+378182166+385226754+394542062+402538078+407907980
3748+413207828+420647068+429542538+437072872+442799665+449476911+459154405
3738+471997093+486363245+499058474+507740751+513730761+520035545+528228800
3728+538599174+550427659+561385430+568756879+571852820+572438510+572810101
3718+573645249+574595215+576119132+578488647+579582379+576783097+571050487
3708+565321117+561227032+559018736+558196164+557963079+557645901+556789992
3698+555803588+556680294+561528116+570054713+579209360+585134576+586134078
3688+584517429+583542973+583967445+584973496+585547307+585176727+584952246
3678+586690332+589462337+589797386+587968588+587211820+587099023+584028128
3668+577490921+570586443+565589769+563146437+562854898+563799848+565241831
3658+566630133+567478170+568087932+569670825+573040190+577118843+578492374
3648+575090612+569357653+564315693+560805452+558532258+557395991+557781795
3638+559803825+562679780+565431580+568065567+571340911+574999203+576622505
3628+574489001+571087761+569638741+570970296+574358786+578217521+580270172
3618+579727295+578964640+580694818+585129629+590170614+593504935+594236272
3608+592902628+590804830+589298122+589218209+590465532+592262698+594335484
3598+597267176+601188754+605092010+607937170+609736844+611302215+613457492
3588+616117675+617433344+615432390+610545866+605692087+604147060+606364971
3578+609634707+611520843+612136806+612869537+614747453+617708963+619993480
3568+618906889+613835667+607956120+604637197+604381713+605722324+607001626
3558+607806188+609130566+611500917+613358907+612563820+609612969+607498799
3548+608168687+610761289+612957810+612926389+610333090+606650204+604108602
3538+603585859+603689460+602601615+600685868+600102721+601785836+603528102
3528+602037418+596958045+591293155+588287333+589019856+592002825+594453646
3518+594874739+594208474+594031788+594608734+594701327+592794916+589035880
3508+585632933+584474233+585026028+585371318+584727766+583832283+583108017
3498+581741626+578978609+575809374+574538990+576502114+580529802+583581571
3488+583232484+580201616+577636464+577311205+577680740+576324870+573215796
3478+570291873+568902283+568962687+569678593+570232374+570098605+569083218
3468+567348407+565243852+562888619+560319078+558080092+556940621+556943477
3458+557494750+558160876+558505330+557869197+556220256+554451724+553302394
3448+552692598+552197898+551414864+549954557+547901732+546136161+545481253
3438+545827762+546663049+547739817+548399254+547472070+544991918+542529008
3428+541023311+539937173+538985221+538783140+539328839+539724118+539601184
3418+539396734+539428399+539527959+539046706+537234107+534318405+531738030
3408+530670181+530895463+531363966+531169828+529902928+527919565+526332387
3398+525884193+525947001+525405935+524196340+523146709+522825421+523212758
3388+523824470+523822833+522796089+521474358+520879646+521060686+521425415
3378+521737228+521993652+521897088+521145650+519852658+518322471+516841786
3368+515810723+515561439+515889347+516181722+516161656+516119192+516323049
3358+516643641+516894178+517008160+516768039+516016044+515193123+514968050
3348+515360160+515895234+516354192+516780092+517069715+516999591+516403450
3338+515205281+513656840+512492078+512348764+513018583+513637959+513566093
3328+512871263+512066596+511518563+511132306+510447265+509159220+507688184
3318+506781797+506502103+506253342+505806227+505446968+505119793+504410366
3308+503395641+502638211+502482706+502862762+503434343+503706305+503513176
3298+503306601+503578040+504344144+505411088+506506701+507086191+506787232
3288+506038441+505514271+505314837+505348697+505921847+507176624+508426106
3278+508823963+508426350+508012677+508155294+508760283+509194369+508817379
3268+507588485+505927420+504020974+501959650+500417618+500138864+500796351
3258+501283352+500981641+500068044+499018239+498344484+498254191+498327241
3248+498141950+498040962+498451012+498870467+498514935+497539434+496672621
3238+496111455+495529806+494711867+493616218+492284490+491031838+490236402
3228+489759747+489146781+488503925+488483024+489145109+489411914+488208276
3218+485978173+484315436+484042221+484328151+483995959+483099292+482489356
3208+482279576+481648425+480116671+478273521+477100677+477005437+477539954
3198+477896078+477691105+477108968+476332588+475439021+474761434+474567749
3188+474456623+473694142+472080838+470140880+468568019+467478224+466160325
3178+463988675+461482048+459751034+459115981+458922748+458488070+457809264
3168+457456032+457758857+458132852+457655883+456285208+454853536+453870233
3158+452901700+451277213+449189657+447631009+447153309+447315399+447539949
3148+447676504+447442723+446352091+444537507+442758141+441502632+440742416
3138+440292410+439860588+439108105+438067915+437194065+436794815+436709293
3128+436570125+436055325+434967933+433487143+432310154+432106819+432710937
3118+433123669+432457230+430774254+428969110+427910074+427706669+427788114
3108+427610453+427107288+426562425+426324672+426485961+426595310+426032123
3098+424905959+424059037+423935266+424027162+423638084+422667496+421539137
3088+420703466+420218311+419755835+419093192+418395157+417886384+417581956
3078+417396178+417176644+416710405+415977743+415241738+414725544+414363185
3068+413900673+413212671+412558772+412335999+412434235+412139805+410890462
3058+408960258+407278676+406592241+406794705+407153999+407127141+406662714
3048+405896749+405054321+404471452+404263379+404157061+403872002+403401478
3038+402838221+402177112+401337575+400276519+399085038+397944835+396954111
3028+396087577+395332934+394722580+394190989+393560326+392795233+392113849
3018+391649491+391207776+390627276+390084503+389702322+389191598+388222821
3008+386952960+385972339+385727306+385974011+385939454+385201324+384156919
2998+383393602+382939172+382392567+381536657+380589443+379887890+379427364
2988+378890513+378201500+377710145+377594421+377471416+376958045+376284081
2978+375943807+375969760+375923986+375456841+374561567+373412760+372234238
2968+371209271+370404918+369902763+369850649+370107561+370106342+369457843
2958+368410825+367417036+366600700+365883157+365274092+364840319+364562645
2948+364278910+363746622+362903741+362056226+361561108+361367876+361158862
2938+360812283+360397183+359920667+359416875+359013375+358641226+358018018
2928+357088118+356122197+355346270+354778136+354302074+353723420+352992082
2918+352358179+351989584+351648231+351089712+350458561+349975148+349588334
2908+349143937+348602209+347995478+347393659+346970964+346924633+347240835
2898+347595148+347539724+346850154+345730191+344636563+343854156+343293478
2888+342732068+342106735+341490076+340965975+340633643+340549271+340599330
2878+340586476+340414876+340072791+339578056+339050750+338655854+338399325
2868+338150913+337847669+337496666+337070035+336559380+336024201+335507625
2858+335046088+334720271+334510039+334229055+333795979+333382377+333128913
2848+332934078+332635049+332208523+331758726+331423747+331237690+331040277
2838+330626500+329971243+329190927+328365533+327551844+326881503+326463720
2828+326202906+325866081+325370058+324864350+324484781+324188470+323900171
2818+323643781+323425954+323138456+322682076+322079211+321405352+320724979
2808+320115496+319620831+319187964+318767325+318402945+318129102+317883407
2798+317567762+317118836+316566658+316064050+315715346+315407644+315010866
2788+314595627+314211704+313704846+313024786+312429238+312111468+311860617
2778+311335819+310520597+309701160+309082864+308642124+308311883+308068975
2768+307829828+307482483+307046655+306635143+306258083+305773938+305056360
2758+304173244+303334020+302645669+302032459+301429107+300899467+300517739
2748+300256124+300023910+299756930+299435154+299013504+298405310+297608203
2738+296770860+296045549+295468672+295023160+294695183+294441058+294191357
2728+293911836+293617092+293303468+292898121+292356811+291779429+291267852
2718+290720811+289985589+289133302+288377858+287831793+287487061+287305428
2708+287226630+287152326+286982764+286702668+286421563+286249771+286147773
2698+285963005+285561542+284926594+284241344+283784528+283609288+283494086
2688+283300314+283106036+282920170+282601303+282115556+281575344+281004946
2678+280344202+279699849+279340990+279357172+279476640+279347104+278934564
2668+278515004+278296237+278203836+278068169+277839665+277529315+277106010
2658+276576579+276045877+275599929+275227433+274910272+274680723+274540110
2648+274425100+274303942+274209973+274133561+273980668+273693292+273320325
2638+272926039+272524036+272127381+271771118+271484978+271308432+271298643
2628+271449150+271613295+271563498+271179889+270582215+270012828+269609031
2618+269377078+269308209+269343932+269322456+269161220+269000436+268991780
2608+269043580+268934109+268613135+268255095+268039689+267989456+267999105
2598+267906147+267580016+267075597+266639752+266458990+266481668+266549110
2588+266583719+266583946+266533033+266391340+266165466+265946176+265835329
2578+265838970+265871959+265856109+265771580+265625828+265431690+265241296
2568+265144435+265178574+265302624+265503939+265817319+266185061+266445056
2558+266505165+266404194+266200841+265905680+265521461+265124597+264871760
2548+264838388+264883778+264798501+264520600+264110951+263648910+263227051
2538+262906756+262651393+262412317+262244932+262232165+262325385+262357033
2528+262217011+261945573+261646178+261401197+261261158+261189780+261047791
2518+260763532+260459609+260301317+260311715+260402601+260489411+260537537
2508+260547412+260517367+260436270+260318107+260198883+260092181+259972399
2498+259793118+259543016+259298714+259160522+259134569+259148556+259152440
2488+259138836+259106718+259031020+258854404+258552467+258193451+257865057
2478+257595865+257403938+257329617+257376035+257461295+257411463+257043860
2468+256403374+255852066+255719900+255909754+256029728+255867063+255547603
2458+255262405+255062849+254950713+254947404+254991384+254943920+254767618
2448+254573235+254468903+254449760+254413584+254244614+253926861+253580665
2438+253360505+253330651+253434339+253545586+253557291+253439773+253234208
2428+253028957+252919138+252912119+252893516+252767168+252604677+252567595
2418+252692881+252840235+252861834+252756595+252637597+252602134+252666563
2408+252805661+253002430+253209440+253317413+253292558+253298166+253502163
2398+253835400+254163517+254641234+255714466+257851575+261431452+266845212
2388+274590987+285236126+299275538+316982072+338317879+362900989+390016678
2378+418694325+447861551+476543413+503999585+529573627+552309964+571035334
2368+585106428+594797264+601012417+604839034+606606660+605128099+598417794
2358+585494984+567241218+544924406+519497301+494232947+475011345+466191050
2348+468681549+480667909+497595311+513185758+523655796+529224679+531333590
2338+531352401+530784755+530742674+531249357+531486413+530642452+528483379
2328+525325500+521529015+517031256+511443562+504560960+496546795+487590188
2318+477812472+467575763+457487070+447935298+438706695+429166558+418841366
2308+407744462+396236882+384837118+374099543+364330989+355349509+346714748
2298+338232045+330100971+322591991+315729803+309329499+303253829+297577861
2288+292501797+288115825+284294730+280866509+277810020+275183453+272933372
2278+270924614+269130373+267648329+266501594+265519963+264478972+263316300
2268+262149657+261114744+260271306+259639424+259205216+258877082+258523675
2258+258077623+257561482+257021322+256483234+255969532+255496238+255043655
2248+254581526+254114834+253658558+253211391+252808326+252528039+252390892
2238+252318695+252219222+252046002+251796980+251527440+251341906+251305938
2228+251356101+251334015+251152139+250909474+250778144+250810803+250943909
2218+251116990+251274934+251333789+251258161+251125019+251065625+251165829
2208+251395187+251622158+251755787+251839915+251942976+252047308+252129625
2198+252238695+252421338+252674174+252987242+253330372+253611338+253753903
2188+253802133+253868738+253993850+254101962+254103356+254007958+253905141
2178+253851913+253850432+253905542+253994512+254013462+253880164+253666309
2168+253516115+253459002+253400722+253280348+253139020+253018872+252895345
2158+252748879+252599853+252430761+252188636+251888928+251625519+251506556
2148+251618448+251970757+252498777+253231195+254350166+255951940+257890156
2138+259993423+262324340+265100368+268412726+272137222+276141379+280448936
2128+285105074+290042545+295226565+300772213+306774833+313128283+319567393
2118+325819018+331679370+336918082+341158232+344012902+345336096+345209817
2108+343758184+341070655+337235260+332424399+326938111+321085527+315074023
2098+309057887+303169527+297492584+292118623+287176658+282751322+278854843
2088+275463931+272522643+269977574+267818291+266013443+264495310+263254833
2078+262306922+261548099+260803715+260024984+259352744+258983557+258983121
2068+259224967+259490118+259581300+259406182+259060422+258758119+258617905
2058+258606654+258650494+258668417+258597352+258491296+258476978+258593050
2048+258780692+258977931+259161880+259360582+259598648+259805398+259874686
2038+259816301+259755635+259810292+259996175+260227134+260435765+260654584
2028+260909546+261161982+261424206+261755301+262146713+262578378+263052647
2018+263436065+263516970+263340754+263213988+263319418+263545762+263686968
2008+263673364+263597475+263561264+263561124+263569015+263616791+263700623
1998+263762840+263900161+264354260+265094237+265653279+265652843+265284039
1988+264991838+264951847+265072082+265243072+265402480+265507753+265549521
1978+265554833+265590139+265743172+266033875+266397558+266796930+267221419
1968+267558836+267667157+267608094+267604993+267756093+267985694+268261992
1958+268656087+269158625+269629253+269970137+270212766+270438205+270737999
1948+271257642+272163436+273425093+274566097+274880593+274227478+273298065
1938+272782760+272735627+272878366+273048277+273221862+273421522+273694511
1928+274104108+274775424+275778183+276841643+277577823+278089035+278708986
1918+279190396+279001204+278362320+278087555+278581697+279547809+280412654
1908+280843309+280955688+281051347+281217565+281330484+281372601+281559877
1898+282128062+283024259+283895427+284553610+285244016+286086619+286608665
1888+286376033+285715132+285232294+285107635+285181504+285304978+285436117
1878+285600732+285817305+286107119+286726322+288161286+290458848+292566243
1868+293006529+291682116+289967179+288931378+288632454+288746279+289066174
1858+289434891+289712078+289923756+290218761+290716143+291480836+292588781
1848+294203096+296378995+298441539+299014062+297751865+296087178+295336785
1838+295528311+295965288+296316779+297088770+298864304+301170732+302674374
1828+302956054+302878406+302831691+302373708+301544134+301038740+301151398
1818+301534798+301882875+302372001+303360182+304785270+305991381+306365655
1808+306093032+305970410+306674228+308344907+310488618+312168041+312742096
1798+312629995+313041507+314915870+317952660+320260133+320046243+318190517
1788+316995901+317435387+318897923+320498304+321945617+323159427+323967926
1778+324639521+326069242+329021103+333106444+336375901+337070348+335812993
1768+334183873+333071016+333131630+334692751+336900943+338410019+339256872
1758+340287447+341408142+342383852+344147611+347624584+351899082+354655968
1748+354988195+354238708+353968035+354822517+356705240+358937886+360689523
1738+362310665+365361041+370145288+373689946+373063603+370157202+367686141
1728+366256246+365870686+366492953+367740694+369631464+373113487+378792346
1718+385057662+388264798+387045170+383931741+381471967+380669356+381786672
1708+384664055+388322729+391446191+394265398+398358751+403722174+407644206
1698+408621239+407825490+405712957+402977041+401619917+402594163+405328337
1688+409494009+415736089+423366158+427945885+426660905+423325853+421816498
1678+423108374+426480457+430162959+432948725+435721392+439317746+442151236
1668+442434727+441851719+443107193+446363552+449580582+451327829+452653636
1658+455530635+461317659+470501567+480800702+485817441+485410632+486281660
1648+490369021+494596770+495712727+495146789+495856981+498851586+504286874
1638+512238893+521447152+528204624+530580828+531978291+535895307+542883147
1628+551688776+561272458+571781337+583032180+593435263+602314709+611591560
1618+623175499+635560379+644687296+650118370+654790376+660104960+665279295
1608+669155100+671676220+673739251+676020005+678450343+680821600+683271446
1598+686017046+689160607+692808797+697073506+701976820+707212118+711960414
1588+715551264+718330028+721157143+724318192+727636418+731310456+735963024
1578+741685810+746982697+749970683+751945023+755856291+762442581+770062722
1568+777012417+783764594+791521638+800559447+811344398+825487359+842662267
1558+855327015+858841018+859194251+860014698+860784633+860807346+860210265
1548+859522541+859474120+860353927+861707497+862893369+862555046+858505133
1538+851841090+846034210+841936015+838456221+834867392+831723273+829948610
1528+829832956+830745299+831634651+832067657+832141927+831887488+831418113
1518+830825282+829784534+828221114+827015037+827456265+830460484+835955167
1508+841614065+842278449+836349575+829695982+826057059+825114688+825747720
1498+826644108+826279241+824526106+823141114+823336750+824360358+824315003
1488+822360936+819730085+818000778+817687467+818321683+819193896+820238754
1478+822024982+824783402+827857988+829823759+829055287+825715880+822494984
1468+821698016+823335844+825419081+825963352+825622730+826612129+829753879
1458+833044795+832495368+827819948+823241440+820918047+820111952+819362221
1448+817884566+816029364+814604171+813854788+813530609+813824412+815420508
1438+818020704+819470908+818330671+816391235+815460986+814920199+813476753
1428+811420688+810168768+810473509+812109527+814415920+816380088+816550852
1418+814405399+811654713+809897259+808844041+807671267+806219529+804756993
1408+803663923+803344202+803569100+803408996+802683998+802498255+803711020
1398+805677209+806820512+806135436+804087941+802405035+802516857+804049692
1388+804876131+803316264+800966814+801280334+805369681+811161442+816110182
1378+819612341+822527032+825440818+828142804+830364756+832365710+834413972
1368+836307355+837929298+839691142+841688683+843077786+843235591+842795827
1358+842606043+842700726+842751795+842686373+842578104+842427615+842302416
1348+842370903+842640669+843059253+844025174+846151537+849233578+852107721
1338+853856676+854565370+854826916+855364986+856922414+859610187+862497219
1328+864403770+865173009+865983493+868228994+872035615+876133531+879370034
1318+881860150+884327553+887090013+890158957+893599456+897319407+900906773
1308+904017101+906753992+909540629+912658899+915798489+918181033+919516907
1298+920508815+921711896+922403034+921682007+920232569+919543870+919652975
1288+919053942+916876998+913974429+911656332+910443497+910073891+909822239
1278+908919650+907347869+905933824+905259059+905073873+905102578+905581427
1268+906542192+907431683+907919730+908421362+909531711+911492953+914249212
1258+917429351+920244901+921973232+922662210+923030004+923631127+924383853
1248+925058827+925727183+926300297+926179069+925025803+923479592+922432365
1238+921762756+920349686+917617881+914679501+913271169+913680557+914478918
1228+914452652+913903017+913609562+913510350+913153913+912718956+912742017
1218+913350107+914282655+915253661+916134792+917095139+918441951+920126669
1208+921773276+923221321+924629096+926250831+928405550+931356819+934804076
1198+937697518+939108846+939292639+939414424+940260232+941719772+943495341
1188+945568196+947731276+949561745+951294118+953693592+956746720+959414218
1178+960904484+961570749+962378167+963679345+964811710+965273978+965772614
1168+967177115+969238056+971365186+973576896+975669956+976775776+976636434
1158+976166989+976413347+977772421+979700570+980643081+979435541+977269187
1148+976900139+979558371+983574075+986405649+987488199+988283913+990071535
1138+992891753+996441009+1000606019+1004611900+1007023078+1007361680+1006698271
1128+1006181381+1005915238+1005662401+1005603390+1006213151+1007733654
1120+1009769584+1011662966+1013784034+1017814648+1024289535+1030630304
1111+1033187513+1030815560+1025869049+1022235630+1022467286+1025496517
1103+1027087179+1024588911+1020752540+1020261289+1023819046+1028036587
1094+1030600763+1032850444+1036038874+1038267583+1037687153+1036114397
1085+1036237227+1037941314+1039565905+1040702520+1042189371+1044300128
1077+1046047549+1046465785+1046719806+1049264892+1053805639+1056785751
1068+1056208456+1054483399+1055073932+1058686937+1063052321+1064524681
1060+1061279330+1056050442+1053917043+1057189774+1063287322+1067662529
1051+1068444727+1067045591+1064756756+1061841437+1059952513+1061490921
1043+1066402457+1071593374+1073741823+1072376339+1069334358+1066091167
1034+1063055178+1060669778+1059643940+1060135191+1061700492+1063851101
1025+1065875186+1067140484+1067946300+1068604901+1068105638+1065568146
1017+1062264689+1060187026+1059807667+1060412134+1060995490+1060284636
1008+1057765397+1055006978+1054201162+1055307330+1056198703+1055846515
1000+1055571244+1056504837+1057689038+1057660960+1056277570+1053941915
991+1050986257+1048466740+1047605117+1048196207+1048565603+1047440624
983+1044964372+1041594171+1037840917+1035114199+1034696032+1035936318
974+1036817797+1036455577+1035877097+1035990104+1036135020+1035020212
965+1032276075+1028788199+1025693547+1023471526+1021986346+1020363079
957+1017250661+1012218733+1006394018+1001334291+997982901+996525729+996195070
947+995172368+991802305+986875721+983519175+983648066+985415762+985247158
937+982330655+979429967+978951396+979970824+980027327+978640593+977293572
927+976668761+975915128+974287123+971634255+968058594+964841738+964565632
917+968127986+972383220+973118251+970141064+966946712+966139990+967270474
907+968268165+967859195+966906651+967190143+969012043+970756330+971179303
897+971069989+971442242+972040926+972495112+972972359+973131418+972049844
887+969623686+966667331+963402681+959397218+955413354+953751070+955785467
877+959714222+961662157+959523811+955014974+951281507+949585294+949065269
867+948943414+949606613+951099039+952488211+953500324+954595624+955180443
857+954067168+951870925+950404627+949605429+948135090+946510359+946537252
847+948359361+950088041+949952949+948132442+946420692+946375057+948128192
837+950737724+952976745+954104512+954518707+954884341+954711974+953381674
827+951792197+951165435+951593077+952818731+954847345+957337252+959596199
817+960670180+959527712+956620058+954389467+954688286+956591910+958395626
807+960105077+962177793+964015718+965025810+965600387+966362520+967272843
797+967647116+966927344+965698066+964805370+963289675+959672698+955341732
787+953744312+955940485+959145915+960106192+958651319+957264446+958131364
777+960829518+962609476+962117946+961714480+963481340+965585408+965361973
767+963786639+963969108+966786608+970321442+972435822+971966238+968300283
757+962382208+957292245+955516049+956909332+960080483+963597203+965650063
747+965720779+966353045+969910731+975731754+981723192+986512595+988772447
737+986891536+981664738+976425818+973704881+973792876+975487835+976775218
727+976123863+974281828+973492524+974472588+975851519+976047573+975103947
717+974373376+974348852+973685374+970553238+965692493+962051688+960068500
707+957305900+953658826+952693881+956420241+961840724+964176519+962381651
697+959438812+957578941+956092996+954299800+952994372+952301841+950778552
687+947069609+941363822+936030288+933789735+934869985+937638089+940392746
677+942104844+942686389+942205171+940136705+934665919+923258456+906876265
667+894297491+891903034+896151788+901825944+905434421+905742298+904640379
657+904632994+906366064+908389592+908149923+905188622+902901249+904813233
647+909940471+914206434+915027648+912601351+908669112+905064328+901740946
637+897349574+891692070+886440399+884098474+885031231+886895491+887908161
627+888456403+889616219+892632560+899980844+912279610+922902367+922591006
617+910216648+893703545+882086233+879387870+883810523+889431311+889797154
607+883554203+875481340+870346090+869396821+872313533+877724750
##END=
