##TITLE=<SNM>
##JCAMP-DX=4.24
##DATA TYPE=INFRARED SPECTRUM
##DATE=2/5/2025
##SAMPLING PROCEDURE=Instrument type and / or accessory
##ORIGIN=Admin
##XUNITS=1/CM
##YUNITS=ABSORBANCE
##RESOLUTION=4
##FIRSTX=4497.3318
##LASTX=599.83466
##DELTAX=-1.4281778
##MAXY=1.8537235
##MINY=0.38588533
##XFACTOR=1
##YFACTOR=1.7264146e-09
##NPOINTS=2730
##FIRSTY=0.41482982
##XYDATA=(X++(Y..Y))
4497+240284013+241267478+241796765+241285172+239522165+237214213+235539694
4487+235091886+235540246+236275562+236888745+236982860+236241727+234880886
4477+233691151+233608549+235078956+237514115+239576749+240419904+240386846
4467+240197786+239955731+239338008+238377260+237542478+237125553+236977992
4457+236859571+236695491+236504170+236400715+236630359+237237224+237723527
4447+237429339+236207064+234513400+233052436+232416984+232773542+233715801
4437+234656300+235386212+236015519+236482764+236535398+236277305+236271194
4427+236829673+237594352+238000643+237764060+236897963+235721693+234792070
4417+234402765+234339774+234380755+234656196+235334649+236207789+236671668
4407+236161508+234869700+233847135+233973600+235051112+236186763+236717811
4397+236500010+235671476+234494584+233307059+232468064+232194125+232296423
4387+232278763+231879774+231266729+230610061+229948077+229539438+229647570
4377+229959349+229963924+229855360+230209760+230854741+231001213+230528772
4367+230235481+230650093+231404328+231912590+232013489+231848321+231636510
4357+231605627+231756381+231814210+231653099+231457687+231319776+231065102
4347+230569822+229870896+229023149+228224946+227913409+228416457+229600254
4337+230871088+231442341+230853480+229533050+228601494+228727200+229435016
4327+229866736+229846677+229715032+229438331+228541697+226881833+225019186
4317+223748542+223518346+224216806+225272704+226067541+226430555+226672853
4307+227054718+227382741+227365547+227239358+227623536+228640300+229572961
4297+229641269+228892800+228114086+227966957+228417095+228994338+229266879
4287+228869167+227626488+226103637+225363712+225685504+226236956+226465236
4277+226899769+227838403+228360060+227667814+226398810+225642140+225518920
4267+225515934+225514863+225706409+225957078+225981712+225876617+225960651
4257+226292887+226762618+227484313+228601511+229704053+230063891+229587790
4247+228948558+228668352+228713994+228989694+229516703+230087627+230270576
4237+229831227+228961712+228124702+227711126+227725264+227833224+227739091
4227+227469658+227373816+227752004+228383278+228723419+228703447+228838354
4217+229408795+230170004+230881618+231411993+231432604+230742448+229760951
4207+229192426+229361323+230047682+230694389+230752702+230116594+229252724
4197+228719432+228586182+228525901+228299555+227900393+227381152+226858114
4187+226593911+226746495+227071618+227143343+226877949+226626606+226739521
4177+227202848+227795402+228488476+229430079+230500703+231207794+231201062
4167+230644845+229892716+229051529+228098567+227195304+226607117+226472590
4157+226786147+227403991+227963815+228047470+227606878+227050229+226799681
4147+226930272+227240100+227451825+227403404+227205351+227090054+227086532
4137+227130034+227434753+228205025+228941981+228822817+227970479+227396154
4127+227478720+227581743+227309789+227057221+227190125+227597245+228024010
4117+228202298+227912356+227328640+226891310+226652707+226297962+225843473
4107+225673230+225863964+226076431+226165938+226393165+226949865+227673148
4097+228280514+228549827+228239274+227240135+225917512+224908551+224484203
4087+224440511+224568150+224860492+225330862+225941197+226618648+227175003
4077+227365633+227108456+226584434+226208007+226350285+226835932+227022747
4067+226631405+226012370+225493717+225072321+224758764+224736167+225156372
4057+225956129+226759096+227042289+226725711+226431298+226797385+227632564
4047+228080821+227715545+227091780+226920121+227149040+227256983+226930496
4037+226085840+224865860+223923774+224023586+225090343+226145723+226346539
4027+225812884+225395078+225756073+226714904+227491719+227541038+227057825
4017+226653363+226591442+226579462+226409133+226338788+226535874+226744907
4007+226906657+227400797+228292736+229055862+229328541+229329111+229290995
3997+228980234+228066925+226806931+226032239+226303417+227299725+228282758
3987+228905125+229183846+228989556+228181341+227107645+226416832+226403868
3977+226867471+227519995+228209876+228782302+229039980+228912703+228535448
3967+228186658+228227345+228917917+230111311+231225350+231694892+231454027
3957+230890888+230476363+230559033+231345964+232748771+234135748+234574027
3947+233749843+232511186+232039884+232614468+233462249+233756973+233436925
3937+232964691+232787404+233155166+234014323+234852730+235048229+234685266
3927+234561770+235178423+236127173+236703535+236850457+237004318+237227333
3917+237012587+236068756+234938940+234408237+234555262+234831377+235117003
3907+236289458+239312511+243717120+247342377+248358779+246878584+243943035
3897+240578616+238136603+237979842+240162795+242670751+243340866+242854787
3887+243180100+244240728+244479089+243951977+243758481+243212847+241409462
3878+240006103+240980246+243772171+246456428+248211978+248915048+248313568
3868+247386690+247630731+248563841+248237164+246252247+244347290+244182709
3858+246576904+251891181+258841602+262143601+257958208+250961333+245944680
3848+243982221+244672033+247096679+250161473+253339008+256619204+259140659
3838+259194328+256867992+254367235+252863822+251759295+250612129+249930707
3828+249947452+250388752+251826308+255267770+259553061+261463922+260716057
3818+259827001+258911153+256340483+252752755+250509745+250967064+253928628
3808+257663640+260240629+262174466+264940203+267380213+267242372+265624819
3798+264695040+264061108+262916928+262238441+263115137+265277807+268224680
3788+272212520+277276714+282433349+287110534+292245660+298495360+304723655
3778+310012625+315743619+323706939+334259399+346835479+360027867+371232990
3768+378464170+381904562+382939314+383460056+385091333+387777248+390040748
3758+391331608+393088176+396966036+403201132+410229200+415729947+419672369
3748+424594475+431816782+439496028+444415407+447470603+452788194+462488506
3738+475816991+489885627+501427818+509787278+517500498+527011819+538255368
3728+549436013+558363446+563816272+566915728+569509876+571693761+572730274
3718+573067964+574347326+577896300+582608045+584148900+579595798+572512973
3708+568035101+567330996+568699433+570074637+570259071+569453186+568788681
3698+569045133+570094697+571339327+572597801+574565352+577786130+580817158
3688+581090321+578807210+576996162+578185241+582396544+587510334+591795175
3678+594691763+594527423+590455325+586750367+587093546+588919303+586995012
3668+581184091+575411701+571396155+568431519+565886017+564386350+564682576
3658+565863818+566046835+565833366+568340925+574366384+579492223+577561027
3648+569824158+563130189+559919596+558754201+558298987+558161715+558503721
3638+559708820+561544313+563029065+564073760+565903452+568468288+568776217
3628+564957568+560191861+557604411+558020887+561643503+567295401+571862934
3618+573790678+574968778+576811211+578483710+579552435+581115179+583146153
3608+583592632+581651768+579266498+578288643+578664138+579925513+582833908
3598+588251104+594838425+599369845+600005038+598150695+596662387+597371325
3588+599864176+602297712+603830627+604743402+604689543+603038207+600581676
3578+599382551+600688359+603463970+604864171+603182591+600186019+598871993
3568+599713853+600523536+599765503+597822223+595589899+593736384+592601198
3558+592401160+593702411+596685795+599744443+600644581+599619255+598987376
3548+599576167+599699629+597819599+594810391+592680054+592136560+592390388
3538+592654988+592682609+591926025+589635630+586180288+583127924+582034030
3528+583589524+586988038+589718559+589381801+586312865+583051416+581292569
3518+580528598+579271746+576821085+573736646+571019072+569442517+569412929
3508+570763724+572564208+573323864+571950663+568980054+566304082+565081548
3498+564747137+564391598+563975329+563760721+563610053+563369689+563160260
3488+563001652+562715922+562463129+562729249+563324392+563194820+561824725
3478+559780770+557681057+555730319+554121380+552837806+551414543+549543041
3468+547453547+545732091+545152621+546069056+547511653+547726433+546151432
3458+544051788+542936696+543097031+543753008+544185884+544336310+544261217
3448+543674912+542350805+540518385+538605694+536762261+534718133+532172666
3438+529477705+527601093+527136696+527729389+528629631+529336153+529535397
3428+529031745+528038768+527042132+526190501+525214062+524084401+523210501
3418+522765887+522336567+521494603+520328345+519204277+518370875+517852032
3408+517473257+517155695+517183177+517753083+518411581+518499102+517942419
3398+517190151+516622421+516201870+515500078+514073052+511990774+509965601
3388+508837078+508818849+509357337+509713360+509547363+508879855+507850144
3378+506724487+505827007+505458141+505842060+506761740+507336134+506858548
3368+505806672+505345071+505982992+507246956+508277288+508277081+507076056
3358+505654796+505339478+506249974+507195444+507213156+506580207+506103829
3348+505899959+505300844+504034291+502902627+502726791+503241422+503708719
3338+503947150+503973768+503397234+502140313+501130074+501316406+502303686
3328+502667339+501735644+500454314+500009838+500245437+500093699+499034745
3318+497465959+496063273+495264742+495106893+495244821+495102577+494172229
3308+492453777+490664962+489638047+489483651+489694530+489794273+489608839
3298+489344446+489632834+491026785+493193408+495003939+495548158+495018267
3288+494546378+495029522+496269664+497473347+498159050+498141891+497285600
3278+495982588+495178947+495238641+495408262+494889972+493889710+493200382
3268+493222374+493634777+493729479+492960743+491413086+489878238+489160565
3258+489201477+489213319+488734974+488088768+487649401+487298384+486948749
3248+486997809+487732158+488624079+488728034+487716829+486148733+484644854
3238+483180195+481617278+480591848+480965548+482394093+483337699+482755536
3228+481145044+479713081+479076369+478924493+478586837+477666778+476139732
3218+474195175+472271816+470960241+470538068+470723952+470953647+470813026
3208+470377285+470093730+470085237+469837140+468911694+467613999+466548589
3198+465771498+464754147+463216053+461705131+460991980+461073252+461299910
3188+461306090+461158737+460791804+459978565+458695267+457092024+455371190
3178+453848563+452829313+452312403+451963044+451306722+450013584+448230155
3168+446539322+445417084+444909841+444868445+445093791+445136498+444455387
3158+443022492+441482016+440520250+440227201+440106087+439528827+438255265
3148+436602203+435089071+433974463+433194264+432584344+431912002+430865581
3138+429434101+428181668+427735880+428057585+428495087+428465568+427777137
3128+426482688+424902473+423677868+423326989+423732314+424314580+424557775
3118+424146615+423002833+421597420+420770785+420800200+421004762+420549721
3108+419331917+417901680+416822977+416248100+415952634+415685858+415379517
3098+415024496+414611506+414182739+413736847+413217659+412756127+412599072
3088+412642263+412466496+411949241+411390348+410997107+410623408+410025640
3078+409167380+408226399+407375182+406630752+405957202+405438600+405214325
3068+405172204+404844803+403862494+402466127+401285437+400648242+400411054
3058+400341314+400263390+399931535+399174538+398161364+397277832+396759334
3048+396585327+396641534+396715763+396348278+395173906+393614028+392657855
3038+392654023+392879368+392584662+391894367+391339272+391057927+390813420
3028+390387553+389706718+388801642+387736198+386517945+385175229+383926007
3018+383056665+382641604+382584638+382776252+382944631+382603178+381524026
3008+380111604+379000828+378371919+377837884+376980902+375870437+374948030
2998+374494784+374436333+374603020+374818043+374761559+374177705+373217251
2988+372259698+371484920+370837367+370250820+369720445+369249937+368805288
2978+368290139+367635819+366944523+366386701+365932696+365380122+364667489
2968+363962003+363430523+363091418+362868351+362659371+362393804+362086150
2958+361761166+361327012+360655534+359795548+358973056+358353123+357903952
2948+357511781+357117159+356681728+356133573+355474317+354871819+354547283
2938+354587332+354829249+354867779+354299185+353101751+351680387+350479984
2928+349677102+349166994+348635307+347754434+346557241+345512512+345036480
2918+345073421+345278880+345389257+345292483+345028401+344838064+344904317
2908+345036134+344943572+344680629+344407708+343968549+343168292+342211463
2898+341460576+340975464+340556744+340068593+339539289+339020066+338485065
2888+337944367+337553922+337431048+337428734+337325815+337135789+336976317
2878+336785048+336395743+335749917+334901704+334003844+333344069+333153525
2868+333343793+333627728+333799628+333698953+333158738+332268371+331411803
2858+330817971+330351537+329859036+329410175+329125861+329012998+328981477
2848+328866370+328487872+327814666+327026148+326343828+325865897+325632611
2838+325694583+325938365+326017738+325684019+325009674+324164085+323257491
2828+322446461+321860674+321457006+321178907+321070118+321053719+320892348
2818+320511502+320089156+319755195+319436528+319016876+318471793+317852827
2808+317273013+316885365+316732867+316636991+316376016+315951288+315544099
2798+315260579+315059125+314867579+314626663+314247267+313659650+312920122
2788+312168269+311458778+310773800+310220880+309988388+310017320+309960871
2778+309586481+309001384+308406965+307845380+307255208+306595157+305868990
2768+305168165+304686402+304532144+304527138+304345052+303824863+303035515
2758+302164792+301482162+301187041+301112156+300809026+300106474+299338187
2748+298848414+298527917+298039905+297310286+296576800+296076462+295852325
2738+295778062+295667029+295418655+295067949+294661485+294180447+293617135
2728+293004246+292383830+291841095+291466083+291207525+290892380+290423874
2718+289846372+289253594+288722546+288276050+287868464+287458046+287081170
2708+286829327+286761502+286818210+286820851+286621883+286252982+285855564
2698+285495519+285150924+284844772+284620238+284363717+283869455+283168855
2688+282552754+282176102+281908188+281630606+281398079+281264778+281167624
2678+280985625+280636697+280159439+279652628+279105716+278484160+277983011
2668+277879211+278123649+278392427+278510745+278535620+278481485+278230004
2658+277714354+277071013+276563132+276322302+276214532+276060325+275876324
2648+275720115+275460158+274963152+274367197+273928676+273733609+273710150
2638+273738995+273651129+273331047+272880131+272498543+272223481+271969428
2628+271766334+271745274+271891678+271980994+271819779+271465672+271138806
2618+270957411+270848036+270696453+270490787+270290921+270124079+269959981
2608+269778551+269608930+269471796+269338650+269198702+269079314+268933152
2598+268651566+268291710+268098784+268172254+268311148+268316689+268237644
2588+268199373+268198648+268174394+268117100+268016286+267803163+267434055
2578+267015317+266769240+266812154+267015455+267164863+267190912+267158130
2568+267129975+267134170+267179156+267248034+267325008+267417172+267517709
2558+267604626+267687607+267787022+267862460+267828884+267641637+267309402
2548+266854189+266328061+265844726+265518430+265371784+265334566+265314006
2538+265248789+265100348+264799341+264276959+263638382+263187070+263095061
2528+263168219+263127117+262973325+262894884+262956270+263040373+263010043
2518+262848120+262658318+262524447+262424894+262355999+262412741+262608999
2508+262753366+262664032+262403782+262168079+262032050+261938228+261857923
2498+261816268+261781415+261661250+261422803+261143823+260936413+260834374
2488+260760283+260637339+260507318+260454132+260458344+260435022+260358722
2478+260264278+260181159+260096590+259935962+259623354+259206774+258842793
2468+258636989+258577813+258604449+258655443+258666077+258570874+258330475
2458+257980184+257647741+257457197+257389770+257288145+257031813+256660824
2448+256294892+256017552+255901928+256008230+256239048+256361112+256283603
2438+256132659+255999634+255857753+255730044+255667865+255579187+255329173
2428+254982213+254735635+254650721+254617973+254554257+254494978+254490748
2418+254519059+254534302+254557106+254675527+254949414+255312739+255599574
2408+255698143+255654797+255594343+255578255+255578876+255563374+255567880
2398+255690617+256039994+256752971+258104439+260555256+264645583+270854699
2388+279587807+291271500+306402403+325385860+348213825+374313216+402786140
2378+432754207+463325981+493240673+520875845+544990146+565337689+582205758
2368+595565386+604978932+610205826+611722514+610490865+607074261+600872999
2358+590496548+575267179+555689545+532774577+509249377+490225526+480202232
2348+480931851+491568242+508160179+523879874+533581670+537400319+538165189
2338+537991113+537800500+538219600+539553892+541268719+542468639+542635810
2328+541387002+538287546+533331743+526953368+519573661+511430501+502601016
2318+493165581+483476835+474060665+465080340+456045430+446204015+435195236
2308+423282797+411088565+399213862+388002697+377508791+367647938+358339659
2298+349503786+341068993+333057649+325548887+318553583+312027268+305953439
2288+300334167+295163964+290459435+286284262+282734339+279857534+277532113
2278+275496599+273577677+271810647+270294840+269020397+267863651+266694493
2268+265493502+264379809+263497434+262876689+262417402+261969301+261416295
2258+260735183+260002043+259324108+258753356+258257092+257750937+257173798
2248+256567157+256062279+255740868+255531905+255299344+255006640+254736740
2238+254567204+254464095+254310493+254052400+253784348+253631971+253585328
2228+253515345+253303706+252941711+252588087+252483873+252675142+252899694
2218+252891563+252686069+252493937+252413528+252385287+252318153+252180967
2208+252040277+252023395+252176790+252379987+252467232+252403292+252269041
2198+252129041+252010776+251957313+251993237+252085592+252209951+252377536
2188+252548280+252626134+252591281+252525856+252480749+252428823+252355768
2178+252282920+252213093+252147219+252114852+252122741+252137189+252134893
2168+252086196+251931489+251690659+251520519+251540561+251679991+251784325
2158+251789660+251744345+251725167+251745916+251711650+251501254+251125949
2148+250753406+250558149+250603722+250875832+251352416+252005200+252782256
2138+253642795+254603266+255708794+256960536+258330527+259851151+261600037
2128+263584678+265760485+268160394+270857910+273809754+276881936+279990784
2118+283078295+286008165+288587742+290651049+292082253+292801376+292753490
2108+291928616+290409511+288362811+285959035+283330225+280609526+277971670
2098+275571156+273402289+271303422+269193213+267195901+265435984+263867594
2088+262415555+261121657+260062652+259255386+258672723+258256315+257925168
2078+257633379+257399523+257258488+257203351+257163855+257045019+256838818
2068+256690688+256758185+256995821+257196567+257263080+257287489+257357282
2058+257452277+257540783+257626094+257709006+257816189+258026464+258378206
2048+258788779+259128523+259356872+259530016+259661418+259663282+259505537
2038+259342303+259370441+259633108+260023742+260396440+260639566+260723410
2028+260721995+260770106+260966605+261291193+261649460+262033863+262528728
2018+263084461+263464566+263538035+263437929+263337099+263271225+263234905
2008+263259745+263349683+263464030+263586612+263753558+263996908+264258367
1998+264429214+264576447+264986363+265755375+266491917+266725289+266468233
1988+266080153+265819747+265758621+265857397+265980565+266018370+266011362
1978+266053707+266169798+266335863+266506607+266661780+266933337+267510304
1968+268275829+268781276+268778048+268513241+268341306+268371066+268597637
1958+269044254+269642695+270212705+270635896+270921781+271156966+271482797
1948+272049164+272946869+274126160+275223419+275626811+275114113+274208209
1938+273548676+273316615+273412388+273733091+274163067+274577092+274909621
1928+275205950+275675060+276466220+277314398+277876881+278373041+279109945
1918+279603153+279175008+278186071+277609501+277820674+278460321+279015346
1908+279240122+279220788+279152117+279070466+278907628+278743375+278818709
1898+279283416+279993356+280638078+281184541+281975770+283087306+283906432
1888+283839902+283135831+282478663+282240595+282411926+282814955+283250886
1878+283641417+284027408+284476976+285243986+286836422+289376020+291799354
1868+292451015+291110164+289297371+288325490+288316358+288760920+289212785
1858+289488589+289640465+289843334+290211406+290787216+291654970+292959052
1848+294894219+297467237+299816739+300311139+298624864+296540997+295642620
1838+295952241+296623858+297227909+298287657+300391237+302955658+304526965
1828+304716991+304463232+304132481+303297526+302154780+301542028+301759329
1818+302370596+302957039+303633559+304770712+306320682+307586545+307901345
1808+307456213+307143623+307796320+309658224+312166784+314189575+314953547
1798+314900137+315322517+317208036+320232435+322406965+321889882+319698919
1788+318336455+318848842+320543956+322403201+324079982+325495753+326455586
1778+327211340+328688324+331674435+335760171+338961753+339500586+337971262
1768+335939701+334387901+334169806+335760447+338284474+340182043+341239236
1758+342223098+343156311+344031557+345930990+349714838+354274811+357187832
1748+357617566+356970635+356768041+357594089+359270455+361041386+362216483
1738+363488560+366538819+371503218+375236659+374728726+371802447+369204468
1728+367729659+367487776+368291934+369593600+371480915+375071457+380969829
1718+387300594+390105241+388166001+384443814+381618660+380613876+381666995
1708+384676893+388648938+392072482+394969069+398897715+403981951+407693849
1698+408597647+407683699+405226616+402065704+400494881+401487616+404264125
1688+408392568+414671097+422497524+427074344+425273204+421299399+419469706
1678+420848674+424572621+428630529+431594267+434251872+437470233+439795844
1668+439622804+438698533+439715746+442852110+446001421+447602937+448779277
1658+451748919+457998550+467869450+478513230+482950465+481749786+482419918
1648+486754061+491103810+491783782+490494201+490691097+493586580+499270482
1638+507577085+516919267+523382195+525291088+526451373+530427836+537631845
1628+546614449+556235387+566775280+578239376+588958040+597996644+607241155
1618+618766740+631221534+640620786+646416516+651270953+656486937+661762580
1608+666719004+671360283+675664183+679305753+681874904+683462990+684824383
1598+686756616+689578145+693180564+697305278+701767165+706406855+710910724
1588+714957343+718445760+721372936+723746813+725801057+728155738+731633866
1578+736543958+741684539+745242834+748140526+753003595+760518329+768998593
1568+776574851+783645385+791717010+801546652+813634927+829035541+846878323
1558+860072920+864826889+866615083+868392573+869263227+868157595+865275163
1548+862121088+860518985+861127939+863314552+865590170+864779314+858113552
1538+849587163+844566936+842785579+841260743+838406552+835789826+835223890
1528+836207787+837144867+837742013+838824168+839919443+839645520+838467731
1518+837705624+837182776+836389872+835663809+835465082+836195979+838562675
1508+841994816+842113582+835922609+828830738+825831542+827002220+830048163
1498+832038604+831209173+828714389+827394011+828585955+831174233+832785382
1488+832029627+829573097+826958718+825426149+825157405+825287703+825356339
1478+826190811+828669989+832268610+834817668+833898402+830059556+826765170
1468+826110229+827483361+828973948+829420910+829755113+831620022+835287278
1458+838484234+837397522+832242578+827070096+823661225+821657250+820322578
1448+818832406+816738251+814571801+813131759+812644816+813171117+814965732
1438+817657793+819464561+818872662+816918817+815336808+814451377+813788426
1428+813365355+813738710+814938526+816209188+816989732+817352867+817158353
1418+815855720+813522859+810864564+808461686+806658647+805406835+804418589
1408+803838567+803958024+804405400+804732974+805279714+806395013+807727475
1398+808841462+809551229+809450070+808326969+807040978+806634617+806848189
1388+806272449+804211852+802295502+802956312+806860135+812790996+819041490
1378+824368921+828193267+830487598+831637215+832332620+833162327+834193799
1368+835381394+837154051+839759937+842250094+843187865+842505166+841628366
1358+841726072+842836607+844234666+845077977+844939393+843945346+842618063
1348+841576924+841159930+841445866+842581950+844593727+846895723+848584208
1338+849368204+849755300+850349270+851317699+852411799+853417101+854501742
1328+855908916+857552726+859257506+861135258+863449752+866328179+869763496
1318+873573548+877358467+880789019+883802992+886511348+889209762+892345263
1308+896136948+900366066+904621907+908354209+910830694+911953727+912810640
1298+914385192+916244714+917281365+917028848+915688239+913810832+912309405
1288+911955315+912611499+913111975+912099906+909461774+906727109+905433316
1278+905501952+905837674+905833807+905563890+905433799+906219314+908369814
1268+911032183+912793447+913279008+913115980+912887493+913054871+914085721
1258+915779316+917349310+918742260+920772337+923668026+926598034+928799631
1248+930219510+930931901+931040103+930897445+930376461+928633772+925606611
1238+922893697+922034782+922642216+923235910+923247510+922964888+922249044
1228+920865278+919419781+918562039+918067640+917689176+917823409+918596219
1218+919405833+919811227+919806669+919358395+918822911+919232034+921025475
1208+923418479+925855468+928594966+931216595+932474000+932336313+932460742
1198+934013129+936397985+938386355+939529826+940151831+940686072+941568534
1188+943294306+945846609+948328895+950152442+952019905+954406487+956183839
1178+956384845+956026681+956695018+958499576+960256559+961153728+961621820
1168+962847530+965662845+969489746+972619102+973963992+974293914+975367576
1158+978000944+981389445+984277056+986261766+987668319+988497405+988091044
1148+986231798+984328705+984626381+987844190+992219901+995506622+997108380
1138+997570878+997111142+995616343+993952786+994126516+997217341+1001619016
1128+1004347397+1004319294+1003451540+1004392625+1007809782+1011798882
1120+1014328536+1015948316+1018420382+1021593101+1023817554+1024404136
1111+1023720677+1022005538+1019576559+1017074387+1014922506+1013397601
1103+1012879034+1013951038+1016951339+1020936779+1024539405+1028203416
1094+1033374932+1039131234+1042204658+1041355203+1039031870+1037857257
1085+1038519034+1041095298+1045379449+1049705997+1051902760+1052140017
1077+1053336381+1057599748+1062954454+1064996200+1061415946+1054357772
1068+1048913784+1048624740+1052539887+1056851520+1058725888+1058264425
1060+1057342605+1057886652+1060776196+1064118433+1063918602+1059003677
1051+1053395212+1051395103+1053009635+1055383513+1056337994+1056423892
1043+1058493741+1064209510+1070828802+1073741823+1072064731+1068741897
1034+1066236825+1065241190+1066113639+1068252677+1069131548+1066740753
1025+1062097748+1057804206+1055514915+1056226132+1060828053+1068010794
1017+1073005264+1071758356+1066093407+1060905113+1057933261+1055866657
1008+1054719940+1056474437+1061098868+1064485988+1062581376+1056505924
1000+1050757010+1048009157+1047597894+1047800902+1048095953+1048758214
991+1049451340+1049650135+1049678860+1050367084+1051742426+1052640217
983+1052190286+1050616562+1048535320+1046343459+1044018538+1041698451
974+1040444154+1041645835+1044942430+1047583256+1046990045+1042698782
965+1036131485+1030247164+1027553447+1026866328+1024038791+1017618848
957+1011137035+1008321858+1008829653+1009556269+1008571198+1006468827
948+1004488881+1002804470+1000833777+998561818+996505158+994258195+990777650
938+986578914+983845078+983845906+985519821+986848417+986697956+985120573
928+982738962+980464517+979446510+980530184+983429741+986312725+987006818
918+985339324+983342323+982556048+982033822+979963213+977036934+976132652
908+978270723+980713582+980075281+976624842+973559703+972527886+972184085
898+971111735+970051746+970353771+971756664+972899583+973198295+973000949
888+972519945+971670490+970060860+966830001+962080244+957862450+955758214
878+954716592+953330547+952665662+954560400+958558960+962406299+964537948
868+965191923+965703240+966404583+965486629+961767654+957403059+955045892
858+954085611+952296382+949607014+947880552+948328411+950551966+953177808
848+955045961+956008728+956573352+957013132+957048072+956284100+954788887
838+953297057+952682234+953151914+954216737+955054592+954736202+953108205
828+951391548+950861518+951611749+953376672+956000373+958436257+959400405
818+959477189+960565559+963588508+967723027+970791273+970355221+966042414
808+960475310+956664360+955535665+956213669+957267237+957714337+957831585
798+958811200+961215045+964344193+967011465+968457445+968826035+968462900
788+967961251+968534022+970523704+972574495+973351310+972972915+971745893
778+969247034+965730307+962358516+960216441+960194276+962213097+964458886
768+964881197+963163020+960720576+959351863+960042227+962506629+966003677
758+969980969+973362082+974534485+973219562+971451462+971240583+972726129
748+974359995+974258215+972117176+969324302+967279518+966781182+968316030
738+971304524+973860970+974283695+972234630+969245446+968457100+971957739
728+977321559+979538485+977626001+974582406+971872254+968806701+966245767
718+966604828+970007277+973852407+976226768+977175725+977097491+976655017
708+976494406+976033220+973919593+970115134+966160076+963008831+960450590
698+958083411+955853365+953846145+952234720+950273210+946347568+940803388
688+936379825+934605372+934086115+933839537+935875275+941508322+947493732
678+949163297+945773484+940758506+937426557+935403248+931478226+923065287
668+914043808+912983956+917387910+917406829+910469631+902047439+898130634
658+898990793+900786513+901310120+902369558+906706394+913373814+918047270
648+918538908+915925495+911781032+908272384+907021747+906767159+904912815
638+901597645+899113702+897819149+896674365+896522869+899278318+903720801
628+906136247+904871661+900808678+893538519+882337194+871477460+867662919
618+871685301+877361229+879953995+881693922+885768713+889805043+888974507
608+883645074+879198586+878533839+879619999+879059312+876340943+876012057
##END=
