##TITLE=<SNM>
##JCAMP-DX=4.24
##DATA TYPE=INFRARED SPECTRUM
##DATE=3/5/2025
##SAMPLING PROCEDURE=Instrument type and / or accessory
##ORIGIN=Admin
##XUNITS=1/CM
##YUNITS=ABSORBANCE
##RESOLUTION=4
##FIRSTX=4497.3318
##LASTX=599.83466
##DELTAX=-1.4281778
##MAXY=1.7028949
##MINY=0.18167664
##XFACTOR=1
##YFACTOR=1.5859445e-09
##NPOINTS=2730
##FIRSTY=0.20315784
##XYDATA=(X++(Y..Y))
4497+128098962+128336270+128595753+128533685+127993447+127185317+126588048
4487+126361619+126233508+126241222+126902777+128277303+129495106+129643080
4477+128819044+128047323+128179183+128954098+129290843+128485015+126879316
4467+125410166+124847332+125396956+126623159+127621037+127587541+126576594
4457+125547777+125326525+125715096+125990496+125914042+125744158+125667028
4447+125692669+125770428+125725892+125389186+124913158+124697488+124852950
4437+124892939+124219779+122970114+122013635+121952271+122544561+123248943
4427+123788871+123960550+123445108+122193489+120696330+119579408+119058705
4417+118969294+119164867+119596969+120093413+120389690+120453947+120578826
4407+120998667+121462799+121420321+120769946+120109254+119999794+120342551
4397+120649436+120545819+119922927+119005844+118340088+118361886+118911510
4387+119399827+119463211+119206631+118831590+118386917+117911416+117456680
4377+117031014+116764400+116831504+117045925+117000760+116678335+116448768
4367+116586801+117144355+117965197+118563087+118389501+117467579+116535256
4357+116381099+117045728+117853933+118283620+118405473+118379945+118155508
4347+117784141+117393474+116888959+116282350+116054540+116589817+117545019
4337+118192904+118131512+117416447+116310829+115247867+114783791+115131726
4327+115786282+115973831+115481925+114796626+114554225+115005062+115837555
4317+116506082+116794325+116860697+116849892+116881123+117200767+117868139
4307+118513976+118814640+118944546+119250885+119773525+120311771+120708046
4297+120827335+120507644+119885071+119617809+120307674+121600447+122355753
4287+121978692+121103242+120594997+120429565+120057051+119421560+119036371
4277+119289051+120102471+121116095+121930407+122303062+122281001+122113042
4267+122002012+121991508+122016970+121964072+121763463+121545998+121611092
4257+122077864+122746918+123411114+123955909+124168995+123973817+123734441
4247+123796124+123971562+123924414+123704309+123631492+123959939+124654972
4237+125309528+125504002+125305272+125080084+124929648+124711413+124452277
4227+124404378+124725384+125161996+125164909+124554250+123873245+123778329
4217+124379084+125419553+126584703+127383653+127352703+126656853+126002748
4207+125894161+126395181+127420738+128664004+129443364+129298303+128593959
4197+127992959+127603720+127169326+126737562+126611969+126865082+127238460
4187+127447854+127533214+127825648+128343176+128554694+128224404+127978762
4177+128420128+129253241+129871576+130245011+130731617+131436055+132088215
4167+132398398+132407502+132369017+132264602+131811689+131096615+130701917
4157+130913764+131232477+131030497+130419396+130045116+130120733+130225101
4147+130155046+130292967+130872356+131525672+131857408+131919740+131915991
4137+131899285+131865733+131861458+131993234+132404862+133113256+133891451
4127+134461999+134692524+134511346+133885992+133000197+132231905+131924203
4117+132268887+133198165+134255010+134889722+134968130+134693323+134235185
4107+133849771+133954853+134640349+135511769+136265253+136902624+137299200
4097+137168158+136549860+135884114+135525534+135427451+135354634+135328523
4087+135662674+136406575+137045900+137089468+136704862+136449213+136607456
4077+137040648+137437562+137542757+137347222+137076887+136858201+136612107
4067+136431182+136610904+137076511+137316667+137128836+136922703+137108579
4057+137647107+138280024+138797609+139039625+138974165+138822649+138874194
4047+139158895+139440016+139496052+139287316+138925720+138640634+138688759
4037+139141832+139828540+140548679+141217986+141753620+141959697+141702892
4027+141213335+141014483+141417092+142244173+143123710+143762979+143935532
4017+143643287+143270087+143166715+143208620+143068660+142707102+142351284
4007+142233471+142519572+143261715+144277350+145184784+145626883+145453982
3997+144733129+143718641+142854681+142592483+143035193+143869527+144753734
3987+145589826+146286259+146547527+146151617+145276740+144404851+143987500
3977+144207258+144913810+145740966+146369223+146694383+146734211+146482311
3967+146018912+145725717+146087726+147099058+148095930+148450507+148234471
3957+147905797+147653051+147454754+147569072+148398615+149722149+150571883
3947+150376179+149829947+149947102+150662158+150996130+150459604+149651606
3937+149478150+150357866+152047413+153723326+154318764+153447598+152014969
3927+151312485+151644757+152245109+152523017+152894836+153959921+155303026
3917+155659718+154371963+152203157+150365073+149349391+149052889+149657187
3907+151850149+155902918+160619244+163840300+164583900+163536573+161367636
3897+158517806+156222393+155906498+157486546+158897978+158542761+157934930
3887+159167298+161436112+162436592+162354172+162798517+163026627+161683596
3878+160301705+161024277+163557600+166467112+169080769+170543408+169830156
3868+168215006+167913063+168639713+168245805+166086846+163743843+162966118
3858+164955164+170456084+178169499+182190698+178083377+170780106+165438238
3848+163151384+163556266+165979885+169491345+173232889+176611568+178668959
3838+178273472+176016159+173835308+172344181+170830411+169306756+168831537
3828+169723853+171339267+173928157+178355178+183032747+184308184+182545651
3818+181298552+180502449+177664082+173447018+170798071+171201243+174231828
3808+177998552+180617302+182788438+186096179+189207023+189410141+187548426
3798+186097025+185038442+183467921+181890748+181174001+181301690+182018925
3788+183497067+185828983+188548061+191389697+194830670+198818364+201945331
3778+203360991+204336215+206641109+210987157+216950799+223100365+228110544
3768+232438459+237259538+242622678+248448898+255609993+264437220+273425490
3758+281022548+288212450+297645328+311029182+327052061+341052577+350448492
3748+358801928+369511259+380801510+387957324+391544515+396704932+405999260
3738+419025623+434174414+449203917+461535595+469741593+474473225+477090584
3728+478527084+479645293+481391289+484156049+487469447+490735001+494112327
3718+498388227+504402945+512791596+523327368+534013960+542424184+548864229
3708+555423638+563129293+571754454+580204967+586962928+591224696+593156127
3698+593504221+594175567+597707511+604917858+614392472+623782223+630036721
3688+630662441+626452237+620824925+617386338+618055467+621760443+625860078
3678+628729281+629142996+626555177+624143885+625213950+628740180+630007819
3668+627130047+623916169+623928835+626813410+629867898+631971910+634297550
3658+637491283+641182841+646100584+653773091+664140077+674258789+678612787
3648+674492255+666914759+662406596+663162917+666939263+669633442+669528886
3638+668832622+670358044+674684831+681063653+688851013+696099658+698268275
3628+693605044+687870321+686335579+688826058+693110677+698023008+703280352
3618+708291151+712334336+714764306+714995442+713618850+712592081+712807131
3608+713508882+714767313+717236445+719863651+720940706+720783684+721269784
3598+722814748+723532359+721401249+717276057+715100374+717956912+724502753
3588+729776333+730687196+728776549+725854240+722096686+718166926+715702530
3578+716007554+719240148+724094075+727850953+728602314+727925142+729025198
3568+731967801+732928424+729607435+724225090+720243165+719410324+721104493
3558+723215684+724348513+725145198+727097262+730392846+733360404+734416638
3548+733915581+733137687+732552894+731712387+730586849+730198842+730971249
3538+732411206+734079218+735467686+735851184+734899430+733255397+732354381
3528+733066429+734396945+734615302+733775997+733894985+735827506+737677420
3518+737149302+734046370+730126081+727006462+725341307+725357092+726763750
3508+728665303+730726132+733663925+737565347+740864538+742274730+742425814
3498+741939489+739846263+735780152+732131964+731876474+735120870+739161875
3488+741314933+741201357+740471419+740402266+740268020+738989519+737577749
3478+737796859+739725621+742319378+744785654+746208097+745653371+743596902
3468+741514424+739897526+737914268+734995342+732154890+731332497+733147158
3458+735751137+736808349+736074277+734457754+732089796+729347886+727839377
3448+729004828+732361822+735788270+737370742+737024752+736445823+736589540
3438+736292183+734424080+731794468+730286410+731070844+733921594+737427041
3428+739983065+741402803+742808334+744393888+744826770+743545263+741732782
3418+740412414+739286275+737889764+736639751+736168535+736192889+735764292
3408+734692122+733955043+734635522+736640578+738244172+737532349+734762402
3398+731911577+730047683+729118705+729369158+730469365+730603085+728869454
3388+726866653+726508787+728103887+731098204+734733839+737223867+736092993
3378+730859101+724645494+721854726+724617758+731704344+739888807+745692758
3368+746729750+743092011+737564069+733212026+730915400+729981161+730236199
3358+731859261+733751568+734169943+733132350+732292970+732108212+730973429
3348+728143349+726096501+727916723+732840705+736971084+738841367+740691731
3338+743498359+745265214+744988452+744391407+744879536+745492290+744242428
3328+740167523+734323432+729221457+726682872+726240895+726398067+727075690
3318+729201012+731878203+732619041+731269959+730558963+732231334+735532630
3308+739121285+741719628+741792013+739480504+737662837+738436898+740124002
3298+740125430+739028982+739195249+740990517+742721066+743034960+741966549
3288+740498404+739960365+741304185+744110812+746754104+748095744+748638594
3278+749519616+750909888+752101873+752362774+751362088+749726248+748930614
3268+749409648+749392209+747303268+744206349+741773372+739632641+736844053
3258+734216471+733270731+734253904+736398694+738723582+740063944+739769518
3248+738665854+738514018+740459167+744117728+747544100+748227886+745283404
3238+740621150+737000473+735455434+735327426+735934693+737218681+738919690
3228+739964349+739422401+737616986+735670935+734303664+733602664+733842670
3218+735193255+736485661+736006928+733770134+731669542+731477342+733112957
3208+734499697+733620103+730931636+728660642+727958967+728331114+729283920
3198+730746277+732426991+733860409+734687462+734594932+733564630+732307477
3188+731820927+732076717+731657891+729588493+727099818+726245705+727310960
3178+728704690+728897416+727679048+725958345+724932629+725208037+726420091
3168+727638759+727961898+726984137+725187066+723637366+722888711+722319854
3158+720903800+718751268+716997868+715751238+713697774+710606342+708448473
3148+708878875+711178958+713273086+713623961+712088919+709689165+707437940
3138+705532479+703987815+703052749+702435560+701454266+700359547+700253412
3128+701528606+703256299+704279685+704374169+704207751+704319974+704365074
3118+703682491+702314918+700944640+699879085+698621932+696927387+695667452
3108+695609424+696041780+695959473+695743596+695930534+695566655+694012069
3098+692966508+694255983+696836737+698070062+697177089+695510806+694049953
3088+692548510+690848402+689545172+689097783+689015777+688542080+687999005
3078+688396333+689445727+689193921+686265073+681707601+677996800+676761144
3068+677715754+679172774+679495763+678419083+677053992+676647944+677100670
3058+676843977+674843807+672254785+671203587+672278613+673931140+674265329
3048+672849650+670728612+669269112+669067366+669644642+670017466+669481757
3038+667927096+665805608+663887068+662548960+661381480+660071034+659124242
3028+659032389+659376349+659419419+659004878+658169256+656828368+655280998
3018+654009789+653102609+652590051+652638608+652925818+652677469+651613718
3008+650226603+649120609+648588583+648556186+648459448+647603381+645896734
2998+643831545+641894664+640467485+639867660+639913812+639772199+638765273
2988+637145519+635717438+634899104+634382337+633735006+633168179+633278748
2978+633950057+634026426+632694407+630915601+630416197+631130876+631016474
2968+629028067+626527252+624814893+623411504+621886985+621297194+622362786
2958+623757719+623584424+621795883+619997196+619238281+619020412+618404463
2948+617223904+615860692+614567722+613414598+612389220+611330129+610100675
2938+608890650+608183863+608295635+608954842+609573798+609791103+609541514
2928+608823076+607604445+605923167+604035972+602393629+601249526+600347307
2918+599327115+598268099+597367948+596457498+595356953+594236377+593181796
2908+591989173+590740288+589942851+589740616+589471033+588331966+586193565
2898+583696133+581795445+581028525+581031494+581040890+580820653+580524950
2888+579875101+578391810+576366760+574749523+574134627+574399437+574988552
2878+575101977+574102644+572238862+570579457+569861583+569849895+569955804
2868+569793784+569063582+567592995+565600830+563558153+561732856+559942136
2858+557905548+555995126+555144321+555530599+556023915+555640530+554689453
2848+553788437+552872387+551776804+550644689+549458305+548096107+546784533
2838+545916402+545627238+545690716+545525313+544486705+542536670+540362490
2828+538628821+537440896+536592609+535889167+535161408+534398209+533818378
2818+533461790+532922698+531834331+530379791+529021051+527985675+527177940
2808+526359982+525370007+524294944+523356307+522603969+521928752+521331294
2798+520925284+520674380+520288326+519484124+518345921+517226510+516209399
2788+514991558+513470797+512044370+511101749+510588214+510200958+509660702
2778+508724884+507280416+505526791+503869979+502538900+501372735+500075331
2768+498620678+497229692+496049809+495123011+494479890+493909604+492915157
2758+491375905+489923959+489153393+488839838+488374259+487585390+486780887
2748+486290879+486134083+485877654+484903426+483082113+480979529+479160434
2738+477653128+476303069+475164453+474245998+473286277+472132477+471074814
2728+470488368+470267605+469859867+468866735+467445231+465988925+464640895
2718+463359839+462175409+461036379+459640883+457811302+455898061+454480729
2708+453782323+453596775+453612147+453561973+453179002+452256451+450803076
2698+449084027+447516776+446431415+445778033+445177268+444393248+443539173
2688+442712383+441801257+440793768+439915602+439326638+438911496+438415362
2678+437705117+436920383+436320294+435938638+435521805+434805434+433722929
2668+432425073+431203586+430278517+429607810+428963072+428141394+427100757
2658+426011675+425143919+424582316+424111438+423451592+422549786+421614682
2648+420890006+420386167+419881915+419195724+418322707+417305935+416193364
2638+415157838+414449322+414166885+414173988+414222358+414091681+413681838
2628+413061267+412383456+411715868+410988373+410070708+408863277+407442224
2618+406141700+405305627+404970837+404961817+405091892+405065358+404541601
2608+403575002+402640387+402016395+401464338+400643711+399564777+398524290
2598+397791308+397454676+397397625+397286417+396784833+395961238+395239268
2588+394800561+394397820+393906384+393619626+393791455+394201862+394333478
2578+393865795+392951098+392005133+391284327+390772859+390393609+390113991
2568+389894017+389710123+389593916+389552199+389501951+389328805+388981012
2558+388530880+388172713+388078267+388184589+388210935+387956159+387471150
2548+386905788+386398342+386125000+386153187+386257480+386181525+385985417
2538+385870488+385872104+385953960+386135711+386347680+386416908+386301001
2528+386101248+385813549+385330156+384757315+384438385+384508365+384683615
2518+384635922+384331800+383924211+383569277+383357233+383198821+382879026
2508+382404991+382090459+382114662+382232260+382107070+381749768+381405846
2498+381132654+380768625+380293801+379927704+379815481+379830251+379720621
2488+379357982+378880527+378593806+378622256+378707457+378489588+377921821
2478+377298919+376951163+376990813+377285728+377615294+377851841+377973761
2468+377943619+377716881+377410165+377276933+377382730+377459812+377217928
2458+376665269+376046389+375601067+375405861+375347983+375294352+375251244
2448+375204265+374973317+374500823+374053735+373869315+373832634+373689029
2438+373327668+372753474+372020717+371288073+370780889+370604399+370638750
2428+370686819+370695050+370737068+370822381+370863384+370810881+370706062
2418+370607030+370505594+370332636+370091015+369928431+369951206+370042533
2408+370021561+369872244+369680645+369509304+369450863+369626977+369999387
2398+370300879+370278216+369976950+369680044+369558313+369521857+369444699
2388+369308836+369011254+368241628+366698806+364314236+361222390+357645911
2378+353847091+350069430+346419175+342822739+339171207+335494832+331946804
2368+328730934+326145032+324452629+323626666+323554920+324469391+326776540
2358+330534282+335355474+340905515+347479431+355453842+363799648+370164715
2348+372722318+371546494+368542518+365767385+363598880+361238889+358164971
2338+354350704+350033538+345666274+341765077+338763957+336915096+336066095
2328+335643360+335104006+334391995+333939382+334261243+335492615+337300661
2318+339220554+340952343+342383243+343550272+344618270+345761998+347063386
2308+348511574+349968707+351163360+351908557+352302916+352579076+352842721
2298+353070399+353245386+353400867+353602575+353910381+354297185+354651932
2288+354928243+355215001+355593124+355977712+356150857+355942948+355390439
2278+354733938+354232806+353940297+353717354+353499936+353410225+353515383
2268+353642676+353582243+353363246+353200625+353216184+353314238+353346635
2258+353300821+353249295+353218852+353234111+353364975+353590286+353767903
2248+353862725+354018620+354309062+354605592+354772047+354841689+354933504
2238+355081694+355211356+355267129+355305802+355426218+355664795+356000262
2228+356381053+356690061+356777329+356621209+356414277+356423748+356762183
2218+357286993+357721340+357903731+357920869+357977582+358206613+358648777
2208+359294454+360029166+360639289+361002529+361198563+361365206+361559172
2198+361812031+362203571+362785770+363477073+364123389+364694088+365322815
2188+366072221+366787464+367321331+367744216+368154134+368485128+368717053
2178+369042335+369578119+370136378+370519574+370853011+371412736+372262489
2168+373236379+374214515+375293525+376671884+378415099+380413277+382589975
2158+385026372+387806955+390887600+394192842+397668975+401153338+404361691
2148+407081614+409312808+411271937+413283984+415522656+417863780+420137330
2138+422429896+424984417+427906237+431059606+434211283+437320041+440649562
2128+444399600+448320076+451932673+454956192+457264769+458676163+459053873
2118+458476297+457174194+455383248+453259054+450845808+448116263+445089587
2108+441932948+438871883+435939653+432957212+429843606+426728233+423684081
2098+420608095+417421277+414168426+410911403+407669864+404454709+401311149
2088+398348326+395678839+393299568+391105958+389047947+387220584+385765368
2078+384688688+383838447+383084418+382400444+381726166+380961426+380168160
2068+379529399+379047697+378536793+377942943+377409639+377002201+376645012
2058+376342280+376203561+376220361+376237123+376158950+376025718+375906467
2048+375858060+375931836+376119939+376337883+376512682+376690374+377078382
2038+377942153+379362380+381095522+382749666+384120094+385327863+386602793
2028+387944697+389067378+389654575+389570878+388899043+387906287+386845768
2018+385665246+384085668+382069750+380001442+378323546+377153924+376251104
2008+375278341+374131607+373000658+372092726+371401837+370786001+370138106
1998+369465708+368921468+368693714+368717053+368605507+368067956+367247593
1988+366443278+365743219+365130126+364674206+364425482+364289807+364125343
1978+363859556+363508943+363161977+362903593+362746270+362687904+362739581
1968+362786071+362589512+362097437+361563757+361232237+361096788+361037444
1958+360992758+360929130+360787329+360538003+360249665+360064306+360075618
1948+360288188+360753053+361516177+362214132+362099541+360944313+359488383
1938+358553768+358265468+358320753+358518778+358814594+359095790+359141454
1928+358933695+358918023+359536226+360511920+361200630+361573078+361941918
1918+361961198+361064729+359685619+358869240+359019083+359681109+360152062
1908+360059646+359551410+359023405+358685910+358475144+358325375+358365326
1898+358772238+359423439+359878232+359994138+360235797+360852009+361217392
1888+360692018+359637964+358811775+358427639+358293505+358250585+358207628
1878+358122878+358072930+358226457+358889121+360504291+363102182+365531138
1868+366000625+364216745+361821276+360284242+359733387+359601245+359501236
1858+359385368+359308172+359303625+359424191+359802540+360563484+361759490
1848+363565844+366108263+368508693+368867010+366736802+364130304+362810650
1838+362728456+362921971+363049453+363889510+366168546+369112465+370863798
1828+370851621+370187002+369416662+368161087+366684937+365915650+366126641
1818+366759653+367318062+367917662+368967657+370496686+371857982+372303379
1808+371901316+371539090+372127866+374009312+376725252+379102718+380108366
1798+380070181+380560039+382848058+386503461+389153255+388778063+386612678
1788+385342671+385952156+387698941+389742670+391921623+393999741+395435977
1778+396471278+398457317+402544550+408161188+412646463+413730621+412299082
1768+410421057+409298752+409832844+412370603+415640141+417762494+418812038
1758+420119102+421875283+423815133+426732743+431372372+436571575+439882980
1748+440504153+439874036+439604452+440552335+442799914+445412425+447143276
1738+448576506+451951840+457748801+462419135+462581457+460502362+459196914
1728+459099499+460058581+462122041+465015786+468808481+474556246+482898520
1718+491800556+496746223+496111370+493197556+491382444+492099604+495582389
1708+501188729+507248320+512106382+516486274+522795079+531241232+538265957
1698+541557557+542506115+541764865+540169013+540347232+543655105+549178912
1688+556141700+565536976+577257103+585973554+587184066+585153942+585077498
1678+588468693+594591311+601333674+607080011+612829843+619904328+626581485
1668+630057391+631605626+634688564+640189145+646091038+650574622+654510921
1658+659960390+668459798+680749233+694403910+701848137+702599648+704456100
1648+709514705+713754600+713468894+711136038+710660838+713185142+718696923
1638+726797575+734802691+737104729+732521024+727147774+725248477+726524346
1628+728718370+730349475+731358505+730993047+728048640+724113092+722283248
1618+722715679+721767233+716788229+710328904+705526240+702709991+700529272
1608+697677169+694132184+690867344+688493147+686690889+684917420+683254670
1598+682267589+682103727+682044947+681168059+679308223+677037380+674905819
1588+673132650+671841522+671121656+670841662+670906982+671830247+674425508
1578+678504698+681877927+682275782+681492626+682988206+687123846+691179284
1568+693025213+694051005+696343572+700679905+708117667+720540071+736796924
1558+747725927+749140403+749207000+753013337+760256344+768913451+777258845
1548+784921429+793114761+803115388+814571756+825763841+833683869+834141105
1538+828919089+825360124+826254525+828942841+829588669+828625189+829579949
1528+833719122+839442646+845195335+851155782+857153287+861381456+863170936
1518+863834126+863962435+863622083+863836156+865778599+870011278+877032770
1508+886240018+892560512+890609199+884879136+881712763+882488102+886015497
1498+889840701+891097854+889481106+888062872+889372416+892972723+896169538
1488+896796273+895543855+894405389+894338266+894998525+895879096+897441348
1478+900660788+905652645+911232226+915305102+915672364+912525159+909309026
1468+909003025+911542662+914065538+913939635+912627385+913691286+918439379
1458+924150877+925046406+920024708+914554569+911939013+911952092+913288020
1448+914506237+914429868+912968113+911243276+910450950+911104895+913238335
1438+916352843+918903380+919380910+918310244+916879457+915197915+913359127
1428+912545228+913647238+915822997+917639085+919036875+920782457+922099293
1418+920888366+917270997+913884012+912683158+913643330+915103281+915353133
1408+914308024+912810940+911049497+909117503+908159210+909277156+911914810
1398+914143184+914364023+912202846+908327732+904342801+901811055+900696567
1388+899178062+895763716+891930319+890822070+893591565+898617473+903597378
1378+907573515+910814077+913560948+915702506+917238300+918235829+918658563
1368+918996059+920501562+924012270+928914529+933426375+935870026+936067638
1358+935264939+934631363+934253729+933808670+933547994+933870607+934560331
1348+935111900+935441880+936006828+937436563+939948539+942941880+945416273
1338+946925007+947733795+948074072+947962450+947682682+947787839+948464184
1328+949227947+949571080+949564390+949698036+950543279+952422131+955029118
1318+957465176+958915657+959259316+958927834+958436924+958160388+958255172
1308+958579213+958738114+958364915+957399180+956071897+954709962+953613289
1298+952942807+952529318+951847336+950516670+948957123+948047989+947905324
1288+947515362+945965963+943462330+940696442+937909583+935083112+932321509
1278+929633042+927017787+924793547+923209195+921964895+920628141+919149398
1268+917597443+915856671+913714136+910918934+907381391+903527624+900071486
1258+897432554+895487931+893612988+891167533+888397136+886465893+886182216
1248+887227250+888779881+890179024+890918508+890766296+890071611+889597463
1238+889929322+891033061+892413186+893719648+894902989+895736355+895950955
1228+895975534+896698031+898382879+900435591+902193726+903500564+904573110
1218+905658132+906885670+908316006+909932228+911565137+913140769+914944079
1208+917144041+919211711+920431056+920942787+921820652+924151403+928054027
1198+932384648+935643250+937439194+938590137+939746192+940913973+942312439
1188+944460611+947336843+950246448+952466028+953602916+953806240+953907865
1178+954810384+956778383+959596662+962828955+965706239+967415592+967840506
1168+967852006+968796468+971433521+975133498+978505676+980898739+982674163
1158+984401180+986561003+989342225+992101648+993708850+993759587+992860375
1148+991722961+990891248+991121707+993127365+997098917+1002355885+1007183654
1138+1009567472+1008944646+1006873970+1005154395+1004290811+1004277807
1130+1005360049+1007636680+1010725407+1014051056+1016877904+1018528176
1121+1019402132+1020869826+1023424948+1025953536+1027500154+1028604720
1113+1030049262+1031352868+1031443143+1030514916+1030362630+1032234116
1104+1035100952+1036903285+1036781065+1035616591+1034866283+1034986624
1095+1035208439+1034655292+1033662648+1033928285+1036995363+1042598922
1087+1048646262+1052883827+1054534174+1054106779+1052578577+1051560527
1078+1052780849+1055992246+1058085923+1056499242+1052984925+1051409744
1070+1053182612+1057027209+1061450659+1065037361+1066316087+1065637788
1061+1064759773+1064690394+1065358847+1066297747+1067148326+1067608418
1053+1067340752+1066531664+1066265500+1067717259+1070422713+1072157171
1044+1071522919+1069635197+1068488238+1068530331+1068579790+1067947417
1035+1067918779+1070046055+1073165975+1073741823+1070315075+1065804206
1027+1063685047+1064191742+1065076297+1064698512+1063397086+1062011324
1018+1061299726+1062575370+1066491901+1071209852+1073659817+1072649885
1010+1069537782+1065903350+1062418198+1060190424+1060467863+1062793051
1001+1065189272+1066173121+1065425895+1063242920+1060323017+1057423409
993+1055457214+1055458943+1057336592+1058658464+1056844705+1052833541
984+1049576442+1047597619+1045162162+1041622439+1037968389+1034880414
975+1032172630+1029886001+1028498886+1027598847+1025341233+1020341859
967+1013722280+1007967036+1003943468+1000312193+995846649+991084500+987405419
957+985162838+983111855+979938492+976119603+973154374+971044762+968210699
947+964211486+960733324+959184000+958804411+957953079+956409092+955377137
937+955555205+956317014+956881737+957173081+957224720+956951040+956878956
927+957760203+959049152+959050279+957153613+954974171+954410125+955296784
917+956061148+956103617+956074378+956015898+954934709+952471139+949850172
907+948880454+950344464+953017823+954496265+953701759+951791187+949967882
897+947879016+945105987+942845216+942405945+942707812+941416759+938604870
887+936830799+937498951+939517236+941411723+942387304+941731329+939626603
877+937908305+937958667+938717394+938291878+936634315+935081308+934191642
867+933764022+934139927+935805533+938000534+938902377+937436563+934406617
857+931667263+930483847+930978967+933001086+936259086+939256560+940083162
847+939014450+938168380+938250837+937853434+936159190+934271393+933320015
837+933214407+933419761+933653302+933987866+934870016+936900854+939874050
827+942199389+942506292+941448855+940447718+939798357+939622544+940828208
817+943396860+945469265+945645755+944750602+944558853+946234757+949538984
807+952546155+952983998+950264638+945778198+941573556+939497994+940641195
797+944303439+948049417+949819579+949649854+948882333+948470047+948252967
787+947490407+946039400+944903640+945199043+946801359+948494852+949164807
777+948543860+947372020+946954097+947704405+948319489+947791071+947141862
767+947215224+947202746+946634340+946134410+945878394+945380118+944706404
757+944404237+944784126+946080215+947841057+947983271+945060211+941430665
747+941139697+944928746+949402708+951007054+949676764+947918929+947475900
737+948117067+949199083+950828459+953162818+955410736+956262143+955383225
727+953626969+952230006+951979929+952527890+953257527+954150350+954272796
717+952110793+948313551+945565027+944987977+944351395+941763801+939311958
707+940580837+945052244+947433506+944210308+938025264+933246052+930462801
697+927330854+922943408+919074608+917767845+919018384+920447743+919268236
687+914958511+910312268+908079008+907073059+904461262+900535937+898158057
677+898658513+900699123+902274229+901382233+896292058+887742965+880884132
667+880714106+883374235+882755768+878612687+874820331+874853103+877844189
657+879762278+878873438+877348994+876833580+875671813+871564961+864928620
647+858229214+853421364+851255077+851756660+853875067+855508351+855195134
637+853762393+853415727+854582530+854395517+850089325+843291828+838347476
627+837103927+837510576+836887975+834567973+830833570+826546921+824381235
617+827176212+833748813+838588233+837384748+831550730+827033697+829370687
607+837930078+844322506+840587652+829698111+821705848+821968779
##END=
