##TITLE=<SNM>
##JCAMP-DX=4.24
##DATA TYPE=INFRARED SPECTRUM
##DATE=2/5/2025
##SAMPLING PROCEDURE=Instrument type and / or accessory
##ORIGIN=Admin
##XUNITS=1/CM
##YUNITS=ABSORBANCE
##RESOLUTION=4
##FIRSTX=4497.3318
##LASTX=599.83466
##DELTAX=-1.4281778
##MAXY=1.7755365
##MINY=0.22112501
##XFACTOR=1
##YFACTOR=1.6535973e-09
##NPOINTS=2730
##FIRSTY=0.23803817
##XYDATA=(X++(Y..Y))
4497+143951718+144626075+145587380+146254581+146285517+145798245+145110102
4487+144475233+144110679+144266188+145069199+146214372+146912807+146504601
4477+145250093+144194773+144079842+144634924+145052826+144908130+144457003
4467+144111247+143958594+144028045+144558039+145511225+146252616+146280759
4457+145924684+145747412+145575881+144784386+143451426+142460762+142283824
4447+142424410+142381282+142328899+142400016+142132253+141234063+140375984
4437+140578135+141898913+143176219+143318878+142562545+141986737+142110364
4427+142562518+142896146+143096793+143244462+143116095+142447831+141482696
4417+140853523+140823226+141039409+141174300+141370495+141817612+142201027
4407+141904473+140777872+139480858+138930606+139486986+140592653+141130811
4397+140493951+139373587+138904518+139132127+139193558+138814684+138544001
4387+138674693+138913548+138928930+138579181+137820470+136743783+135543596
4377+134472758+133907440+134116260+134857129+135570766+136020595+136374534
4367+136663249+136632565+136248717+135873962+135710406+135535459+135233912
4357+135097282+135363414+135896652+136390079+136538946+136209635+135727176
4347+135637693+135993480+136320313+136358034+136293008+136216213+135932581
4337+135368947+134686147+134050892+133723617+134061714+134931247+135553536
4327+135484112+135203814+135237264+135361891+135138572+134601594+134115188
4317+133994381+134314717+134771079+134920181+134795635+134918136+135498116
4307+136066318+136199542+136174139+136472794+137021090+137369902+137314266
4297+136914287+136267885+135633674+135448166+135871727+136498936+136771394
4287+136611154+136432928+136460295+136312256+135560015+134465522+133783975
4277+134005727+135009890+136185503+136797356+136598277+136142041+136179717
4267+136786948+137381157+137448940+136911647+135999256+135205544+135140221
4257+135965337+137168309+138097641+138407749+138059911+137484319+137526096
4247+138524897+139649019+139755714+138737493+137534134+137012277+137197731
4237+137501864+137487383+137270750+137163163+137219746+137355619+137615570
4227+138079132+138705665+139369703+139857650+139978195+139883495+139959686
4217+140179401+140056206+139509613+139213500+139730347+140699410+141174030
4207+140682847+139796607+139463746+139922505+140631366+141097613+141258106
4197+141217041+141089764+140993244+140947610+140881710+140707115+140302901
4187+139653948+139059126+138904807+139224485+139735005+140247085+140829814
4177+141615469+142561112+143374189+143684234+143443973+143155538+143414641
4167+144156889+144660552+144358527+143350976+142171362+141407099+141425879
4157+142117303+142973463+143565356+143801589+143760966+143599023+143629508
4147+144128053+144885683+145210714+144653037+143553894+142622516+142214941
4137+142239506+142418003+142456454+142291276+142257312+142767815+143827064
4127+144961631+145552253+145247669+144239505+143175759+142686028+142903021
4117+143428969+143799886+143904328+143865939+143700058+143331899+142825650
4107+142352130+142015015+141904824+142239479+143168415+144397150+145318192
4097+145618225+145478072+145170694+144862280+144730219+144803725+144832065
4087+144734481+144881448+145476792+146014500+145818269+144926946+144109570
4077+144098324+144957711+146096422+146771382+146616144+145780899+144679512
4067+143756992+143432105+143888864+144785711+145474692+145637663+145437052
4057+145068713+144593652+144210606+144206001+144512225+144674898+144425689
4047+144089926+144216544+144803319+145114184+144533501+143433863+142779187
4037+143020304+143852972+144881718+145942526+146857270+147395158+147478197
4027+147212506+146852070+146716782+146878662+147059025+147041786+146932911
4017+146872418+146773275+146501510+146138415+145894973+145761812+145471286
4007+145018727+144914492+145550262+146635212+147578151+148055474+147981770
3997+147388489+146526751+145757721+145291735+145168919+145320130+145586235
3987+145886926+146302485+146816944+147160186+147102568+146826027+146850538
3977+147506908+148508682+149211487+149301042+148982455+148564949+148227104
3967+148176046+148701634+149908390+151424669+152568877+153006775+153047759
3957+153074847+153064953+152988734+153328102+154705813+156892546+158558999
3947+158718644+158107512+157987192+158122615+157279007+155364976+153593469
3937+153021013+154176324+157180243+160986966+163142537+162032139+159186496
3927+157628846+158502552+160244916+161016541+161197940+162328757+164467225
3917+165737647+164470397+161254621+158179476+156633848+156678292+158332958
3907+162461369+169469990+177440322+182899999+184089445+181571887+176306946
3897+170045780+165849730+165862833+169118493+171837960+171535646+170664554
3887+172462285+175938237+177907760+178487497+179504609+179247317+175564175
3878+171499565+171241840+174877816+180025952+185067538+188359514+187947947
3868+185443943+184511880+185144856+183930449+179711456+175584901+175016501
3858+179693541+190001943+203537799+210777022+203645269+190128318+179613628
3848+174797308+175461752+180046462+186229877+192372616+197971752+201803888
3838+201541765+197407623+192831258+189856355+187739569+185603119+184071999
3828+183778030+184649465+187730161+194678641+203209948+206602996+203667779
3818+199824128+196373011+190776686+184183343+180578997+181851798+187031204
3808+192845766+196325215+198956171+203680593+208599607+209104604+206120419
3798+203548938+201463384+198640233+196342570+196445246+198871591+202373568
3788+206192871+210103134+213849373+217912416+223891435+232329006+240853609
3778+246922310+251831483+259117457+271074036+287497331+305206313+319597383
3768+329020383+334844245+338038232+340084532+343660600+349408262+354642204
3758+357387678+360075118+366873288+379999596+397654438+413316507+422753096
3748+430560358+442203541+456531820+466554580+470809961+475916518+486527251
3738+502938849+522255458+539181280+548853354+551288476+551438100+554192116
3728+561029901+569961168+577246060+580308373+578893770+574146981+568320524
3718+564070730+563233503+566304971+571289299+572932286+568048381+560647639
3708+555171038+552214988+551621031+553042086+554374723+554070932+553951189
3698+556023874+559728696+564094881+569996889+578426657+586935904+590210957
3688+587072372+582014404+578468145+577460062+579430991+584086512+590718477
3678+598555585+603779435+600852329+592644493+586589616+583718776+580120108
3668+574435489+568878543+565174045+563356021+562457120+562098864+563275460
3658+566315821+569284631+571043829+573963798+580407137+588453886+591588830
3648+586140309+576482113+567722242+561852169+559380894+560028594+562497635
3638+565149570+567404717+570157183+575057633+583384707+593766191+599839704
3628+596503770+589322113+585679144+587497384+594100837+603287883+610282213
3618+611704206+610643388+611447850+613994533+615930534+616936850+618123683
3608+619122862+619005138+618687505+619724317+621833624+623368150+624070388
3598+625565192+628574194+631462010+632821284+634238951+638565197+645457735
3588+649752333+647116690+640553320+635599522+633706055+632960203+631943721
3578+631613257+633218505+635722221+636928229+636982153+638643560+643458078
3568+649108561+651542998+649681179+645460041+640835483+637327757+635878802
3558+636147918+636958291+637554411+637629097+636510967+634263750+632923220
3548+634077035+635965888+635482303+632363218+628498282+624761090+621434096
3538+619605655+619820342+620914321+621801255+622955863+624872831+626710500
3528+627228113+625980868+623279190+619613873+615874952+613538847+613588157
3518+615173724+616129072+615408379+614325719+614519787+615821604+617142021
3508+618374703+619907067+621077967+620489273+617498727+612832572+607863059
3498+604067654+602629802+603475103+604939990+605270527+604550267+604412609
3488+605398488+605764710+604047973+601395930+599913705+599735280+599139738
3478+597166105+594879887+593858612+594226924+594784944+594905083+595031530
3468+595287922+595198565+594710329+594296816+594005857+593471015+592700400
3458+591710988+590124304+588160620+586870446+586573936+586324357+585551110
3448+584965444+585173030+585501944+584621210+581701998+577294325+573318837
3438+571465669+571786401+573289713+574984966+575774830+574794790+572882796
3428+572096969+572986751+573626413+572063735+569038729+567166709+567723647
3418+569326732+569844886+568727189+567139243+566482459+567030422+567833802
3408+567852618+566876111+565162655+562866380+560443189+558968858+559100496
3398+560046689+560368395+559470214+557753550+555919991+554777278+555038211
3388+556509586+557873221+557674539+555411966+551835177+548579372+547337535
3378+548721680+551723003+554448796+555429592+554374903+552129776+550027390
3368+549047062+549401100+550546949+551404939+551065751+549693717+548456061
3358+548442039+549771539+551444480+551890903+550319610+547843721+546475544
3348+546806153+547605424+547797547+547669441+547886182+548427549+548746587
3338+548359387+547235959+545877983+544844848+544189218+543662702+543385801
3328+543978604+545694151+547451006+547517293+545578914+543245908+542070971
3318+541973108+541930682+541451422+540974865+541184470+542101249+542909100
3308+542833332+541972531+540959870+540132087+539456199+539030322+539145343
3298+539765000+540353262+540446980+540061258+539445493+538855898+538599182
3288+538967603+540024455+541503219+543010532+544363281+545486673+545923688
3278+545099401+543394812+542133834+542018237+542290019+541805316+540298545
3268+538394084+536949635+536478124+536863486+537596759+538234655+538516999
3258+538203187+537045335+535128943+533174920+531983186+531617721+531821810
3248+532780619+534378982+535358409+534647340+533006876+532072614+532412126
3238+533381965+534131133+534172153+533575709+532909157+532577250+532331817
3228+531578575+529976320+527732022+525573801+524507577+525020035+526358042
3218+527046474+526315941+524706944+523251249+522468162+522113475+521615543
3208+520700638+519664872+518958273+518549914+518047008+517397938+516995887
3198+517007494+517041124+516531658+515198445+513287099+511623710+511064105
3188+511444673+511441104+509968540+507354632+504736940+502838138+501675745
3178+500946366+500316471+499575233+498668258+497520679+496074175+494600025
3168+493645650+493564259+494166470+494645442+494053900+492381968+490708991
3158+489776424+489174104+488379014+487611462+487155668+486704090+485794123
3148+484392280+482890266+481702893+480873920+480159752+479458560+478835587
3138+478181614+477265411+476128934+475064620+474188031+473336205+472422309
3128+471565473+470820955+470160566+469706393+469553164+469467196+469173498
3118+468654263+467847097+466601944+465150718+464037995+463545002+463497530
3108+463420501+462795473+461585968+460366623+459505353+458786535+458255621
3098+458498099+459545003+460430279+460393981+459654365+458561791+456981019
3088+454994734+453378060+452838064+453248405+453866764+454002836+453410141
3078+452254596+450859061+449530426+448512394+447879905+447487406+447186823
3068+447024474+447099737+447346036+447468050+447034819+445760541+443855251
3058+442039678+441037362+441026044+441584208+442087258+442123231+441625047
3048+440763237+439829335+439070867+438364845+437210526+435468450+433889767
3038+433316212+433554905+433658320+433101021+432063741+430865483+429727672
3028+428837782+428253594+427860050+427472093+426888337+426030203+425123876
3018+424500002+424215711+424107683+424048893+423842713+423126887+421726810
3008+419895917+418074217+416660875+415906877+415636211+415283218+414621748
2998+414072848+413884907+413649495+413073525+412491066+412143228+411622623
2988+410432223+408663581+406944502+405906501+405655517+405738746+405692752
2978+405441154+405121576+404829175+404539009+404047205+403116800+401831780
2968+400587347+399710253+399290612+399237878+399293280+399142321+398693844
2958+398140619+397655483+397163535+396521313+395772613+395075278+394498984
2948+394000403+393456405+392745157+391989103+391517809+391329183+390944507
2938+390084679+389034422+388134872+387434509+386901974+386472240+385944139
2928+385226978+384475683+383741257+382837166+381726786+380711350+380109391
2918+379943906+379964056+379890775+379618920+379187709+378656687+378076680
2908+377472955+376793390+375984639+375137895+374426106+373898581+373485320
2898+373209104+373193280+373355088+373297920+372711100+371728825+370696844
2888+369768422+368915767+368125939+367424495+366839586+366371896+365948254
2878+365534885+365281125+365278421+365254487+364867900+364190930+363530902
2868+362945488+362287190+361575617+361036846+360824250+360799559+360582782
2858+359899504+358929413+358173829+357916969+357977777+357962458+357540618
2848+356564652+355214354+353971435+353213543+352884016+352657831+352303900
2838+351799372+351226070+350671474+350200541+349859335+349630338+349347489
2828+348766257+347848900+346917414+346369451+346244553+346160856+345688985
2818+344750758+343653679+342775288+342242933+341903168+341537379+341059921
2808+340519131+339961653+339345672+338633775+337947938+337499749+337326695
2798+337223857+336985236+336616491+336236753+335819238+335196589+334387369
2788+333706579+333350089+333066664+332503959+331677761+330829540+330046416
2778+329279982+328534418+327840652+327188518+326590740+326074389+325566473
2768+324943031+324231349+323600626+323122159+322712539+322313408+321914457
2758+321401890+320633005+319685190+318808457+318114654+317503071+316905870
2748+316416481+316092649+315779558+315279067+314620373+314011241+313549715
2738+313091722+312405056+311432911+310414771+309697142+309391477+309251801
2728+308896104+308145494+307196850+306451719+306106980+305954832+305676417
2718+305230427+304797810+304451053+304062807+303474185+302638255+301707868
2708+301019166+300765190+300684881+300381035+299915112+299680060+299724251
2698+299663281+299285110+298825855+298562435+298452226+298274522+297899865
2688+297324995+296616269+295896009+295260798+294691767+294139623+293618784
2678+293133613+292653559+292211931+291855315+291511874+291094684+290695247
2668+290501412+290520210+290484525+290114951+289454851+288802879+288321276
2658+287930237+287548371+287154593+286674017+286071301+285469360+284999148
2648+284664339+284435343+284310517+284227325+284044826+283686246+283260297
2638+282963067+282827193+282665944+282335173+281917442+281546156+281202283
2628+280801223+280344798+279887237+279477959+279196408+279076737+278974008
2618+278714859+278378411+278174772+278096229+277959365+277702613+277384386
2608+276993995+276473283+275844038+275218739+274760133+274608796+274743246
2598+274946578+275001638+274887896+274730738+274606580+274490946+274381097
2588+274313512+274200311+273849535+273284036+272818131+272645239+272559000
2578+272256453+271732514+271222345+270920987+270885717+271065511+271300257
2568+271373754+271160005+270725441+270291255+270101296+270263158+270640446
2558+270932125+270939983+270752403+270603337+270583728+270562425+270349433
2548+269890286+269337367+268910553+268651855+268428175+268197087+268043552
2538+267912761+267614467+267171126+266861117+266845509+266992935+267093844
2528+267060394+266917474+266725352+266522398+266295870+266010030+265675366
2518+265387633+265278866+265397528+265649053+265871976+265937651+265783286
2508+265443810+265078129+264857315+264795317+264766805+264687451+264577927
2498+264470097+264354030+264203216+263990620+263713287+263429969+263223555
2488+263124737+263103614+263088799+262982754+262745538+262463104+262242542
2478+262079365+261896993+261633176+261250283+260776016+260351382+260119934
2468+260086286+260159530+260258061+260302955+260217347+259985791+259634763
2458+259202992+258829868+258709620+258784289+258683217+258178743+257503089
2448+257029326+256861426+256896427+257046898+257222530+257280347+257158134
2438+256951234+256783514+256695617+256666312+256628032+256482463+256223206
2428+256002085+255952559+256000535+255957785+255760184+255538306+255477119
2418+255641252+255942123+256254367+256492015+256581678+256505153+256377931
2408+256326332+256311733+256229117+256129866+256198461+256526744+256978880
2398+257305903+257427628+257573558+258090684+259196450+261018205+263810014
2388+268079958+274543825+283903492+296565427+312572343+331805542+354120735
2378+379184068+406247275+434201885+461913837+488571893+513740191+537001288
2368+557382354+573057183+582263946+585139940+583612154+578986406+570910245
2358+558562770+541447962+519244258+492804061+466238209+445878950+436272515
2348+438816098+452490910+473223996+493772638+508088842+515141457+516996824
2338+515935791+513525288+510821051+508575275+506863081+504842301+501309523
2328+495644838+488281871+480130123+471548928+462273066+452261913+441881583
2318+431297812+420498489+409814512+399697962+390047552+380336621+370370417
2308+360449846+350880502+341734512+333055814+325025827+317851811+311520573
2298+305722087+300128771+294731363+289767058+285380292+281500325+277982848
2288+274743444+271792710+269198285+266998000+265171955+263706546+262599482
2278+261778079+261108282+260508955+259978853+259519219+259105075+258696986
2268+258223764+257627644+256988324+256506739+256280067+256155458+255889533
2258+255429882+254962084+254661122+254478967+254239012+253864212+253419393
2248+252990074+252618067+252315555+252055830+251789526+251530251+251366767
2238+251344653+251424224+251586356+251842459+252114602+252270372+252302903
2228+252335651+252445427+252595755+252737251+252895761+253148764+253523348
2218+253943494+254310779+254617616+254960912+255458340+256131038+256857804
2208+257494619+258008356+258451229+258917260+259552255+260429871+261403296
2198+262256168+262972787+263707718+264552208+265453579+266306918+267040497
2188+267635121+268120058+268557325+268990267+269417856+269853105+270330707
2178+270792467+271089301+271168619+271124968+271033864+270873768+270613069
2168+270268853+269873453+269430779+268930234+268405340+267925773+267519072
2158+267153716+266783205+266365654+265896361+265460788+265238712+265432997
2148+266079634+266922250+267755350+268918357+271024402+274186560+277974594
2138+282074402+286539387+291495996+296985158+303013164+309554366+316544947
2128+323879978+331399887+338988137+346680451+354574078+362665055+370792329
2118+378656363+385971930+392738849+399298470+406093649+413551055+422228706
2108+432781082+445586045+460491881+476924061+494050368+510871983+526447471
2098+540178117+551949008+562137361+571250658+579210321+585178905+588214040
2088+587762895+583502468+574988282+561653667+543494406+521663303+497853378
2078+473366267+449138864+426064987+404881621+386054762+369841991+356299213
2068+345288881+336447402+329123942+322697652+317036319+312303768+308483348
2058+305432642+303064420+301205323+299653314+298452821+297820097+297944093
2048+299015220+301203052+304672119+309840098+317323024+327481567+340436695
2038+356500347+376016214+398732052+423642373+449305790+474159483+496873195
2028+516728899+533752764+548515284+561600752+573120984+582746198+589928902
2018+594043273+594811365+592653180+588213066+581653625+572664360+561015230
2008+546946261+531020520+513729882+495371289+476247920+456850065+437829715
1998+419924574+403883054+390125049+378276588+367353846+356710276+346546794
1988+337357766+329392264+322695958+317142941+312404804+308202121+304490126
1978+301266906+298425480+295847870+293471773+291372595+289850143+289070318
1968+288506009+287248744+285132101+282966942+281455178+280504858+279731665
1958+279042224+278507706+278092697+277706217+277312817+276968061+276816147
1948+277026040+277784021+279186676+280714318+281115576+279723194+277505120
1938+275871522+275196499+275047992+275078541+275201005+275325704+275357262
1928+275484701+276285180+278071430+280143790+281525412+282399947+283452239
1918+284114646+283275364+281467235+280430207+280982640+282457601+283639658
1908+283889921+283552968+283334407+283466567+283731808+284070545+284782965
1898+286119927+287766230+288968688+289592526+290513848+292107056+293156429
1888+292495500+290830075+289535412+288969751+288790912+288728481+288620867
1878+288416039+288261314+288405027+289392186+292174281+296975192+301646735
1868+302590170+299038054+294121330+290791362+289512001+289279183+289170813
1858+288913196+288694616+288743656+289048511+289582073+290593761+292475351
1848+295622406+300062177+304179955+304779679+301171025+296802534+294607529
1838+294461617+294771085+294980383+296381253+300247505+305356045+308426216
1828+308322189+307122705+305951120+303934233+301166213+299250686+298973641
1818+299600616+300269763+301142748+302907947+305421288+307324739+307462217
1808+306327110+305489414+306262300+309073917+313089956+316308057+317159702
1798+316399468+316532007+319457167+324546711+328007470+326301151+321353698
1788+317825426+317575378+319369432+321574188+323772491+325737869+326856791
1778+327557262+329743455+335025878+342628799+348493537+348739763+344583039
1768+339583464+335929357+335105178+337695692+341752354+344125370+344573955
1758+344956830+345535323+346233848+348940861+355256058+363205953+368156470
1748+368242258+365966745+364221209+364257290+366075062+368551203+370113701
1738+371439669+375669025+383661381+389803560+388000351+381521723+375532629
1728+371391873+369500460+370014504+372100886+375593798+382327555+393684681
1718+406427069+412476612+408694508+400946973+394896313+392655331+394702965
1708+400508336+407843367+413909310+419160735+426893780+437331639+444928035
1698+446150336+443167324+436991874+429499505+425294443+426444509+431460124
1688+439052052+450404600+464718677+472955710+468516750+459473309+454243403
1678+454956959+460210041+466381526+470839374+475227041+481241187+485679354
1668+484858059+482320532+483817283+489887444+496084881+498786342+500175822
1658+504897126+515942820+533883682+552725499+558097171+552303191+550798330
1648+555945150+559426960+554320546+545656519+540689494+541418477+547775811
1638+558951268+570485990+573441139+566337123+559041057+557998515+562770643
1628+570042595+577369768+584613208+591253572+595477917+598175630+603247404
1618+612216195+620698336+623047418+621417876+621182499+623740428+627289318
1608+629729450+630609896+630999619+631991734+633720329+635785805+638180520
1598+641337164+645404676+649836102+653785818+656832667+659128545+660912939
1588+662284252+663506264+665109493+667419430+670311283+674034778+679915159
1578+688697343+697133562+699618391+698034266+699551202+706275479+714242603
1568+719380449+723333264+729633719+739504619+753969655+775915274+804878868
1558+826412776+830683296+829564229+831107839+834987915+838912831+841204600
1548+842493225+845808612+853051656+862775779+871947181+875706793+867562253
1538+852143527+841158174+837183875+835346855+830696128+824507270+821054693
1528+821361800+823716144+827321337+833044128+839566335+842337725+840036007
1518+836148650+832289120+828016726+824752090+825368756+831621559+842969745
1508+854519714+855080221+841295939+826978762+820672539+821563150+826334413
1498+830473728+829549450+824377434+821217402+824266847+831713619+836826016
1488+834404267+826974869+820145339+816597674+816002276+817194443+819952928
1478+824848764+831845329+839642751+845302678+844706054+837632929+829939030
1468+826440891+827039030+828341784+827837508+827745376+832348884+843059210
1458+854958820+856939589+846921263+835937568+830530391+830566364+833458579
1448+835630677+834714114+831816420+829682674+829604816+831582341+835681285
1438+841066041+844176835+842134861+837855330+835317226+834331383+832425516
1428+829137595+826362673+825065758+824756560+825691579+828762795+832383127
1418+832274846+827430195+821502017+817190694+814526647+812645652+811323721
1408+811009549+811584546+811809326+811029518+810681896+812390306+815601090
1398+818378968+819729014+819600332+817870943+815359513+814002042+814504660
1388+815019028+813223388+809978289+808694423+811163968+816281772+822195027
1378+828416398+835240521+841624746+845314934+845972042+845962526+846995156
1368+848728437+850828373+853762328+856927478+858152518+856389103+853414129
1358+851645090+851641774+851929777+850913800+848948891+847758310+848107158
1348+849110375+849736773+850248762+851898994+855327637+859366457+861866569
1338+862054798+861155897+860375080+859811113+859489444+860074750+862090843
1328+865127816+868242286+870783418+872711777+874602937+877326675+881091910
1318+884873149+887565383+889582558+892347171+896271943+900008918+901978658
1308+902341707+902818372+904603198+907132796+909043132+909748037+909635647
1298+909216510+908759094+908526673+908586869+908283582+906784164+904382817
1288+902297732+901041332+900013100+898695927+897247117+895825629+894139207
1278+891962494+889957503+889448325+890881636+892872137+893614457+893159131
1268+893014084+894017445+895848049+897856717+899390090+900094274+900565100
1258+901770027+903681228+905444643+906691167+907637936+908090379+907373363
1248+905391152+903056056+901295092+900039629+898631766+896935828+895497903
1238+894892340+895389335+896788763+898256966+898973261+899086588+899338401
1228+899875334+900063203+899330183+897997294+897155273+897252668+897305943
1218+896600822+896234672+897409393+899524179+901485844+903393586+905669495
1208+908196713+911025703+914324798+917589362+920171009+922034126+923184191
1198+923578240+924196203+926482782+930023454+932525872+933061508+933544084
1188+935772485+938798789+940652245+941384761+942612829+945047915+948217319
1178+951751863+955342493+957963646+958823113+958916399+960099771+962781335
1168+965591438+967298262+968199831+969188701+970299261+970940221+971084259
1158+971409605+972485201+974628175+978113553+982596957+986859979+989896880
1148+991644003+992044972+990594576+987612320+984818510+983967260+985216740
1138+987133997+988866124+991371571+995469505+999892858+1002770870+1004200793
1128+1005604763+1007381371+1008538141+1008279479+1007315335+1007174830
1120+1008211209+1009240018+1009676816+1010755296+1013815410+1018830196
1111+1024980053+1031220889+1035811781+1036735481+1033965894+1029960092
1103+1027158856+1026449121+1027601854+1029864932+1031839068+1032229657
1094+1031643558+1031978348+1034237676+1038251841+1043817401+1050663656
1085+1057172166+1060330179+1058087287+1052008944+1046562694+1044756746
1077+1045571949+1046141395+1045732856+1046257750+1049049109+1052958670
1068+1055591140+1055735178+1054474741+1054283196+1057273598+1063015637
1060+1068422092+1070873687+1070615241+1069517658+1068746141+1068229682
1051+1067966694+1068845194+1071441475+1073741823+1071972352+1065944112
1043+1060075554+1057697780+1058331748+1060433918+1063118006+1064883728
1034+1064157917+1061834644+1060822848+1062680846+1065816079+1066817710
1025+1063953323+1059330062+1056505613+1056616633+1058054126+1059161442
1017+1059632411+1059493708+1058420347+1056805367+1056082800+1056604090
1008+1056874791+1056033058+1055068409+1054663835+1054265389+1054023524
1000+1054732250+1055714993+1055533972+1054071248+1051870386+1048832404
991+1045346305+1043063259+1042880220+1043472807+1043263455+1042502464
983+1041750484+1040292085+1038049698+1036721496+1037037614+1037177254
974+1035519813+1033032172+1031392177+1030543811+1029298513+1027010781
965+1023824653+1020035700+1015950309+1012084724+1008911572+1006270883
957+1003291294+999401054+995207455+992014766+990486223+989574345+987163914
947+982238665+976253608+972021657+971123476+972505603+973645504+972862453
937+970410642+968077348+967830581+969859002+972078104+972342173+970624824
927+968401973+967413896+969107022+973277119+977608917+979726010+978881393
917+975332791+969897283+964157623+959612004+957092644+957065754+959002331
907+961028229+961628170+960934151+959690150+958211350+956732117+955632515
897+955262545+955909128+957289380+958159733+957315405+954727630+951215723
887+947988646+946571556+947730489+950331744+952201133+952045561+950161105
877+948166783+947655442+948571429+949296952+948430203+946074633+943266982
867+941275255+941321537+943721587+947178129+949936686+951439709+951673211
857+950015770+946668374+943743358+942768978+942643468+941724309+940500206
847+940507126+942091900+944722425+947689397+949536726+948852728+946054160
837+942838474+940593708+940234623+941989820+944664175+946568528+947429870
827+948181489+949104109+949587406+949585820+950298510+952996007+957151037
817+960245250+960053561+957071233+953856989+952216344+952240711+953549305
807+956013515+958983443+961177746+962134320+962725825+963682327+964664205
797+965228893+965673838+966091965+965799709+964309878+962138645+960463181
787+960089246+960769567+961415069+961237149+960801287+961268148+962467812
777+962590223+960445302+957207773+955324831+956085390+958446799+960115342
767+959610057+957927024+957173025+957510699+957671317+957738073+958881435
757+960351801+959903467+957749464+956421982+956760521+957739443+959433074
747+962307626+964490538+963712533+961409374+961683680+966397847+972959920
737+976684423+975297611+971149429+968430810+969046754+971365846+972174057
727+969867076+965845126+962926382+962998185+965699647+968600728+969231451
717+967148673+963725221+960866890+958986039+956796494+954333005+953850789
707+955996358+957704479+956475762+954011768+952792206+952355840+950920294
697+948043363+944545658+941883702+941890983+945333251+950023195+951657424
687+948048482+941695761+936508389+933377843+930957391+928811894+927626071
677+927257759+926291597+924104504+921851447+920103532+917306477+912588057
667+909457943+909729221+909764329+907414743+904392477+903230444+904365947
657+906387880+908005600+909307489+910678874+910795012+907531963+901523115
647+896146433+892968811+889657677+883733176+877229280+875399902+880674792
637+889397501+895249983+896033539+894561227+892148705+886582424+877042421
627+866475555+857913609+852077491+849628780+851625265+857010454+863365626
617+869153371+873181449+874245006+871804081+867287082+864214424+863567265
607+862602400+859603636+856109463+856053448+862222049+871621475
##END=
