##TITLE=<SNM>
##JCAMP-DX=4.24
##DATA TYPE=INFRARED SPECTRUM
##DATE=2/5/2025
##SAMPLING PROCEDURE=Instrument type and / or accessory
##ORIGIN=Admin
##XUNITS=1/CM
##YUNITS=ABSORBANCE
##RESOLUTION=4
##FIRSTX=4497.3318
##LASTX=599.83466
##DELTAX=-1.4281778
##MAXY=1.7174323
##MINY=0.2255881
##XFACTOR=1
##YFACTOR=1.5994834e-09
##NPOINTS=2730
##FIRSTY=0.24652185
##XYDATA=(X++(Y..Y))
4497+154125913+154623251+154951779+154906045+155103736+155647860+155713297
4487+154733397+153306597+152586872+153102926+154326240+155247988+155323422
4477+154872889+154582241+154759492+155219089+155701326+156071991+156246586
4467+156271274+156340317+156478178+156450677+156203601+156113280+156604078
4457+157654334+158713534+159100512+158491379+156988615+154939919+152965670
4447+151934009+152396532+153849715+154816498+154098244+152050145+150303062
4437+150113961+151209625+152255633+152240466+151306868+150357655+150100900
4427+150529521+151099861+151267814+150917030+150275933+149497432+148606483
4417+147877776+147843409+148715753+150022942+150900121+150633276+149091486
4407+146933203+145336504+145147617+146087904+147014935+147130214+146695397
4397+146463172+146732727+147108228+147062802+146667169+146552980+147115634
4387+148106965+149012689+149390798+148929877+147629527+145932705+144528581
4377+144018406+144546580+145572214+146279139+146376894+146219673+146184821
4367+146244659+146080945+145468272+144525162+143501187+142477976+141546213
4357+141038096+141266614+142190607+143418645+144458532+145112150+145578493
4347+145984615+146130424+145914781+145506767+144941691+144128011+143254707
4337+142632085+142296971+142234272+142686054+143761743+144936893+145427952
4327+145126050+144724175+144736566+144879384+144647857+144043876+143465580
4317+143253860+143565301+144334394+145192810+145694266+145733049+145594675
4307+145543697+145553982+145539458+145628577+146052177+146839165+147688759
4297+148123194+147884754+147278053+146947998+147216724+147806898+148254814
4287+148364019+148156481+147624952+146824101+146093615+145859582+146192004
4277+146791718+147375864+147845198+148174135+148360413+148398125+148226483
4267+147819643+147318951+146963071+146920002+147180466+147553068+147812637
4257+147908138+148008968+148266096+148547213+148625879+148671706+149101799
4247+149785611+150012116+149536867+148946237+148738615+148842649+149165764
4237+149788704+150437458+150455513+149594106+148413665+147655305+147517490
4227+147792393+148332660+148942622+149160352+148803754+148486527+148917366
4217+149878233+150473260+150208912+149407008+148682950+148337104+148237905
4207+148183489+148301609+148853820+149696361+150350081+150598955+150594558
4197+150388939+149805445+148852338+147928867+147501801+147736580+148488931
4187+149523200+150615268+151489429+151837166+151572110+151058273+150903875
4177+151408769+152322412+153231797+153975093+154496914+154639443+154419049
4167+154110439+153776033+153204342+152470502+152016513+152113216+152627462
4157+153198818+153424774+153170850+152766572+152573643+152571677+152704452
4147+153167469+153942309+154570512+154728869+154528738+154159918+153833747
4137+154001719+154938373+156149986+156776522+156540206+155891582+155356401
4127+155088979+154967039+154856204+154733937+154619907+154493625+154387755
4117+154470102+154895192+155612691+156339944+156678310+156406704+155796444
4107+155436521+155626991+156149297+156629400+156830239+156675832+156312238
4097+156005109+155811332+155561340+155198622+154884804+154825227+155192780
4087+156073481+157281145+158337736+158793151+158548451+157903450+157345129
4077+157219453+157488953+157800618+157858378+157712859+157616659+157647366
4067+157639279+157540378+157635627+158163411+158771556+158725981+157812598
4057+156692023+156123491+156184903+156531113+157054145+157897153+159038764
4047+160221534+161195845+161793201+161910810+161634695+161197726+160703873
4037+160145607+159730215+159820060+160477079+161372778+162109096+162380665
4027+162020201+161210620+160533572+160526715+161180547+161985190+162465945
4017+162601310+162668070+162830899+163030304+163092946+162859985+162453257
4007+162357448+162863115+163584862+163958723+164000199+164126899+164456899
3997+164738808+164796830+164672141+164427832+164090044+163744803+163519015
3987+163515251+163814656+164371432+164870689+164929772+164579761+164371674
3977+164797128+165736856+166672746+167255700+167412735+167140459+166564529
3967+166121468+166413476+167710314+169504807+170754486+170840568+170072631
3957+169080639+168220844+167786409+168297945+170127206+172725932+174577776
3947+174707234+174022826+173983754+174415505+173938179+172264033+170625960
3937+170288563+171796917+174921358+178336335+179910481+178725959+176538396
3927+175817580+176918256+178085282+178138123+178041756+179128085+181068880
3917+182131489+181059955+178436839+175819108+174047402+173234878+174128565
3907+178193294+185732717+194382653+200456800+202204414+199987262+194386790
3897+187174311+182046600+181875442+185781217+189053600+188316593+186604791
3887+188147615+191868630+193660496+193541602+194258449+194509429+191608782
3878+188002319+187813721+191308650+196503811+202046448+205778960+205021531
3868+201681512+200194064+200787079+199886833+195895461+191455660+190082299
3858+193999924+204205634+218540373+226795842+219641068+205206291+193889321
3848+188659896+189118162+193670409+200135819+206926831+213568505+218846840
3838+219936951+216262946+211204827+207325510+204263283+201354419+199409972
3828+199145745+200405990+204038743+211415821+219840081+222406480+218493382
3818+214263048+211067021+205830068+199177812+195038032+195640904+200594923
3808+206985859+211456310+214935345+220271963+225245397+224634345+219860689
3798+215870695+212693617+208380276+204051488+202211066+203337547+206203966
3788+209660140+212953391+215477829+217708471+221103791+225525052+228381577
3778+228291619+227508254+228964680+233910053+241896394+250630829+257295514
3768+261608408+265067470+268350529+272606520+280169103+291449142+303129221
3758+311974053+319614855+330445349+347159865+367855058+384846377+393268774
3748+398975675+408406088+420235059+427364773+429122709+432743593+443059347
3738+460217687+480117349+495598730+501450778+499067536+494719389+494021343
3728+498541505+505694099+511379088+514039767+514984359+515665673+517092771
3718+520519766+527360230+538678149+553763777+567855325+574317512+572947877
3708+569673072+569412366+574217009+583010527+591544942+595917311+596405668
3698+595862010+596801422+600527729+607049838+615472160+623589208+626883614
3688+622639548+614541580+607454647+603463945+603133964+606708677+614835377
3678+627431185+638977203+640334840+633889720+629405333+628016170+624252710
3668+616877085+610313240+607356901+607478198+609462295+613423185+619541975
3658+625386757+627721405+628247138+632537823+643364255+658111331+668844675
3648+668404726+659811581+650997977+645949696+644409164+644647436+645354277
3638+646176714+647988759+652381177+660100533+670305535+680436604+685580432
3628+682960931+677688837+675485063+678241476+685575811+694289023+698820961
3618+697670145+696210478+698705589+703608983+707421559+709568094+711329160
3608+712290521+711388337+709605358+708448208+707835349+707504361+708506416
3598+711384386+714715722+716709396+717115137+717073251+717911265+719804995
3588+720773510+719285223+717845157+719373616+722495374+723611458+722165654
3578+720466745+718847435+715630353+711747421+711126811+716504290+726617695
3568+735565751+737015134+731768156+725622423+722076218+720672895+719249374
3558+716710962+714449725+715046262+718485592+720845208+719289099+716448169
3548+716356125+718654179+719577380+717871839+716547443+718296435+722326414
3538+726141002+728649901+729907667+729134867+726243108+723346579+722160064
3528+722142922+722227215+722307186+722450507+722449314+722448271+722502678
3518+721748659+719578573+717289164+717244968+720369484+724869597+727643003
3508+727173092+724538685+721736362+720218039+720721339+723125077+726509254
3498+729769638+731611345+730548028+726338804+721137141+718009197+718401075
3488+721364532+724723221+726911343+727473820+725656185+720620500+714174636
3478+710397089+711575406+716064340+720217517+721929394+721896154+721453446
3468+720809508+720769038+723632327+729329390+733300490+732113379+728428622
3458+726444264+726326731+725669079+723988654+723506595+725748006+729350482
3448+731976542+733365406+734658648+735388221+734069862+731436796+729820989
3438+729466823+728195418+725420298+723758133+724688639+725674520+723903616
3428+720910347+720256273+722398932+725035203+726902697+728326218+728710941
3418+726649892+723018350+721080126+722468692+725366115+727358746+727929197
3408+727426270+726158219+725168313+725573085+727221909+729169374+730705211
3398+731544865+732056736+732803749+732683234+729510796+723765288+719065360
3388+718232116+720667380+723311625+723704621+722715759+723498248+726889431
3378+729746235+729303975+726740520+725066654+725778862+728332851+731022410
3368+731832327+730243871+728274271+728203020+730230605+733341184+736859888
3358+740021147+741361641+739573818+735296549+731677603+731691540+735133851
3348+738956413+740405050+739090790+736156848+733085844+731326865+731412053
3338+732369910+732824021+732270786+730763345+728365197+725797718+724609786
3328+725993135+729788270+734409197+737366393+736615430+732487668+728041663
3318+726511639+728522679+732233968+735925880+739300145+741681821+741035349
3308+736858546+732397486+731467652+734489018+739025502+742822054+744960539
3298+745103189+743694053+742383222+742382924+742764442+741879698+739908085
3288+738286240+737438836+736774849+736263500+736801456+738963791+742062967
3278+744636930+745580851+745119139+744706094+745277291+745781709+744359903
3268+741474181+740265008+742047390+743742572+742451119+739927612+739072829
3258+739218535+738135168+736322751+736221912+738370906+740621410+741044889
3248+740350941+740479878+741787952+743067406+743178157+741587690+738990101
3238+737641706+739032583+741466057+742095164+740844925+739822525+739975907
3228+740693183+741362759+741480665+740347215+737876624+734815161+731917514
3218+729632652+728372501+728439354+729766210+731997038+734627197+736852658
3208+737784580+737283739+736283176+735859622+735753939+734613930+732492736
3198+731783808+733888904+736453327+736223850+733314353+730357977+728900992
3188+728645504+729247034+731173557+734264832+736312540+734843259+730594833
3178+726810802+724989367+723954519+722996736+723320643+725823579+729346159
3168+731647567+731431356+729406826+727429027+726488609+725935449+724900005
3158+723832141+723879393+725190001+726517154+726342531+724232739+721171052
3148+718562283+717202635+717364216+719012444+721285978+722706517+722584735
3138+721507853+720413307+719820497+719636706+718908996+716469857+712606080
3128+709188438+707832367+708535855+710047246+711060554+710902998+709571224
3118+707762682+706621779+706681999+707294336+707839895+708830024+710603164
3108+711678109+709998578+705715048+701450747+699651149+700490281+702460031
3098+704453481+706277004+707240004+705986337+702633387+699657335+699273283
3088+700921585+702477769+703126701+703638572+704188230+703764527+701811547
3078+698991784+696417596+694705198+693532024+692253538+691047123+690621558
3068+690861395+690850215+690330519+690150902+690840377+691566820+691114871
3058+689517249+688011969+687511277+687706620+687663095+686874270+685654440
3048+684781472+684585533+684332355+682907642+680280986+677972497+677369253
3038+677726027+677071208+675053163+673118293+671913070+670505052+668315513
3028+666227410+665526233+666357837+667434570+667767644+668244934+670044755
3018+672136660+672251138+669977529+667033525+664817976+663329540+662376154
3008+662485713+663832318+665056322+664659078+663109080+661803168+660737540
2998+659052420+656979222+655381526+654240473+653116712+652136122+651317710
2988+650092066+648542814+647913111+648797408+649813846+649215819+647245174
2978+645648670+645160499+644758709+643543872+642155381+641672353+641998570
2968+642138462+641662440+641102274+640922955+640806465+640224237+639212271
2958+638127787+637093685+636171974+635634912+635626788+635763401+635188030
2948+633075556+629587633+626285065+624599609+624054647+623057810+621264249
2938+619962212+620086789+620988302+621370230+620765159+619747044+618965524
2928+618349833+617321246+615666459+613940236+612637193+611257943+609085025
2918+606783692+606005041+607163496+608690091+608861510+607587794+605930585
2908+604639952+603834656+603546114+603772908+604078034+603662716+602021755
2898+599482932+597019757+595418632+594633721+594081939+593428051+592806062
2888+592433748+592199463+591517776+589939867+588118767+587374288+587981557
2878+588794380+588913367+588691380+588564232+588024114+586449111+584037698
2868+581280241+578406109+575899260+574551350+574496048+574960332+575177289
2858+574880287+574115462+573290975+572936176+572908450+572477146+571321374
2848+569681605+567736562+565673016+563964195+562870693+562062193+561113875
2838+560012547+559008183+558258301+557709649+557214547+556793863+556685087
2828+556891609+556823079+555724248+553422206+550472426+547781600+546202424
2818+546028844+546566278+546538702+545306351+543508728+542262514+541934508
2808+541865717+541108121+539276363+536837299+534754822+533709988+533526495
2798+533484274+533123736+532474096+531723394+531045247+530490186+529780997
2788+528530833+526808559+525163909+524047004+523467013+523126039+522631943
2778+521644683+520038564+518062032+516280843+515142660+514551452+514042674
2768+513314032+512358709+511243518+510038817+508829570+507649092+506528013
2758+505545561+504647140+503636106+502516518+501510476+500616043+499547695
2748+498239286+497061267+496368139+495974137+495250899+493892928+492462252
2738+491740617+491644622+491318815+490221847+488625082+487150322+486227456
2728+485829169+485487710+484745020+483578702+482221774+480848375+479636668
2718+478762694+478158145+477561533+476812135+475883717+474791444+473652441
2708+472665554+471927038+471394224+470975589+470509368+469738766+468488490
2698+466872348+465209400+463747124+462611661+461948047+461753375+461568951
2688+460834124+459637733+458674807+458368341+458365434+458011603+457135654
2678+456161139+455384388+454441697+452885923+451028229+449631949+448970534
2668+448661757+448227471+447495029+446665735+446124313+445972607+445825485
2658+445272660+444317001+443170024+441953323+440822929+440050576+439703043
2648+439434214+438846695+437949616+437035582+436256894+435587727+435045187
2638+434647794+434240153+433594128+432670107+431682698+430877887+430232756
2628+429449634+428332841+427088639+426193126+426021148+426505033+427035798
2618+426898924+425974902+424811267+423928200+423303826+422617481+421773281
2608+420979911+420363064+419767496+419051972+418317778+417658599+416937746
2598+416046294+415163413+414524320+414087649+413656382+413222730+412913953
2588+412644304+412166195+411490879+410886219+410402781+409791598+409008550
2578+408433627+408367929+408528764+408303274+407457807+406367696+405523683
2568+405050008+404772049+404497779+404080300+403432487+402679474+402105855
2558+401758918+401331341+400661503+400077748+399949818+400119932+400061165
2548+399499434+398695033+398125625+397992999+398080012+398014165+397571719
2538+396799626+395977301+395402490+395143573+395046311+394925312+394676345
2528+394323893+393995105+393726201+393389661+392919974+392411718+391942850
2518+391544637+391295782+391203253+391137369+391082701+391198148+391437538
2508+391420582+390912549+390187337+389688508+389495252+389298568+388775331
2498+387889283+386966715+386479140+386552217+386746516+386552478+385980647
2488+385417760+385078165+384872388+384665530+384405160+384067652+383689524
2478+383434819+383461016+383674358+383722169+383324067+382598929+381958755
2468+381631978+381442971+381183644+380968029+380971830+381052211+380925733
2458+380559009+380139182+379779725+379446651+379141675+379008974+379144432
2448+379368544+379364705+379008639+378428126+377866096+377593615+377736079
2438+378070830+378185456+377875971+377270453+376665569+376361189+376478387
2428+376807958+376979451+376848875+376596778+376447420+376428974+376393274
2418+376172517+375746988+375299399+375036011+374966437+374943072+374868840
2408+374780746+374789913+374959655+375169717+375180114+374943109+374714340
2398+374711060+374811787+374776907+374603588+374439101+374271670+373970494
2388+373570902+373252474+373017742+372568401+371514810+369662146+367184922
2378+364571607+362308620+360577179+359277900+358300031+357720933+357727567
2368+358247673+358725298+358566773+357881396+357492462+358097384+359555337
2358+361100863+362323004+363903670+367189320+372729982+379332769+385015597
2348+388559828+390038948+390454824+390645062+390263133+388453511+385213176
2338+381356442+377540736+373885903+370399284+367288892+364728157+362656525
2328+361005278+359828415+359096121+358655613+358443724+358481064+358663028
2318+358776314+358703423+358519745+358432917+358639141+359200463+360058376
2308+361099633+362115475+362811696+363065433+363099680+363227871+363504265
2298+363753418+363839985+363835699+364003429+364559571+365336731+365851024
2288+365876141+365729988+365820840+366152348+366419165+366403849+366186073
2278+366046591+366178881+366458331+366545754+366251622+365727379+365266896
2268+365028103+365039692+365349364+365944969+366582274+366940055+366952538
2258+366818645+366719334+366681958+366686169+366775493+367038136+367493103
2248+368003931+368361041+368502014+368598009+368857634+369291807+369740514
2238+370073737+370276421+370399135+370529115+370780765+371230180+371838903
2228+372459811+372959049+373371051+373902560+374744636+375895265+377169950
2218+378373384+379462302+380525806+381641220+382855088+384291204+386097398
2208+388231710+390430900+392454461+394291510+396077879+397895924+399778883
2198+401836392+404183636+406761251+409366927+411839754+414160577+416431688
2188+418710401+420821758+422506282+423784097+424946353+426202889+427522478
2178+428740668+429719432+430437974+430932368+431183608+431144853+430809655
2168+430204137+429401897+428514209+427566339+426426851+424932900+423106918
2158+421157105+419122254+416701039+413712727+410445151+407275955+404266439
2148+401163946+397621914+393917631+391524179+391962675+395025182+399106438
2138+403093972+406915491+410660579+414244423+417622638+420765153+423649011
2128+426358955+429068637+431988978+435205352+438487722+441517473+444233267
2118+446747383+449179628+451686216+454388371+457253225+460089123+462582371
2108+464550370+466249092+468140063+470477842+473369191+476907273+481008689
2098+485296168+489208614+492324037+494684398+496518913+497639693+497528532
2088+495869273+492638776+487919172+481770272+474241749+465747356+457207240
2078+449416409+442615000+436796080+431888400+427706902+424175006+421373577
2068+419236992+417516545+415941542+414287613+412574842+411063749+409815895
2058+408614362+407358832+406127934+405042108+404289617+403917788+403635506
2048+403162129+402531458+401938647+401563948+401389064+401111142+400604339
2038+400249800+400476371+401458302+403350466+406198700+409756607+413892306
2028+418809303+424532079+430529721+435971817+440279122+443520910+446048330
2018+447645207+447616885+445815498+442895567+439568740+436144577+432618867
2008+428846687+424723844+420367610+416134165+412377599+409090086+405873153
1998+402507086+399484789+397597282+396896478+396422319+395226524+393322249
1988+391250132+389344329+387835435+386954045+386569731+386249961+385788807
1978+385287743+384832179+384387459+383902605+383489598+383534279+384264597
1968+385087705+384938906+383603666+382042675+381122455+380742912+380453773
1958+380254070+380325731+380482728+380400708+380099719+379853659+379845870
1948+380197204+381200339+383039661+384960445+385337715+383511771+380866557
1938+379126694+378635393+378729897+378809719+378677913+378390861+378088158
1928+378015976+378674521+380335047+382248974+383350786+383817306+384375125
1918+384429494+382894701+380480716+379038973+379269009+380282392+380777195
1908+380248294+379221943+378437181+378042620+377755456+377501794+377591938
1898+378304481+379343017+379973652+380160312+380899573+382487544+383425130
1888+382415697+380381032+378908396+378303102+378107126+378100567+378211132
1878+378275898+378196338+378163694+378992019+381940867+387238227+392446449
1868+393665571+390061642+384924522+381451989+380295024+380421911+380676170
1858+380558487+380222060+380053249+380239202+380792362+381814837+383600573
1848+386691662+391328165+395799175+396472999+392484720+387642477+385172892
1838+384897915+385097096+385268514+386850821+391121606+396635325+399834147
1828+399562374+398070174+396535344+394101943+390996805+388881536+388415836
1818+388759232+389122342+389820165+391616447+394291622+396291780+396335864
1808+395025182+394119197+394993432+398043642+402409788+406016735+407097195
1798+406263131+406178949+409078199+414452063+418189065+416364127+411033825
1788+407197996+406788604+408491090+410624917+412681271+414270806+414825159
1778+415149253+417502161+423522422+432160211+438904679+439578429+435509806
1768+430403206+426443173+425241044+427659277+431915007+434786941+435855960
1758+436851344+437956697+439150665+442531862+449804113+458753026+464307849
1748+464499205+462142980+460443550+460791866+463185541+466386860+468673362
1738+470778682+476229386+486242586+494760120+494493676+488708593+483517289
1728+480663913+480379805+482686430+486883356+493000395+502909626+517752920
1718+533619211+541751798+539408318+533268510+529115184+528910376+533243245
1708+541946992+552961016+562927858+571549137+582382985+596619159+608643808
1698+613495740+613065143+609187392+604081984+602445830+606681660+615389581
1688+626838375+642006619+660561799+673464260+672939868+666804718+664284416
1678+668062037+676857605+686713509+694352672+701198240+709280110+715612019
1668+716217350+714345905+715927802+721774223+727545443+729792593+731063327
1658+736227204+748228301+767399247+787096149+792251380+785888020+784034909
1648+788536290+790735592+784456078+775270420+769824299+769494430+774210159
1638+783512008+792979015+793200816+782604905+771373775+765670750+764514941
1628+764801955+765031731+765124222+763318140+757657895+751067218+748582020
1618+750552366+751180727+745457802+736803916+730388459+727154757+725367606
1608+723134318+720057427+717031738+714726753+712861121+710974770+709354342
1598+708677536+708822869+708622533+707156903+704852663+702785876+701405433
1588+700424918+699613810+699142557+699080698+699264637+700334812+704082099
1578+711154238+717597047+717304965+712702820+711606262+715772332+719874456
1568+718868825+715125711+713304947+715594728+723910100+740286920+759604317
1558+764102716+751719802+738748698+731170576+728097635+727957742+729168554
1548+731499625+736906991+747212236+762002315+778807310+790981838+787891308
1538+773360518+763088439+762361922+766328923+767795447+766426408+767753413
1528+774209562+783292070+792029654+800341523+807718340+811021951+809817921
1518+807215040+804117280+800245528+797666869+799324041+806806616+820251357
1508+836006748+841639939+829214170+812467458+803115375+801947343+806253381
1498+811799670+813661873+811091487+809185312+812421622+820105651+826516711
1488+826107169+819952940+813055126+808690508+807402259+808488159+811789236
1478+817970371+827070393+837260638+844237975+842661967+833282905+824622758
1468+823022974+827878968+833304593+834081567+832805988+835917461+845840517
1458+857798610+860672631+851577975+840624395+834375587+833198686+834958783
1448+836348616+835165753+832409787+830353583+830043613+832003525+837107479
1438+844594974+849788960+848536709+844109859+841800476+842360494+843358598
1428+843327519+843331916+844632388+847308159+851428021+857137158+862121268
1418+861889629+856290722+850035132+846073348+844075351+842644900+841298667
1408+840767939+841341819+841701053+840964698+840903733+843507285+847902907
1398+851771082+854389912+855743002+854722465+851495545+848793763+848492215
1388+849153146+847961711+844989833+843381553+845246588+849977148+855969573
1378+862467310+869407159+875836627+879508565+879467499+877837978+877161619
1368+877971983+879925410+883039566+886377014+887475211+885237825+881632666
1358+878851062+877060557+875395261+873683087+872642352+872696386+873260651
1348+873349491+872452673+870909160+869997734+871207875+874419889+877143807
1338+876925136+874264122+871588350+870302486+870095815+870211411+870412269
1328+870797886+871341060+872081291+873479248+875863756+878555999+880250062
1318+880418351+879841862+879633924+880148478+880899665+881378147+881761156
1308+882551917+883706907+884615575+884979355+885278145+886152679+887505694
1298+888433740+888142328+886789388+885231117+883951290+882383405+879497833
1288+875132842+870382308+866375880+863064965+859596942+855623009+851827501
1278+849046270+847211866+845670440+844398960+844123870+845063990+846356562
1268+847059453+847060496+846755669+846530514+846828857+848063221+849996898
1258+851680752+852472632+852758901+853337923+854530699+856193237+858149646
1248+860231563+862147205+863669030+864995364+866722072+869095922+871304541
1238+872102010+871378623+870508412+870912141+872813547+875514584+878381375
1228+881190704+883941303+886840217+890005650+892802681+894246697+894444574
1218+894692982+895890528+897828677+900061816+902472335+905075291+907986800
1208+911276548+914531640+917082798+918795196+920258217+922197783+924795596
1198+927501775+929714493+931692366+934219078+937326004+940129967+942079147
1188+943673713+945744824+948434681+951046059+952763152+953500253+954153134
1178+955887892+958894799+962007390+963914758+964707011+965699749+967762959
1168+970204185+971414475+970964911+970726043+972888304+977050797+980421037
1158+981103507+980030352+979337299+980258339+982799509+986277073+989762015
1148+992524241+994543031+996428786+998473811+1000061893+1000494241+1000024778
1138+999622913+1000138585+1001658696+1003219873+1003822820+1004051477
1130+1005343453+1007467628+1008712873+1008727556+1008742015+1008985206
1121+1008504413+1008019522+1010167249+1015620078+1021371324+1024464687
1113+1025609242+1027080089+1028970464+1029544344+1028129022+1026143323
1104+1025611925+1027613499+1031687227+1035876625+1038033445+1037698284
1095+1036240704+1035622479+1037378924+1041600817+1046070075+1047515657
1087+1045060419+1041078065+1038254501+1037993050+1041026788+1046637993
1078+1051410066+1051946681+1049242067+1047374944+1048297177+1050483734
1070+1051938036+1051922757+1050230482+1047464380+1045723362+1047076378
1061+1051698720+1058054404+1063532871+1065276572+1063052451+1060032277
1053+1058712726+1059056681+1060752459+1063834791+1067094802+1069214059
1044+1070772702+1072434271+1073040050+1071551912+1069100475+1067426833
1035+1066956326+1067506878+1069206233+1071870453+1073741823+1072598162
1027+1068809884+1065323153+1064618547+1066813526+1069981046+1071704698
1018+1071062921+1069104426+1067429665+1066972573+1067628436+1068184056
1010+1066750623+1062657443+1057570556+1053713561+1052052513+1052795651
1001+1055729892+1059255825+1060765130+1059040807+1055252155+1051349250
993+1048693154+1047589367+1046910251+1044913372+1041397202+1038157239
984+1036547171+1035660638+1034063910+1032045790+1030705445+1029826887
975+1028200422+1025628321+1022938538+1020453265+1017919995+1015421679
967+1012875441+1009255898+1003789579+997443063+992138102+989079023+988059082
957+987498990+985344182+980776470+975084028+970381342+967581181+965853877
947+963956197+961925556+960814390+960693801+960316456+959242332+958752000
937+959635551+960360727+958978273+956269559+955063070+956512825+958791650
927+959709932+959030145+957530604+955791077+954591743+954729847+955913381
917+956987282+957488570+957834314+957861517+956614036+954142700+952090595
907+951700207+952566692+953706030+954448273+954343186+953598260+953144671
897+953210183+952812193+951273524+948956539+946435641+944374369+943562887
887+943890148+943984428+942809614+941234723+941024847+942433760+943917724
877+944390243+944418490+944657060+944532148+943223180+940903885+938388800
867+936347055+935199369+935287538+936741690+938995772+940526242+940072579
857+938541139+938305401+940169617+942277098+942481235+940642434+938218798
847+936671185+936281692+936465557+937167927+939067395+941967725+943767248
837+942354385+938168639+933717641+931128622+930857184+931797006+932380873
827+932342788+932856299+934577417+936669471+938164614+939149676+940260245
817+942109257+945069956+948545507+950782670+950769478+949978642+950443559
807+951730243+951544142+949102618+946523735+946346801+948594175+950750920
797+950480004+948433712+947321950+948166970+949552778+950208641+950418443
787+950734524+950861448+950324535+949007741+946740915+943884335+942055595
777+942532959+944620541+946968977+949429953+952006227+953614656+953680317
767+953141019+952430153+950901173+948778115+947321056+947267245+948116811
757+948428793+947079877+944905468+944350743+946345534+948705374+949504259
747+949969028+951603617+953130957+952748992+950936127+949001332+947549490
737+947188095+948561829+950851387+952313439+953097941+954829567+957754418
727+960031901+959958042+958254588+956923931+956117220+953743295+948981432
717+944606976+943921152+947051332+951049934+952917727+952724620+952635855
707+953295072+952738707+949269267+944600939+942047472+942135864+942434505
697+941525762+940426000+939688154+937958167+933931318+927953426+921490047
687+915942863+911861981+908876687+906149788+903365725+901468716+901380025
677+902083513+901605255+899505227+896451961+892171115+886232650+881151874
667+880824464+883338506+885387928+888299884+893536949+897600467+895013311
657+886114147+877138366+873293743+874481972+876893759+877411220+875580543
647+872376056+868965644+865783741+861885381+856863931+852655155+851849189
637+854166546+855404115+852803246+850232040+852201045+855948556+856094261
627+854032765+854810037+857970178+858803422+855401283+849089944+841467477
617+834401523+830109050+829746910+832403527+834849075+833906273+830779595
607+828826913+827058543+823089753+819768925+821397030+826246465
##END=
