##TITLE=<SNM>
##JCAMP-DX=4.24
##DATA TYPE=INFRARED SPECTRUM
##DATE=3/5/2025
##SAMPLING PROCEDURE=Instrument type and / or accessory
##ORIGIN=Admin
##XUNITS=1/CM
##YUNITS=ABSORBANCE
##RESOLUTION=4
##FIRSTX=4497.3318
##LASTX=599.83466
##DELTAX=-1.4281778
##MAXY=1.7705206
##MINY=0.20312156
##XFACTOR=1
##YFACTOR=1.6489258e-09
##NPOINTS=2730
##FIRSTY=0.22975856
##XYDATA=(X++(Y..Y))
4497+139338328+140766383+141022597+139708289+137587060+135768142+134856085
4487+134792564+135216096+135948554+137024830+138282837+139348874+140072178
4477+140453553+140238366+139261731+138029777+137256192+137031617+136958355
4467+136870652+136981516+137402500+137877605+138028241+137618084+136583053
4457+135140882+133899087+133479486+133940792+134791625+135509587+135917178
4447+136193807+136579709+136990463+137039434+136485508+135479251+134490768
4437+134103737+134502128+135146250+135332013+134965106+134508011+134393450
4427+134668669+134985674+134962169+134668271+134460766+134341524+133981522
4417+133353982+132805099+132572128+132701464+133245467+134091934+134776614
4407+134850970+134362255+133755672+133405429+133377171+133532388+133732194
4397+133913022+133961550+133660342+132928281+131997165+131195349+130671950
4387+130395937+130271408+130210789+130203939+130311875+130484833+130391635
4377+129666687+128490924+127664112+127730903+128290179+128582667+128406538
4367+127994564+127493559+127105903+127217418+127871319+128530460+128625158
4357+127964019+126704250+125433636+124969537+125482724+126183200+126404622
4347+126503124+127061216+127793683+127999516+127660868+127326476+127218566
4337+127104891+126777530+126194126+125449360+124915171+125015688+125684156
4327+126376545+126602142+126144423+125047941+123804465+123184173+123537913
4317+124555828+125714412+126530280+126602702+126003014+125453454+125635384
4307+126431082+127183910+127552027+127735440+127983927+128281946+128460831
4297+128285064+127591293+126669629+126276669+126933886+128328965+129544146
4287+129793339+129033806+127939339+127141264+126634259+126217622+126171769
4277+126885240+128053837+128895298+129072864+128916914+128835690+128940021
4267+129154801+129317962+129156979+128480423+127570526+127200393+127932607
4257+129401806+130600179+130884254+130434569+129865923+129702545+130002678
4247+130286644+130140247+129864658+130018186+130488673+130667459+130360241
4237+129881295+129509156+129415786+129797116+130584997+131340725+131803387
4227+132219021+132816224+133280774+133085189+132244333+131445336+131296815
4217+131685564+132139984+132477873+132664648+132489947+131935967+131388838
4207+131101636+131008475+131167443+131693282+132296892+132605601+132787324
4197+133231984+133810435+134040036+133824135+133544877+133540178+133841875
4187+134331331+134803698+134935149+134514843+133748966+133180781+133277656
4177+134046542+135008167+135675948+136040586+136355757+136598849+136546616
4167+136266987+136122966+136305439+136639542+136884089+137002138+136988140
4157+136611772+135692241+134605374+134074177+134353290+134958816+135247319
4147+134979601+134366574+133883137+133971780+134610299+135228766+135342170
4137+135135767+135103433+135353114+135679680+136077800+136693845+137377829
4127+137718935+137513699+136915637+136212368+135728090+135775742+136351193
4117+137006069+137363569+137562760+137870059+138135934+138019385+137502791
4107+136864317+136371056+136237907+136617465+137362195+137995311+138162376
4097+137955178+137627184+137234621+136792266+136534624+136699439+137180780
4087+137622421+137794439+137764563+137714959+137641083+137310766+136623954
4077+135936300+135777369+136226113+136793269+136963587+136668496+136224062
4067+136036059+136350063+137033361+137623506+137760270+137470014+136940904
4057+136287872+135666694+135362458+135580238+136238015+136985998+137419408
4047+137372091+136961734+136346006+135636583+135018830+134666518+134580306
4037+134704898+135046013+135552549+136124909+136777590+137543069+138260516
4027+138690067+138784150+138727362+138744270+138884414+139011292+138987588
4017+138719916+138079417+137092552+136140417+135621003+135537367+135701386
4007+136053509+136540688+137093483+137856911+138946877+139957915+140269363
3997+139850792+139266313+138935861+138813240+138699022+138512627+138353253
3987+138517435+139217306+140141418+140645324+140496315+140073859+139852545
3977+140056300+140657822+141316747+141474522+140869015+139894865+139268310
3967+139413768+140249120+141410297+142540261+143454171+144144291+144580944
3957+144565618+144024398+143430901+143584203+144783109+146299083+146918228
3947+146330513+145618452+145809564+146495509+146541398+145718120+144732764
3937+144193705+144476803+145914446+148216494+150060110+150255226+149249799
3927+148485378+148643975+149261999+149840541+150621672+151903762+153171566
3917+153321705+151799151+149339120+147227633+146138226+146121364+147465014
3907+150835376+156247705+162211601+166431594+167652351+166047074+162269094
3897+157655779+154430640+154302063+156807703+159041153+158694606+157612547
3887+158701637+161420403+163094126+163494767+164126554+164045981+161741899
3878+159203202+159274756+161980166+165748043+169613844+172345552+172243435
3868+170280224+169221282+169366251+168514958+165681478+162655330+161756666
3858+164357230+171032076+180434092+186191206+182396562+173749920+166572461
3848+162941511+162923798+165649180+169692772+174068218+178432060+181690401
3838+181961110+179415418+176452077+174262800+172293517+170419121+169550839
3828+169940943+170964715+173173511+177998144+183976969+186309770+184153929
3818+181525387+179372945+175716818+171273812+168929625+170158516+174344801
3808+178947162+181527755+183422827+187344422+191798307+192614049+190399848
3798+188769973+187992439+186651672+185327261+185625352+187863374+191399473
3788+195854244+201048522+206547361+212374655+219422219+227894448+236313287
3778+243767854+251823754+262406585+275770916+290580644+304022061+313040118
3768+317373235+318990513+319271198+319531425+321503057+325573417+330365102
3758+334977820+340843665+350573143+365764806+384673812+400975096+410298637
3748+416948125+426476405+438633987+448293085+454272542+461625824+474159918
3738+491462382+509112874+521687273+528131010+532121086+537118884+544200010
3728+553164786+562624639+569989162+573466630+572858556+568891722+563850186
3718+560689479+560600159+562974258+566272036+567218632+562645496+554131589
3708+545921574+540548745+538704207+539740847+541744796+543102353+544155910
3698+546131121+549654316+555023747+562462698+571246772+578705713+581351859
3688+579103553+575691223+573871663+574135649+575922350+578357033+581249127
3678+584964410+587848985+586970491+584342383+584027790+584732198+581288962
3668+572825842+563868151+557784047+555142744+555311481+557839642+562304227
3658+566678552+568133274+567559323+569415790+575798075+583392027+585082323
3648+577661807+566376973+557509470+553341078+553023666+554741145+557495987
3638+560707481+563078905+564028321+565446245+569801195+576898588+582788760
3628+583302490+579850036+576897576+577521482+582640519+590365325+596556643
3618+598849086+599031992+599199355+599622318+600784643+603619985+607229428
3608+609181902+608922869+608401042+609282248+611666468+614635557+616973292
3598+617922454+617620550+616797398+616383942+617583029+621814029+629278283
3588+636814182+639658417+637571618+634163047+631490947+629636433+628722117
3578+629194348+630782022+632307593+632739412+632414518+633115780+635952786
3568+639102395+639448978+637070107+634604771+632648826+629480565+624684651
3558+620508596+618965022+619697589+620986177+621707466+622121283+622972196
3548+624032549+623679532+620760689+616593670+613408130+611851905+611415749
3538+611812143+612408144+611694880+609048011+606180425+605726340+608567177
3528+612557000+614124575+611794648+607690598+605103011+605116133+605967842
3518+605361792+602773879+599257806+596175901+594792751+595559513+597008560
3508+596963846+595451829+594382838+594503751+594774063+594395525+593518043
3498+592071960+589691607+586662261+583927083+582396993+582265380+582648110
3488+582441455+581830561+581992972+582994982+583302923+581937521+579930284
3478+578773381+578405037+577612791+575932219+574113165+572729870+571441318
3468+570028093+569238088+569816305+571410231+572934971+573426181+572574255
3458+571113387+570127029+569322312+567295265+564214806+562308095+562903084
3448+564793854+565973566+565617223+564139800+562368823+560903184+559856314
3438+558984905+558034405+556956593+555988597+555321096+554604688+553295568
3428+551319561+549072231+547242080+546590485+546999097+547161327+546246324
3418+545008703+544185768+543252077+541755134+540484402+540339162+540861349
3408+540904979+540295712+539748185+539388300+538541363+537031587+535571913
3398+534776919+534679032+535053268+535398947+534878422+533270867+531727945
3388+531696750+533249251+534857709+534762388+532628887+529837391+528221451
3378+528555960+529996802+531036551+530938302+529976379+528723830+527619955
3368+526988096+527033859+527792885+529134394+530765082+532349213+533557879
3358+533804080+532416448+529690199+527133951+526041825+526406193+527380948
3348+528118973+528053437+527062596+525636900+524606514+524450465+524775938
3338+524726235+524085338+523547969+523430092+523024480+521949524+520945236
3328+520704457+520938476+521043268+520727266+519658021+517566451+515155011
3318+513896570+514464123+516052808+517455442+518217613+518402038+517907214
3308+516815630+515960271+516149250+516962968+517117715+516103632+514782041
3298+514076838+513774789+513192090+512416327+512101446+512541832+513562820
3288+514781462+515616724+515640690+515072053+514377911+513738352+513433484
3278+513963154+515228608+516376220+516819534+516718502+516407524+516028553
3268+515543525+514738266+513577062+512579751+512357877+512846881+513380094
3258+513487777+513358224+513382443+513371238+512665240+511188323+509734323
3248+508875782+508251189+507274337+506004365+505017681+504727055+504927312
3238+504987642+504539123+503856151+503434056+503337976+503099330+502181579
3228+500507947+498539930+496751782+495206112+493831204+492838845+492640865
3218+493379757+494596592+495503607+495586963+494765980+493142520+491097725
3208+489386066+488342883+487214067+485191684+482905856+481793849+482186086
3198+482985092+483126501+482615989+482049448+481680201+481145651+480042319
3188+478712378+477995463+477965642+477607275+476212955+474293411+472593861
3178+471155260+469775725+468552853+467590243+466741354+465928974+465394387
3168+465359758+465477202+464912649+463244692+461051330+459311548+458458177
3158+458136066+457635277+456522330+454973733+453485863+452369988+451617576
3148+451046481+450492158+449991044+449662933+449301530+448470244+447227166
3138+446243301+445972050+446168801+446277208+445852076+444678473+442824537
3128+440560977+438251835+436472507+435906473+436639220+437720646+437915590
3118+436880324+435290482+433975723+433344731+433482236+434183861+434783910
3108+434528744+433333164+431722718+430100813+428622920+427546265+426997906
3098+426610585+426069781+425749550+426182562+427146328+427826806+427735389
3088+427032861+426045960+424910927+423739926+422704805+421759727+420632465
3078+419292620+418142151+417607421+417701368+418009128+418101522+417994959
3068+418000887+418013321+417435683+416118394+414738967+413903452+413441089
3058+412868258+412100087+411367267+410700381+409861504+408731821+407530059
3048+406548942+405831991+405244702+404671257+404011130+403194557+402313243
3038+401536360+400867232+400173235+399423209+398698017+398040963+397475687
3028+397048351+396717528+396320773+395709951+394859001+393867799+392887513
3018+391994452+391218255+390686199+390472676+390316121+389842913+389094369
3008+388505634+388351211+388419386+388198633+387304270+385806712+384183470
2998+382903015+382085502+381584135+381249264+380964963+380546266+379866547
2988+379092194+378502013+378064230+377534235+376902845+376303663+375602364
2978+374623416+373661927+373199781+373179357+373001077+372198132+370843393
2968+369398322+368373684+367973494+367925092+367830241+367651022+367568063
2958+367480586+367074504+366306296+365446382+364743312+364258934+363850286
2948+363226741+362255311+361188814+360373867+359870657+359551510+359363000
2938+359258353+359026358+358445503+357589023+356744579+356015555+355268602
2928+354517962+354022993+353849738+353607297+352854560+351684788+350716504
2918+350448253+350723553+350928401+350631412+349903834+349095358+348442063
2908+347903320+347378710+346977509+346843726+346792903+346441259+345636145
2898+344498364+343189208+341897475+340901682+340395038+340289993+340336949
2888+340399990+340470731+340444596+340124907+339486396+338650954+337635388
2878+336483835+335555747+335260349+335539372+335868676+335716206+334952119
2868+333960989+333298765+333115317+333062577+332818220+332440984+332121078
2858+331832114+331387282+330723541+329979913+329317654+328801720+328432328
2848+328128905+327756947+327333080+327030236+326864102+326659941+326393135
2838+326186371+325944472+325404572+324558358+323692696+323044028+322637476
2828+322374503+322126567+321823505+321496406+321164680+320735572+320134330
2818+319474601+318968029+318705417+318595817+318439841+318021180+317241838
2808+316223417+315225238+314480924+314115146+314058214+313980063+313491637
2798+312520786+311376463+310404491+309687251+309088069+308477211+307870728
2788+307385591+307065071+306756624+306244087+305525004+304823994+304290999
2778+303860011+303419372+302902390+302225816+301379132+300526808+299818461
2768+299206338+298616175+298138033+297875023+297695388+297266931+296361019
2758+295115519+293972153+293300821+293082019+292979469+292678215+292103451
2748+291383789+290693606+290104961+289561121+289016883+288514576+288028518
2738+287414461+286674557+286056271+285715761+285496490+285168342+284695550
2728+284194545+283756328+283358976+282936411+282492790+282029523+281421106
2718+280605092+279814437+279310504+278978289+278508407+277894369+277440482
2708+277304133+277256834+276926373+276159177+275125466+274148433+273459641
2698+273055512+272741968+272333934+271825320+271349979+271004156+270758117
2688+270543690+270371121+270283554+270215560+270019821+269653647+269194844
2678+268680500+268101362+267519874+267021761+266623180+266332879+266143827
2668+265915302+265511552+265070461+264864673+264912713+264948445+264736964
2658+264293397+263827003+263484324+263137434+262549783+261767315+261130449
2648+260838124+260699173+260416842+259986000+259652574+259516642+259390758
2638+259099481+258694700+258294113+257928589+257624263+257433385+257326009
2628+257180099+256894985+256451871+255915025+255424304+255112748+254986774
2618+254949271+254950500+255003438+255035971+254909237+254647909+254446386
2608+254377308+254305121+254133330+253920493+253735146+253582784+253477252
2598+253434381+253408842+253337812+253220062+253087400+252948196+252815408
2588+252731112+252699663+252652708+252538210+252387132+252249319+252121031
2578+251952096+251684025+251308832+250925198+250677334+250608708+250653621
2568+250781511+251023935+251333774+251575402+251725197+251937980+252324452
2558+252773694+253065206+253054849+252730100+252211292+251714968+251387417
2548+251158331+250861885+250476462+250119794+249836524+249536915+249148166
2538+248715768+248344967+248096868+247941849+247801777+247649885+247535894
2528+247491686+247473991+247429945+247372796+247378327+247504662+247671411
2518+247654331+247319659+246835915+246510008+246445575+246502038+246556892
2508+246644296+246797092+246882165+246716519+246305232+245840971+245476784
2498+245229354+245101139+245139835+245328037+245500660+245428672+245009541
2488+244402605+243928440+243781373+243879261+243994933+243939645+243633819
2478+243144020+242655829+242299811+242029012+241731156+241383904+241039653
2468+240739520+240485294+240244750+239989350+239746348+239555290+239381998
2458+239189115+239057737+239084269+239185482+239161968+238934654+238589391
2448+238224084+237866187+237518501+237187390+236865134+236560988+236348441
2438+236299895+236368846+236420483+236375841+236251312+236083280+235894771
2428+235714648+235578859+235517318+235531163+235587065+235678988+235854810
2418+236099836+236268952+236245438+236096004+235972090+235918809+235870028
2408+235792003+235741975+235778249+235897464+236085088+236331397+236555928
2398+236626253+236525510+236445533+236646839+237198595+237889466+238481888
2388+239029180+239796412+240889767+242146528+243412885+244784143+246510713
2378+248732794+251385284+254354625+257589543+260955622+264116111+266747925
2368+268842260+270617919+272072985+272825902+272694181+272224642+272104072
2358+272248788+272110795+271687995+271744675+273120487+275909741+279385799
2348+282699591+285529890+288179687+290895833+293065283+293685774+292544740
2338+290361608+287890290+285297154+282458161+279540041+277003639+275073287
2328+273453316+271623146+269290382+266612155+264060137+262003720+260411818
2318+258980718+257471828+255899699+254449079+253232189+252178054+251180309
2308+250222796+249294762+248325031+247280530+246230804+245276310+244473183
2298+243817774+243250528+242691145+242095505+241472358+240869742+240382075
2288+240114637+240046571+239974565+239711971+239299636+238885728+238473249
2278+237977394+237475540+237161580+237057367+236986463+236844114+236683294
2268+236515099+236242745+235870805+235610976+235649672+235867082+235901314
2258+235527819+234910455+234423692+234303429+234509795+234814320+234966628
2248+234867168+234613755+234365928+234205631+234118100+234047522+233998867
2238+234074597+234327196+234648294+234919004+235154035+235399838+235644051
2228+235899777+236240179+236708290+237278156+237906997+238570865+239243390
2218+239903933+240606895+241471363+242532276+243688311+244869776+246147918
2208+247594308+249119934+250541925+251786666+252952588+254168755+255488303
2198+256914180+258393410+259824095+261201769+262662275+264276299+265922387
2188+267391948+268532150+269352682+270010712+270606081+271102242+271509824
2178+271918725+272314704+272580732+272642255+272469415+272040217+271380831
2168+270560752+269630892+268616338+267574529+266586363+265621151+264529368
2158+263278717+262018848+260846275+259744715+258735908+257898496+257343848
2148+257156658+257257112+257731621+259385733+263187481+269071581+276091166
2138+283621914+291607217+299937278+308376504+316851842+325421634+334176031
2128+343214728+352596068+362317449+372211651+381859760+390861153+399056492
2118+406302632+412366205+417156516+420829433+423813595+426918743+431161563
2108+437279501+445413317+455216789+466082565+477009213+486518986+493390890
2098+497375400+498854811+498431162+496854550+494415529+490581032+484658218
2088+476276105+465363626+452229446+437259693+420663010+402999794+385215736
2078+367995327+351920543+337753735+325792761+315663166+307047178+299893449
2068+294061076+289301491+285282984+281628376+278315669+275611831+273463744
2058+271616260+270109485+269048645+268413135+268386783+269239341+270984401
2048+273661670+277582415+283115215+290647644+300574451+313042287+328056104
2038+345692065+365610492+386628021+407161426+425727645+441165039+453077757
2028+461899099+468308170+472886078+476009083+477719115+477899889+476449757
2018+473227311+468262263+461935138+454639729+446480321+437323023+426962807
2008+415402600+403004854+390259947+377569912+365284983+353687038+342894244
1998+332950339+324023880+316344583+309813731+303855167+297953048+292205224
1988+287040298+282670691+279057507+276081424+273594960+271485334+269671558
1978+268011409+266392522+264882114+263615757+262675577+262159046+262087384
1968+262143467+261794372+260843185+259639941+258631550+257954742+257555347
1958+257405082+257411733+257361560+257142072+256876243+256782060+257000970
1948+257555275+258431329+259576339+260590911+260709005+259679830+258301180
1938+257460406+257213156+257130505+256998801+256918427+257022659+257284186
1928+257639047+258271774+259382335+260616413+261429824+262028319+262895661
1918+263557867+263124620+261928208+261235079+261674524+262831626+263908968
1908+264398785+264353547+264196251+264242809+264471062+264768304+265229872
1898+266025516+266964033+267522694+267653331+268071956+269113385+269908559
1888+269548258+268436143+267519296+267098430+266992047+267020966+267043269
1878+267023243+267088561+267378519+268197641+270192679+273560583+276858235
1868+277650210+275387228+272116109+269830878+268932051+268830259+268912622
1858+268936931+268977868+269182825+269583412+270211729+271229969+272843633
1848+275308824+278685350+281831326+282429279+279967070+276926626+275437058
1838+275423755+275757668+276053283+277252731+280286090+284227620+286612763
1828+286580320+285706796+284906779+283568072+281710702+280464804+280392689
1818+280944879+281495045+282193615+283571452+285536831+287140174+287588042
1808+287187509+286937278+287718282+289921837+293072187+295736642+296659869
1798+296281006+296470438+298773471+302847572+305899529+305194218+302008244
1788+299783452+299949568+301568165+303374766+305098607+306715596+307865992
1778+308782514+310734771+314864702+320591163+324978754+325368786+322745485
1768+319587887+317339220+317068077+319291549+322605522+324641714+325251921
1758+325981740+327125810+328436665+331020963+335970576+341940454+345785507
1748+346374350+345530052+345212785+346223796+348516997+351178433+352913625
1738+354204743+357452927+363261623+367481273+365950387+361272676+357105874
1728+354258061+352944603+353304163+354748330+357202135+362110287+370486906
1718+379779757+384013034+381073406+375312822+370814837+369088104+370526054
1708+374791321+380156198+384406790+387944515+393442848+401181174+406987159
1698+408105781+406016705+401437243+395834190+392737935+393657131+397351195
1688+402829502+410950666+420967336+426493178+423418864+417517196+414448594
1678+415552902+419818133+424698777+428278000+431658014+435991889+438884995
1668+437770458+435488462+436282335+440299413+444144357+445482467+446219552
1658+449706382+458061710+471866934+487061416+492880523+489829054+489349521
1648+494111745+498527603+497235726+493287761+491956627+494743713+501476847
1638+511762274+523061061+529230365+528020940+525671024+527336414+533190873
1628+540927716+548874468+557182190+565579051+572459306+578172355+585922645
1618+597540978+609570054+615914313+616905118+617273678+618952009+620912725
1608+621901144+622307298+623600296+626529406+630630346+635350350+640814416
1598+647306156+654668474+662261631+669265149+675326372+680847405+686363885
1588+691977167+697398940+702146271+705934463+709282233+713522993+719977863
1578+728762154+737390432+742293777+744985613+750597160+761076266+773602842
1568+783886823+791900159+800762167+812380788+827641566+848034067+872036337
1558+888169355+890583072+888803528+888139063+887794360+886361977+883874663
1548+881947492+882458474+885535282+889658056+893024912+892202772+883227839
1538+870759461+862664142+859472963+857100743+852229715+846269705+842749222
1528+842747053+844821200+847546437+850718096+853146345+852483977+849435075
1518+846864549+845105826+843116770+841446391+841774900+845574370+853538329
1508+863122493+865398488+855566279+843935729+838439926+838580034+841070384
1498+842329115+840174865+836012907+833636639+835214769+839664389+843225285
1488+842620464+838711105+834647758+832116850+830780475+829915103+829783236
1478+831209836+834602791+839620939+844276167+844656295+839678920+833952496
1468+831628642+832680825+834270594+834188973+834050745+837250889+844855974
1458+852988018+853453671+844843756+835182670+829440485+827738658+828094856
1448+827632456+824869120+821314947+819053917+818311952+818648558+820471986
1438+823548794+825113188+822945636+819497954+817882664+817887002+817577362
1428+816493585+815858979+816017233+816084106+816137387+817223622+818317736
1418+816125097+810327101+804364271+800517014+798787498+798488919+799194086
1408+800642374+802147920+802508600+801359469+800108836+800229569+801602526
1398+803153039+804035039+803662141+801908623+799888047+799080655+799570599
1388+799891011+798733566+797000652+797113866+800246414+805421226+811056125
1378+816574990+822085902+827021057+830175003+831491787+832522137+834389086
1368+836798683+839301540+841987448+844435361+845419370+844422854+842391289
1358+840637337+839863128+839919808+840124041+840081098+839988416+840089629
1348+840390521+840873669+841612598+842774380+844473677+846446033+848141932
1338+849404855+850690118+852398235+854442524+856569085+858798956+861359504
1328+864230054+867228205+870610822+874839291+879676269+884397935+888862159
1318+893413932+897946475+901925020+905155961+907993834+910837418+913815832
1308+916936451+920287909+923933679+927422570+929811273+930851599+931536813
1298+932644663+933490733+933013730+931281683+929016966+926707932+924956511
1288+924367450+924412056+923540249+921060527+918045097+915908487+914915875
1278+914325152+913377146+911950401+910516789+909732098+909918185+910798523
1268+911869142+913005115+914552809+916948019+920187563+923420095+925432140
1258+925976233+926214012+927415051+929603713+931741191+932754335+932203229
1248+930400261+928076768+925720236+923285047+920609477+917796763+915009280
1238+912063399+908494622+904302517+900434367+897919364+896601207+895457137
1228+894105146+893119330+892959051+893430849+894048973+894323260+893913347
1218+893084989+892883575+894268099+897003674+899744527+901250362+901423364
1208+901349334+902498537+905516858+909493452+912690848+914204563+914656408
1198+915245758+916637294+918752071+921214081+923838900+926531171+928935417
1188+930721974+932209085+934208913+937168530+940749741+943982201+945928313
1178+946771130+947693254+949482125+951807063+953684785+954500490+954894933
1168+956347848+959426969+962949838+965358061+966382844+966946819+968010497
1158+969875277+972253931+974618126+976467797+977767519+979055529+980731619
1148+982590254+984265766+985707475+987059249+988404661+989589868+990420539
1138+991270151+992853342+994966094+996335147+996686574+997552163+999640552
1128+1001404481+1001486753+1000774212+1001028619+1002823707+1005350782
1120+1007623235+1009583590+1011736538+1013936840+1015394599+1015841744
1111+1015812320+1016070848+1017458986+1020055683+1022283601+1022815838
1103+1022839912+1024339747+1027224395+1029659728+1030446660+1030196881
1094+1030318626+1031267210+1032193961+1032615659+1033208189+1034109637
1085+1034634066+1035284144+1037577056+1041610401+1045709462+1048547479
1077+1050257548+1051334456+1051708656+1050971173+1049002866+1046641057
1068+1045192335+1045391363+1047698951+1052407460+1058541918+1063601492
1060+1065573414+1064972569+1063386704+1061156833+1058303634+1056231077
1051+1056732154+1060090552+1065217794+1070328987+1072888957+1070803822
1043+1065132052+1060033800+1058787288+1060639778+1062536007+1063809847
1034+1066577304+1071002272+1073741823+1072248856+1067526973+1061674394
1025+1056209316+1052905791+1053260832+1056897927+1061742712+1065658939
1017+1067631078+1067791573+1066704182+1064997439+1063311011+1061966104
1008+1061005591+1060225527+1058883874+1056290359+1053335513+1052256942
1000+1053849314+1055897869+1055944065+1054521659+1053563098+1052903043
991+1050752697+1046909633+1042918220+1040071816+1038853137+1038774046
983+1038199806+1035957284+1033066346+1031471877+1031584875+1032035201
974+1031343120+1029168410+1026165271+1023103573+1020402699+1018473215
965+1016997599+1014518310+1010355268+1006199672+1004181770+1003698694
957+1001664816+996170893+988942392+983523439+981621644+981648827+980797624
947+978470733+976577613+976298193+976200160+974340658+971043422+968232443
937+966904237+966400051+965376641+963033701+960015885+958171203+959063180
927+962219657+964987549+965163804+963671705+963120816+964129405+964751143
917+963449253+960849231+958147346+955700445+953894874+953688327+955352127
907+957700056+959049950+958464143+956192196+953499998+951821089+951762096
897+952888309+954018788+953912153+952270475+950073426+948780790+949111106
887+950383066+950835634+949126649+945852909+943123696+942752244+945040385
877+948319474+949457906+946598344+941595811+938129116+938120151+940783503
867+943923714+945859416+946745899+947597391+948146038+947122701+944554200
857+941980349+940436197+939762335+939705872+940321899+941152570+941217563
847+940329345+939490794+939420090+939975605+941048754+942647705+944076835
837+944010685+942098985+939942639+939769347+941932345+944270803+944395512
827+942281458+940146294+940051660+941959456+943944969+944239572+942935512
817+941697458+942098624+944215353+946770190+948792357+950405912+951609409
807+951985271+951998935+952517218+952845294+951465107+948835228+947494226
797+949611244+954988338+960700086+963181038+961349007+957179531+953228964
787+950684320+949731760+950091211+950625400+949917269+948246962+947425545
777+948230262+949699588+950810041+951375534+951492435+951364762+951518172
767+952442682+953929648+955183029+955930343+957112079+959583127+962229707
757+962498355+959364723+955269204+954159113+957306264+961589099+962546359
747+959534906+956125540+955309328+957023590+959448730+960696833+959925878
737+958176553+957632677+959349903+962283205+964255199+963388308+959607346
727+955364273+953435872+954151811+955850963+957378559+958340518+957433431
717+954379613+952480926+954552615+957733095+956995323+953232796+951247138
707+951401126+950205004+947056262+944147323+942260782+941215828+941924971
697+944594757+946659868+946388183+946433006+949341366+951842633+948440352
687+939418571+929496066+921495526+916347463+915448401+918680643+922520454
677+923085296+919567849+913151513+905199266+896277903+887170887+882627934
667+888173837+898194519+902689179+900121040+896361621+896779993+900242279
657+901921044+899948761+896452207+893068145+889351742+885181325+881668288
647+880183202+880749273+882603137+885270465+887125052+885574828+881003246
637+877411335+877301012+878936473+878953679+875915332+870297639+863206066
627+856332246+851811488+851099381+853735984+857084115+859043747+861056009
617+865401380+870463123+872383715+870949018+868842483+866032950+859166070
607+846959762+835076468+832161963+840446839+852645412+859057989
##END=
