##TITLE=<SNM>
##JCAMP-DX=4.24
##DATA TYPE=INFRARED SPECTRUM
##DATE=2/5/2025
##SAMPLING PROCEDURE=Instrument type and / or accessory
##ORIGIN=Admin
##XUNITS=1/CM
##YUNITS=ABSORBANCE
##RESOLUTION=4
##FIRSTX=4497.3318
##LASTX=599.83466
##DELTAX=-1.4281778
##MAXY=1.7521801
##MINY=0.19659162
##XFACTOR=1
##YFACTOR=1.6318449e-09
##NPOINTS=2730
##FIRSTY=0.21406649
##XYDATA=(X++(Y..Y))
4497+131180661+130095412+129897916+130789523+132322726+133702621+134335232
4487+134124715+133391931+132707956+132583056+132953027+133117777+132533043
4477+131522197+130912132+131105810+131761314+132236023+132137695+131552641
4467+130875058+130444764+130448079+131052181+132186466+133189852+133317702
4457+132732301+132279069+132149557+131610197+130314403+129016573+128623764
4447+129168256+129973726+130373356+130104954+129387476+128735049+128578006
4437+129022782+129782394+130282205+130127746+129539241+129029996+128711463
4427+128284986+127657370+127179958+127222730+127707201+128103562+127850108
4417+126859973+125657220+124937632+125017039+125732436+126675763+127439457
4407+127788973+127708963+127340115+126954958+126887541+127148902+127189446
4397+126559538+125751164+125735623+126627102+127509723+127715867+127531575
4387+127419203+127284733+126860356+126243945+125651923+125041959+124328260
4377+123642952+123103555+122646881+122324183+122408494+122942175+123518672
4367+123806652+123958271+124193471+124390245+124410069+124403814+124450147
4357+124314673+123942483+123742430+123970151+124278686+124264030+123991820
4347+123632341+123049278+122117511+121131256+120633690+120913643+121640500
4337+122043007+121740663+121301932+121547514+122460416+123321213+123772053
4327+124063128+124289443+124088870+123225287+121999897+120955995+120471999
4317+120629527+121146615+121471038+121293897+120948151+121024454+121667265
4307+122430236+122775425+122629403+122453029+122707596+123261384+123549236
4297+123307772+122862274+122646205+122780684+123227232+123902651+124494362
4287+124588362+124115698+123412318+122892709+122803760+123105802+123519229
4277+123802862+123881074+123738029+123515979+123540451+123809154+123789476
4267+123212512+122627842+122688484+123305452+123873522+124036884+123982844
4257+124139622+124762353+125725140+126557219+126792628+126502685+126296286
4247+126556095+126973879+127116851+126998388+126769662+126403545+126023182
4237+125960504+126216770+126415279+126442116+126618938+127123663+127663041
4227+127863879+127723427+127500628+127343037+127250645+127256608+127331879
4217+127287317+127169676+127400401+128073318+128595630+128514040+128147950
4207+128005335+128167099+128518898+128991799+129342129+129235126+128768480
4197+128475478+128585083+128694013+128446915+128154442+128374749+129144441
4187+129917814+130148073+129780065+129174703+128687328+128542393+128988859
4177+130096727+131451400+132547690+133377969+134245369+135263712+136311540
4167+137177469+137614776+137431480+136553652+135103034+133615461+132932636
4157+133450300+134605615+135435493+135505431+135065933+134509753+134018552
4147+133656690+133452738+133358182+133364437+133547048+133778029+133666597
4137+133065883+132377661+132107525+132325594+132739350+133131383+133462929
4127+133559412+133086602+132066634+131117910+130889148+131406017+132171116
4117+132800741+133366637+134028816+134538334+134479272+133947171+133509289
4107+133522630+133920535+134556296+135312191+135964315+136281443+136199606
4097+135792461+135263109+134967687+135170406+135749717+136299843+136503949
4087+136391185+136317229+136642173+137305493+137841091+137921776+137731358
4077+137706894+138012698+138312905+138126842+137422896+136641506+136143877
4067+135974844+136034098+136092266+135889291+135512846+135329385+135461509
4057+135713309+135858262+135730376+135368450+135174360+135496217+136136581
4047+136649304+136833569+136632493+135996203+135174917+134717037+134834541
4037+135040027+134734597+134014772+133610274+134040942+134982572+135562841
4027+135369189+134994242+135267355+136162587+136971965+137328723+137457030
4017+137594047+137646782+137359231+136651450+135827708+135349383+135347877
4007+135562128+135755104+136028683+136731196+137948413+139017152+138994187
3997+137852514+136631361+136186557+136418625+136836408+137198846+137479073
3987+137726646+138032121+138357512+138527349+138550013+138727374+139282358
3977+140022866+140487686+140387934+139872763+139332481+139011993+138944904
3967+139198093+139909682+140995424+141998243+142379647+141989395+141245617
3957+140824683+141106408+141894893+142731684+143359190+143673596+143487149
3947+142812406+142190178+142179348+142668960+143106732+143254954+143286120
3937+143333092+143450788+143861814+144765082+145841930+146403717+146255002
3927+145903294+145759354+145632025+145280015+145097495+145682421+146873404
3917+147666373+147239613+145882629+144660846+144392554+145127054+146481910
3907+148351024+150902004+153714299+155589303+155858974+154931927+153208104
3897+151012832+149393592+149440793+150924832+152290455+152582561+152830372
3887+154151533+155784004+156256449+155916064+156009040+156172585+155466338
3878+154632159+154981365+156590497+158885201+161436665+163184631+162849159
3868+161289100+160528722+160747585+160454154+158978123+157341013+156868952
3858+158508144+162914650+169385839+173624362+171666298+166604463+162424253
3848+160183826+159689356+160430942+161761691+163363645+165471027+167981581
3838+169732360+169830871+169068447+168484488+168024207+167362175+166816167
3828+166697512+166883868+167757531+170131278+173347002+175049257+174722788
3818+174231131+173962409+172628373+170222319+168259781+168075562+170092889
3808+173309088+175970970+178024439+180643348+183156807+183684113+182924283
3798+182843104+183364712+183630457+184054833+185475929+187881581+190886825
3788+194377352+198189745+201943387+205794534+210656446+216964729+223840825
3778+230404772+237312372+245849065+256574246+269246477+282716307+294957734
3768+304655988+311982870+317488532+321990243+326584656+331510360+336069709
3758+340332394+345833417+354201032+366125760+380884864+395640425+407684155
3748+418546929+431396969+445847063+456870807+462905291+469002016+479030428
3738+492491729+505862884+515963435+522877501+528959433+535881534+543635184
3728+551165332+556792224+559044669+558141784+555644324+552734011+549830931
3718+547343588+546180676+547164538+549440761+549956215+546841247+542513144
3708+539961407+539629422+540574677+541653068+542243546+543031739+545232609
3698+549156005+554279460+559832314+565045330+569629955+573720457+576529191
3688+576511403+574165964+572083876+572169566+574253114+576973784+579652669
3678+581924289+581857009+578722281+576374467+576982551+577265115+573732437
3668+568242664+564355903+562643130+562094583+562174758+563118515+564827490
3658+565636356+563547037+559877131+558658334+561572738+565970897+567172052
3648+564303635+561366731+561050125+562745914+564663707+565662874+565894631
3638+566317090+567775826+570534446+574395456+578932012+583466085+586887432
3628+588164561+587736952+586871726+587003913+589397421+593340102+596194384
3618+597201842+598457092+600999333+603667771+605394571+606394724+607121918
3608+607746913+608735780+610835911+614505817+619328627+623792241+626435549
3598+627333210+627759833+628936991+631288822+634317917+637095348+639020338
3588+640050369+640299622+640144021+640268940+640859053+641267851+641014726
3578+640673574+641113565+642277647+643404472+644237920+645176417+646342544
3568+647417283+648117777+648213329+647468930+646095921+644830298+644236167
3558+644166110+643943521+642889529+640933420+638957294+638177027+639085208
3548+641118241+642940519+643223595+641839555+639745597+637672677+635753459
3538+634161513+633311116+633340191+633728681+633685653+633117967+632963609
3528+634099638+636089717+637581143+637370754+634910148+630935032+627392967
3518+625732863+625797441+626745435+627959265+628677218+627992138+626111930
3508+624721314+625115648+626467473+626718698+625232677+623458832+622744970
3498+622787048+622348517+620904136+619323221+618481518+617902509+617000099
3488+616333574+616122966+615277098+613420339+611802496+611166142+610867506
3478+610500274+610411699+610264171+608929915+606657381+605720820+607362989
3468+609162147+607877603+604129093+601186930+600403486+600507110+600265089
3458+599859980+599960426+600505649+600632832+600004001+599599440+600108758
3448+600459224+599390329+597564544+596620897+596949119+597446274+597029695
3438+595767359+594434419+593441754+592591905+591629410+590459083+588977153
3428+587257622+585691975+584514708+583501333+582518347+581929220+582074374
3418+582643448+582933939+582625149+581975060+581337464+580686535+579693651
3408+578323710+577185233+576924292+577237976+577043841+575956245+575008690
3398+575430710+577071053+578536802+578681408+577436568+575419606+573406626
3388+572121681+571798755+571815666+571146110+569350751+567188781+566042123
3378+566486022+567649738+568310565+568304283+568221223+568165777+567868930
3368+567666175+568146747+568920950+568863970+567686739+566199257+565068634
3358+564479799+564861605+566647905+569131047+570788630+571049681+570703963
3348+570386553+569688287+568228565+566847045+566903587+568546486+570268538
3338+570400287+568599047+565581348+562367176+560361538+560797803+563077058
3328+564864125+564898167+564248189+563854549+562970512+561032190+559068557
3318+558219511+558082904+557623993+556996660+557283790+558771564+560501943
3308+561437738+561400372+560981967+560879768+561180705+561289990+560831188
3298+560228036+559951498+559737091+559021402+557904293+557313778+557949147
3288+559244758+560050848+560287500+560747179+561470940+561880724+561982558
3278+561987818+561723699+561482044+562107806+563648615+565063374+565491568
3268+565214153+565203159+565840536+566253024+565457233+563873104+562680532
3258+562275642+562342485+562564343+562548199+562017623+561401139+561260039
3248+561208391+560499533+559446344+559022132+559284571+559274380+558263781
3238+556306539+553836546+551468680+549964068+549739141+550486535+551455056
3228+551911192+551392305+549840355+547728973+546083992+545924702+547155261
3218+548363027+548302321+547166620+545965830+545245284+544738705+543929254
3208+542843777+542111030+542069975+542248039+541963831+540916961+539192244
3198+537344799+536128814+535641631+535354501+535066275+534959035+534831852
3188+534194292+533028238+531821860+530943959+530195543+528983613+527180985
3178+525548934+524741857+524256062+523128105+521367482+519827951+518861621
3168+517988834+516907740+515979653+515443014+514836756+513608609+511953181
3158+510627838+510077063+510132254+510403203+510502955+510062051+508944869
3148+507312927+505399297+503528987+502107508+501175220+500428082+499887827
3138+499872487+500284353+500713131+501047927+501224530+500772120+499358786
3128+497440116+495814529+494696325+493609423+492240285+490934081+490065531
3118+489486449+488946377+488411491+487763813+486906513+486115106+485662002
3108+485410375+485162181+484880055+484405364+483594963+482744786+482273748
3098+482043671+481497901+480485877+479541134+479145302+479087043+478918074
3088+478735189+478984552+479655204+480137018+479827716+478651289+477012699
3078+475411622+474165467+473353861+472827230+472285039+471485487+470438946
3068+469365486+468531781+468146141+468252979+468616339+468731286+468142050
3058+466911163+465641850+464872979+464561925+464249299+463593221+462701805
3048+461983304+461629696+461397318+461050980+460697628+460383286+459787730
3038+458754193+457707323+457069033+456642118+455990641+455085967+454161167
3028+453223255+452138142+450994443+450001960+449131693+448196666+447226465
3018+446449558+445991779+445804803+445673273+445141601+443834923+442109657
3008+440975856+441039959+441744142+441888785+440828255+439001630+437379806
2998+436664299+436961474+437736116+437983360+437018856+435253668+433663512
2988+432551553+431416473+429926983+428441181+427517294+427251933+427220119
2978+427004069+426633696+426364061+426160758+425677520+424743552+423691934
2968+423064857+422961598+422829959+422101011+420869685+419657974+418744461
2958+418130679+417872551+417863127+417517701+416382439+414949819+414186866
2948+414311711+414655749+414643001+414248996+413523920+412366304+410925904
2938+409702212+409018812+408703009+408404081+408015920+407680868+407487390
2928+407259395+406665082+405540010+404088543+402774231+402038051+401993051
2918+402248622+402204170+401681740+401021315+400451255+399740460+398616083
2908+397223714+396039507+395472260+395574678+396012405+396258188+395918497
2898+395034971+394031860+393241220+392622142+392043315+391544956+391173304
2888+390851073+390514121+390125449+389558347+388714890+387722883+386859921
2878+386321383+386050251+385707784+384921673+383703826+382526011+381875959
2868+381798670+381904632+381760537+381229742+380458461+379609854+378724940
2858+377868371+377230080+376929727+376813356+376574257+376015593+375175899
2848+374287552+373600937+373184943+372911182+372601442+372138110+371508184
2838+370777045+369978588+369115481+368307016+367716830+367275670+366736109
2828+366047741+365414126+364953534+364556826+364110662+363648390+363212708
2818+362728484+362120985+361448470+360792245+360117173+359395822+358781310
2808+358452248+358316919+358057731+357487233+356714856+355969325+355389768
2798+354944736+354446121+353732258+352905056+352234403+351817496+351521454
2788+351217558+350853321+350357482+349676566+348833474+347841101+346677860
2778+345409351+344216341+343284236+342713007+342461746+342313633+341999766
2768+341444133+340790137+340155645+339534741+338943751+338400684+337768676
2758+336919594+336010427+335316434+334857924+334419686+333857297+333211226
2748+332571584+331939613+331259683+330570950+329994498+329506730+328904126
2738+328088648+327195662+326400785+325806508+325481208+325370571+325209857
2728+324747329+324014911+323217806+322469025+321792491+321233024+320756105
2718+320179835+319425137+318708352+318257330+317947151+317457047+316714036
2708+315946919+315340369+314851506+314365419+313867753+313418594+313036606
2698+312635478+312099716+311488126+311071767+311002002+311023187+310730834
2688+310061935+309318961+308754014+308321620+307814312+307093911+306197346
2678+305313911+304641633+304204911+303848656+303458705+303105572+302894818
2668+302779797+302640250+302462588+302323972+302237168+302077586+301652315
2658+300872085+299902906+299061440+298500365+298127399+297876155+297814682
2648+297868649+297727824+297212753+296492827+295806122+295228866+294799157
2638+294557446+294399362+294156501+293825923+293504696+293173114+292748591
2628+292255199+291771030+291292887+290780702+290271732+289843648+289515955
2618+289281989+289162823+289090392+288844116+288317668+287757068+287487013
2608+287483489+287443146+287190788+286804819+286415836+286089787+285881589
2598+285829558+285864057+285817998+285568745+285141264+284675394+284312107
2588+284096878+283979922+283908258+283877467+283854400+283713264+283356917
2578+282886920+282525332+282326777+282094691+281664982+281143629+280731872
2568+280443043+280162835+279894424+279748667+279745855+279791987+279832512
2558+279898971+280008732+280112246+280145594+280083318+279932192+279700508
2548+279391170+279012542+278579582+278125382+277743905+277553039+277527434
2538+277455953+277182831+276795948+276484071+276337109+276349583+276464146
2528+276573268+276607474+276618194+276672910+276700067+276543645+276177838
2518+275800178+275653545+275760566+275903948+275884425+275709265+275487133
2508+275245696+274972574+274754331+274696913+274724599+274621450+274277924
2498+273797370+273395731+273220790+273178475+272989289+272529647+271990688
2488+271603605+271397014+271289719+271219663+271130138+270966282+270718125
2478+270444327+270243142+270139445+270019165+269770186+269430605+269107478
2468+268853842+268683156+268581578+268481625+268325695+268145020+268006769
2458+267903620+267734742+267411506+266989102+266647548+266504531+266500550
2448+266495217+266398405+266190189+265904593+265635689+265493639+265482864
2438+265428404+265117258+264598572+264245749+264340352+264673377+264791301
2428+264562539+264221935+263954693+263765616+263671251+263713804+263824459
2418+263874427+263829317+263771990+263823126+264034812+264304264+264436196
2408+264343255+264146509+264036876+264080141+264210173+264369572+264535692
2398+264630532+264573697+264455061+264500664+264868772+265648144+267016350
2388+269172001+272122401+275789823+280361517+286272782+293747630+302575471
2378+312441891+323254405+334961183+347233346+359538858+371351561+382087042
2368+391095723+397960187+402555221+404787613+404654841+402370436+397938636
2358+391014234+381663268+370765868+359762835+350615136+345155642+344039154
2348+347018282+353758411+363467221+373813993+381706040+385686343+386509747
2338+385758117+384534352+383081935+381182404+378700431+375694822+372204807
2328+368151598+363454620+358227869+352887048+347889900+343292309+338779238
2318+334113818+329297948+324421116+319602726+314956591+310497178+306203573
2308+302150510+298414785+294926906+291573534+288374977+285424760+282714828
2298+280140481+277642308+275263868+273107560+271279145+269800886+268550622
2288+267383619+266325883+265524924+264991865+264511457+263864912+263091749
2278+262448455+262076767+261804594+261382208+260833717+260404628+260198129
2268+260047861+259773223+259408292+259119518+258993632+258978054+258991075
2258+259014506+259052530+259066446+259018122+258929109+258830215+258714062
2248+258596595+258535852+258531159+258490597+258352291+258173515+258061618
2238+258053528+258105011+258185605+258341352+258650032+259132960+259711165
2228+260256169+260708250+261117523+261559505+262087232+262762359+263593616
2218+264448030+265166458+265765502+266410495+267210796+268138043+269130252
2208+270185961+271328638+272561205+273900812+275369830+276925122+278479063
2198+279953432+281274994+282459932+283690929+285104610+286589900+287984168
2188+289266976+290409544+291304009+291937314+292418543+292860543+293363542
2178+293966128+294527805+294818899+294757042+294449823+294040531+293613269
2168+293201549+292762708+292158076+291277729+290166829+288933239+287627255
2158+286282315+284923880+283517120+282033620+280504078+278975888+277551505
2148+276341967+275311845+274554461+274703725+276450887+279670520+283605421
2138+287764373+292126829+296733058+301537332+306472824+311464201+316522458
2128+321782337+327322663+333076920+338975784+345043727+351344960+357897017
2118+364611249+371349589+378109880+385143093+392942730+402278026+414170575
2108+429582105+449099149+472928517+500729640+531054888+561451764+589652298
2098+614250062+634441886+650395899+663369981+674220957+682563843+687622246
2088+688711084+685233158+676958429+663829988+645887066+623761048+598415745
2078+570807368+542338696+514524131+488143866+463616707+441565604+422372325
2068+405883938+391737739+379483291+368692620+359285623+351336559+344650525
2058+338968077+334246736+330479635+327643689+325764832+324711936+324304306
2048+324784439+326703913+330485844+336574314+345675004+358495422+375570415
2038+397327083+423799941+454221910+487113360+520668668+553105261+582940404
2028+608984813+630474951+647717161+661918806+673897702+683610165+690866551
2018+695723769+698220681+698162459+695342950+689979848+682537033+672976591
2008+660713742+645400906+627403925+607656950+587144173+566313072+545088624
1998+523598157+502563644+482740476+464286994+446949489+430643073+415581425
1988+401999735+389996439+379490998+370183827+361698051+353830221+346597284
1978+340089058+334318875+329158529+324439525+320153829+316447580+313349158
1968+310599377+307846309+305002016+302298587+299961877+297986482+296282164
1958+294832267+293585254+292380392+291105381+289805186+288596598+287573141
1948+286810754+286404914+286391930+286523971+286284963+285423719+284296839
1938+283404748+282892052+282648643+282573181+282585271+282565985+282423059
1928+282218222+282183960+282467639+282886116+283212348+283602645+284238818
1918+284713344+284449901+283650641+283088835+283170562+283676026+284157858
1908+284367809+284375863+284373470+284434030+284525601+284676033+284989042
1898+285492040+286032916+286421351+286752477+287382020+288351326+289102719
1888+289123302+288610112+288110255+287908395+287976461+288163346+288343418
1878+288513994+288728950+289007168+289502258+290587498+292371004+294085458
1868+294491407+293372655+291856865+290985375+290851088+290985046+291034429
1858+291010213+291096871+291372422+291764108+292246688+292883956+293697224
1848+294786939+296348093+298018570+298637940+297744315+296466474+295950180
1838+296241766+296734136+297093807+297706474+299104212+300974577+302210486
1828+302387272+302199930+302056931+301683600+301100573+300813406+301082986
1818+301718317+302452598+303245576+304241382+305427324+306390896+306696253
1808+306512637+306517861+307254735+308753795+310547401+311938856+312534046
1798+312669484+313189869+314766803+317205821+319114447+319113096+317806636
1788+316932425+317292205+318529156+320060615+321647447+323089746+324087087
1778+324781225+325953525+328317811+331606131+334304374+335067620+334315588
1768+333177184+332409446+332685655+334246517+336226587+337474605+338137880
1758+338996714+340011696+341034787+342797565+345919691+349559829+351950816
1748+352535778+352351542+352497572+353478732+355287167+357311616+358749167
1738+359934945+362270486+366030574+368890700+368690282+366934810+365604609
1728+365000872+365041525+365798780+367190637+369352242+372944274+378248277
1718+383821001+386802831+386329200+384525805+383413262+383787397+385828502
1708+389346278+393534632+397340670+400886205+405389633+410911111+415347039
1698+417452393+418125967+417683310+416585414+416527337+418478333+421981936
1688+426552827+432595421+439696974+444500389+444779155+443516417+443816331
1678+446454234+450854548+455608032+459645316+463602900+468357954+472883736
1668+475560210+477403417+480778048+486248280+492133081+496638298+500137957
1658+504299757+510459270+519096519+528096544+531982099+531177104+531618922
1648+534689656+537455399+537118740+535107842+534051731+534817753+537503467
1638+541982423+546905387+549405440+548765068+547972017+549255173+552548606
1628+556771003+561151301+565556839+569649569+572907390+575923080+580157786
1618+586023302+591660530+594701022+595799977+597027796+598992197+601183241
1608+603148190+604834482+606324667+607753342+609378599+611464230+614030468
1598+616810530+619541719+622217097+624925056+627572967+629980902+632143163
1588+634192487+636136543+637824771+639268714+640854451+643103863+646333851
1578+650417011+654327038+656631386+657855589+660020919+663949574+668742141
1568+673224237+677593834+682602342+688540361+696168582+707612666+724309616
1558+741321785+752595000+761334705+771160544+781540920+790894333+798624826
1548+804817504+809980590+814645535+818781000+821873139+822398674+818572730
1538+812824133+809044942+807099498+804531725+800440091+797063708+796360145
1528+797591142+798830394+799450969+800109605+800352429+799034208+797326987
1518+797405371+799076213+800580351+801071478+801349002+803184357+808089935
1508+814954398+818106951+814041104+808569593+806459491+807237128+808904317
1498+809905420+809648277+808845876+808984528+810755232+813293345+814725746
1488+814024083+812226350+810931360+810647553+810881465+811167756+811739240
1478+813028240+815078367+817756594+820672459+822572611+822436661+821207125
1468+820483474+820794748+821421460+821283245+820688092+821363822+824461147
1458+828824753+830977445+829578941+827296435+826007436+825712233+825995382
1448+826594626+827439033+828625103+830082560+831405018+832518182+833960079
1438+835643559+836105466+834645233+832820543+831660626+830394418+828429470
1428+826743579+826356185+826553863+825879083+824263250+822733398+821372807
1418+819452493+817286286+815594259+814114448+812434402+810853998+809827546
1408+809437596+809529276+809742806+809888837+810393479+811541051+812714994
1398+813252290+813437842+813681981+813669270+813232128+812863070+812700164
1388+812057381+810610370+809572668+810624761+814158864+819253061+824790246
1378+830248753+835521490+840248017+843722363+845764893+847145281+848739345
1368+850844919+853138893+854786943+854959418+853842090+852695468+852337295
1358+852474633+852610728+852511524+851898619+850602971+849144929+848511935
1348+849099491+850241657+851028352+851256493+851349123+851676979+852222750
1338+852842156+853714249+855215100+857272897+859357067+861246553+863217711
1328+865402473+867586139+869594772+871431734+873186513+875049846+877272595
1318+879985668+883036459+886052478+888830786+891502949+894095852+896377846
1308+898420448+900722897+903468112+906184910+908307140+909669192+910449751
1298+910855846+910809020+909937730+908059348+905609992+903388266+901752124
1288+900272240+898390789+896023544+893386153+890779298+888592564+887015886
1278+885794824+884613356+883463666+882603627+882577255+883831482+885828282
1268+887329643+888044090+888977255+890789087+892880561+894399821+895242912
1258+895674795+895611605+894808984+893570682+892761633+892815399+893053548
1248+892498427+891112122+889754746+889053959+888778700+888384366+887761818
1238+887193548+886762030+886226852+885696058+886032023+887987037+891016716
1228+893651404+895161751+896105289+897048242+897602779+897134517+895967221
1218+895276881+895761361+897223348+899496575+902563073+905763255+908262067
1208+910295392+912623774+914945581+916232754+916516049+917197039+919634852
1198+923743288+927788754+930061835+930852183+931857815+933938478+936527508
1188+938913016+941118160+943581906+946668639+950382084+954018678+956389941
1178+957052156+957125939+958263867+960953637+964286554+967084732+968597636
1168+968690558+968499820+970055459+973747353+977083777+977810863+977150474
1158+977624507+979445325+981299088+983103615+985713027+988833729+991342184
1148+992965469+994287269+995796813+997546697+999229884+1000677480+1002062397
1138+1003191632+1003549879+1003693206+1005314519+1008820424+1012056328
1130+1012893137+1012086353+1011625323+1011580030+1011008619+1010771127
1121+1012815264+1017092231+1021253191+1023706784+1025251757+1026974028
1113+1028306567+1028399562+1028014213+1028340171+1029062946+1029303798
1104+1029432880+1030700622+1033279206+1035363522+1035276736+1033769165
1095+1032950765+1034012208+1036984104+1041401842+1045953775+1048609137
1087+1048380266+1046312168+1044628834+1045406252+1048822814+1052231559
1078+1053173928+1052956453+1054178172+1056210328+1056603055+1055560386
1070+1055715913+1058467558+1062246018+1064006787+1062762203+1061076604
1061+1062024452+1065826947+1070192453+1072729251+1072808074+1071879804
1053+1071741882+1072244918+1071928968+1070707760+1069691390+1069298590
1044+1069303485+1069796950+1070799148+1071487224+1071050447+1069464710
1035+1067263147+1065639788+1065990729+1068243356+1070278069+1070546024
1027+1070444409+1071923928+1073741823+1073286053+1071339440+1070692493
1018+1071221242+1070340602+1067377473+1064394693+1063265968+1063528590
1010+1063317397+1062071790+1061133220+1061477732+1062606968+1063952802
1001+1065529553+1066438099+1064851851+1060664373+1056276294+1053459561
993+1051427770+1049270256+1047692702+1047089805+1046530812+1045775748
984+1046099003+1047538562+1047349066+1043460297+1038118088+1035552361
975+1036816742+1038642819+1037216774+1031970190+1025150727+1019152804
967+1015034726+1012438682+1010205122+1007547276+1005035096+1003987021
958+1004575308+1004994406+1003068175+998560656+993269219+989044849+986476492
948+985032622+983507592+980878310+977692519+975890183+976699306+979461834
938+982376384+983388225+981290322+977475920+974900623+974280267+973588319
928+971686049+969681945+968579592+968420631+969464396+971564126+972884903
918+971860351+969535111+968101833+968515964+970201416+971549077+970801099
908+968104828+965960464+966122055+967354221+967500032+966268378+964643997
898+963224453+962240810+961849471+961773351+961121071+959123395+955827369
888+952081124+949377475+949007248+950859259+953588695+955969455+957474031
878+957749071+956691280+955182832+954376267+953936860+952558664+950568731
868+949930697+951129331+952022536+950775030+948374692+947031853+947610351
858+949824041+953532007+958003438+960631405+959088550+954852784+951646027
848+950586848+949549658+947192859+945110224+945254355+947411357+949937490
838+951619801+952031595+950975046+948909505+947375635+947801235+950055615
828+952569037+953772347+953419799+952592487+952415628+952774021+953080473
818+954000561+956646792+960276008+962593504+962569105+961532645+961148758
808+961701249+962610233+963650126+964981277+966063248+965576942+962924575
798+959117478+955918684+954449319+954845114+956512888+958270077+959211642
788+960033256+962394146+966698653+971184037+973295162+972138971+969325525
778+966996047+965614783+964741594+964682422+964974118+963178138+958494857
768+954595423+955557223+960811405+966212274+968828626+968828188+967256623
758+964369979+960617160+957616482+957281028+960474489+966195618+971585822
748+973745600+971626147+965880180+958646221+953680302+954233743+960352128
738+968959827+976130378+979437216+979514578+978916868+978465772+976367358
728+971614093+966118037+962854080+962952847+965119199+967363936+968616995
718+968472425+966780837+964863810+964984565+967117898+968292425+966345228
708+962416865+959182129+958159988+959070141+960757127+962225835+962525274
698+960224725+954429010+946601505+939886140+936064506+934558396+934060109
688+934125344+934824889+935366787+934418209+931875859+929349652+928532202
678+929686714+931455591+932070615+930423661+925351013+914470013+897078121
668+881302573+880567526+893250861+905540155+909595994+907590574+905562436
658+905355699+904401349+901125851+896521831+891661326+887029108+884172415
648+885416342+891033153+898227591+903320767+904343273+901833066+898024361
638+895017036+893542849+893648701+895791751+900199042+904624815+904953110
628+899078134+888761533+878194728+870946378+867807413+867423890+868278670
618+869242589+868990341+866951099+863488222+860400758+860204760+862857419
608+864621548+861304556+853890743+849224191+854048316+868660439+884321076
##END=
