##TITLE=<SNM>
##JCAMP-DX=4.24
##DATA TYPE=INFRARED SPECTRUM
##DATE=2/5/2025
##SAMPLING PROCEDURE=Instrument type and / or accessory
##ORIGIN=Admin
##XUNITS=1/CM
##YUNITS=ABSORBANCE
##RESOLUTION=4
##FIRSTX=4497.3318
##LASTX=599.83466
##DELTAX=-1.4281778
##MAXY=1.7317934
##MINY=0.19530673
##XFACTOR=1
##YFACTOR=1.6128583e-09
##NPOINTS=2730
##FIRSTY=0.2143528
##XYDATA=(X++(Y..Y))
4497+132902439+134697471+136979332+138059064+137399595+135663711+134021510
4487+133416200+134036505+135401795+136936657+138302917+139189185+139182403
4477+138227416+137035422+136574148+137110165+138012545+138466466+138169017
4467+137350942+136345215+135329593+134450033+133918986+133840537+134108412
4457+134602938+135325805+136181971+136763288+136666972+136045022+135492614
4447+135334397+135380860+135292295+134780696+133677590+132240208+131153076
4437+130876359+131236966+131757980+132047760+131939756+131587077+131311423
4427+131214109+131116249+130889331+130625808+130469974+130411805+130262864
4417+129864996+129403842+129376781+129981518+130607145+130315978+129017976
4407+127777911+127643447+128512872+129449556+129783776+129532679+128974987
4397+128283865+127643965+127390475+127701126+128243140+128491373+128373197
4387+128239879+128246032+128124401+127614464+126847842+126142945+125492733
4377+124576569+123388113+122426040+122047177+122163847+122750891+123931134
4367+125324501+126072645+125852545+125239678+124865259+124859438+125154393
4357+125590075+125718248+125241978+124608508+124491339+124839972+125055388
4347+124857092+124386218+123812764+123365607+123342666+123676831+123883793
4337+123727035+123500819+123438170+123284738+122697241+121783644+121093548
4327+121203640+122224334+123550312+124269447+124019449+123279740+122704687
4317+122473029+122444453+122552004+122736358+122801382+122734631+122956098
4307+123777739+124754604+125060368+124485583+123695752+123456897+123827962
4297+124218909+124227465+124191895+124657493+125558783+126393312+126960151
4287+127332140+127338422+126720723+125691593+124818611+124402931+124339404
4277+124517892+124987546+125702070+126442639+127074363+127573998+127760995
4267+127382640+126574017+125857904+125553202+125498609+125462088+125440533
4257+125430176+125379796+125486442+126017387+126791955+127340067+127498404
4247+127483197+127550799+127816890+128144652+128186477+127878431+127644962
4237+127810959+128161366+128299451+128095963+127642616+127102644+126733777
4227+126812336+127365640+128066444+128591874+129011241+129502117+129776653
4217+129357730+128518304+128241098+129001808+130108988+130519596+129973508
4207+129118598+128805165+129400368+130593637+131762978+132483988+132645356
4197+132276979+131523448+130701244+130167332+130118126+130488951+130958254
4187+131185994+131174159+131209249+131352693+131250270+130644553+129926777
4177+129919395+131016025+132659196+133876292+134275508+134247440+134260236
4167+134273393+133886261+132945752+131919264+131516122+131930767+132672518
4157+133178020+133350881+133468761+133821228+134441801+135033021+135197697
4147+134810187+134111424+133457194+133077499+133030279+133212527+133410648
4137+133441626+133271463+133031674+132979751+133430530+134546885+135987676
4127+136924406+136769127+135765543+134600323+133771365+133569771+134085278
4117+134835852+134982281+134304048+133496081+133265226+133597183+134047204
4107+134334712+134497974+134713353+135123083+135755981+136442030+136869379
4097+136836405+136398561+135777341+135242561+135006256+135055232+135189391
4087+135337206+135655664+136223833+136815867+137090690+136949121+136654009
4077+136587442+136906418+137453818+137937174+138097147+137778910+137038434
4067+136226734+135808726+135986512+136544694+137064608+137198120+136809945
4057+136067445+135355064+134931892+134773942+134854783+135314025+136179144
4047+137157811+137809325+137819793+137228092+136475281+136036587+135982807
4037+136072453+136179384+136386975+136754141+137178728+137474754+137590149
4027+137745123+138190313+138790384+139102246+138989401+138875512+139190478
4017+139757918+139946153+139399187+138443784+137725500+137567116+137784611
4007+138043468+138220801+138377346+138548748+138737158+139016591+139443876
3997+139890987+140112935+140037896+139921244+140098864+140583623+141051384
3987+141258836+141259353+141142378+140830914+140268288+139632323+139310077
3977+139680495+140705467+141709550+141992928+141707102+141558520+141711148
3967+141751661+141675135+141994776+142812684+143555350+143725864+143414058
3957+143047779+143015701+143508092+144526348+145917257+147184503+147527473
3947+146811600+146196903+146794766+148066539+148465173+147538301+146302911
3937+145824064+146534467+148336622+150419956+151369270+150556979+149176362
3927+148838622+149616867+150210047+149976032+149909798+151068597+152920522
3917+153735326+152468441+149884114+147571866+146462431+146643432+148229339
3907+151808815+157473139+163523542+167237703+167555524+165399572+161635705
3897+157144435+153875722+153699248+156284619+158603528+158227225+157118492
3887+158378781+161384368+163216549+163744483+164639814+164625937+161822757
3878+158608591+158447149+161480509+165798788+170047221+172819173+172503847
3868+170395882+169451991+169770440+168917497+166004041+162949839+162081652
3858+165069168+173018827+184310484+190527816+184732298+173797451+165573117
3848+162055986+162722135+166294940+171267579+176536161+181440857+184650940
3838+184334505+181012501+177528779+175188084+173095769+170793915+169314552
3828+169269429+170304896+173066851+178828592+185686241+188482806+186628894
3818+184281621+182036494+177672777+172192234+168927365+169613377+173824355
3808+179070320+182517937+184939639+188859017+192859660+192911473+189713123
3798+186883409+184819736+182409065+180311873+179946748+181549323+184504576
3788+188242999+192193974+195753197+199198634+203767474+209605529+214654925
3778+217404556+219563686+223967057+232011508+243383137+255979688+266779351
3768+274837291+281528047+287838010+294540870+303259434+314628199+326603650
3758+336992178+347202579+360917656+380487547+404216086+424976475+437420601
3748+445966285+456517013+468463047+476346962+480085090+485727370+496649504
3738+511571968+526072395+535712085+539669915+540441296+540062202+538817823
3728+536904800+535206085+534427904+534294604+533736903+531787700+528741572
3718+526278683+526444245+530817866+539461077+549154575+554595483+554293775
3708+551510551+549814756+551455783+556519149+561943759+563999801+562524595
3698+560332629+560270174+564163294+572366619+583236165+592749614+595653868
3688+591094026+584596105+580870913+580660301+582852636+586514561+591672386
3678+597884416+601663859+599515797+595023954+592933322+591381247+586054275
3668+577650723+570005765+564785040+561944350+561529335+564051835+569546033
3658+575996539+579948272+581204625+583980124+591061061+599869650+603285448
3648+597602368+587784107+580071002+576894679+577530949+580154818+583984929
3638+589126826+594360854+597574540+599340663+603159022+610613842+617552868
3628+618442360+615148073+612815083+613534763+617270857+622841591+627880899
3618+630971152+633474324+636908562+640847471+644407286+647595472+650122443
3608+650799254+649570544+648223944+648277974+649793831+652064402+654489893
3598+656532594+657747704+658702349+661025545+665903282+673016481+680347056
3588+684092759+681422103+674748309+669704123+669848916+674393754+679636024
3578+682537580+682614670+680623264+677911513+677065223+680343656+686577748
3568+690648441+688708478+682865305+677058423+672967847+671094626+671620361
3558+673790190+676336896+678367401+678707617+676055366+671791319+670132147
3548+673083519+677308171+677934574+674683341+671164399+669536417+669660367
3538+671241193+673924266+676613917+678508056+679899815+681210198+682098174
3528+681812875+679872837+676459959+672816180+670674142+670366964+670553518
3518+670239466+669864807+670171024+670770079+671022267+671528784+673187070
3508+675291561+676048788+674723844+672307445+670658547+671005415+672434500
3498+672178173+668666401+664029100+661832219+663181405+666278976+668948892
3488+670344421+670704298+670679020+670742954+670623808+669468049+667149509
3478+664804730+663802560+664419872+665376882+665286192+664449584+663848238
3468+663149919+661636944+659884864+658274326+655929399+653447145+653692162
3458+657671575+662331345+664130359+662974452+661194138+660307048+659789740
3448+658237518+655495241+653325855+653590164+656146183+658860816+659664533
3438+658465462+656707765+655523180+655283632+656289572+658493696+660967894
3428+662655966+662944222+661281280+657969883+654813257+653356603+653168645
3418+652903819+652276012+651847471+651735199+651645618+651607554+651980734
3408+653040778+654776301+656647231+657262621+655206468+650978342+647125615
3398+645846127+647156658+649481628+651151518+651335558+650446251+649434324
3388+648314339+646175996+642923284+640042128+639250310+640847767+643244801
3378+643950289+641625689+637600968+635062467+636293025+640548498+644836492
3368+647036255+647389850+646632549+644795988+642514404+641247925+641410605
3358+641858585+641830794+642000348+642932228+644017031+644694507+645194003
3348+645507759+645077223+643950585+643062091+643210136+644590809+646698404
3338+648059491+647352672+645301767+644014814+644225832+644764797+644732276
3328+644564127+644954825+646102823+647965918+650248241+652200548+652931462
3318+652000099+649837809+647608702+646539938+647114528+648817456+650519054
3308+650893787+649253906+646673866+645183212+645372057+645990921+646200534
3298+646547846+647400862+648222836+648521883+648296821+647803904+647754826
3288+648981910+651077384+652413710+652100767+650974868+650138334+649520727
3278+648717084+648319217+649164472+650793858+651653748+650738794+648826917
3268+647847438+648581086+649356717+648242792+646103119+645486842+647105880
3258+649324491+650666582+651117149+651064597+650413656+648995953+647400641
3248+646920509+648137098+649773062+650053262+649154494+648750788+649348143
3238+649818001+649472537+649089082+649416290+649684442+648465414+645774507
3228+643375181+642692606+643145094+643100747+642194440+641761908+642677897
3218+643752945+643220706+641202100+639411956+638890138+639289779+640183743
3208+641595237+643020478+643165198+641416666+638818222+636582833+634733042
3198+633202180+632807491+633902790+635315763+635848519+635718434+635609636
3188+635557306+635233203+634315736+632574004+630274607+628161542+626595794
3178+625194796+623683668+622499453+622128490+622221397+621955462+621232974
3168+620886624+621553752+622762949+623451807+623109374+621995375+620470574
3158+618590664+616332547+613909496+611835382+610715729+610625298+610755826
3148+610211946+609042218+607978257+607481200+607455811+607445057+606926566
3138+605814895+604599859+603790931+603437115+603301524+603197678+603069884
3128+603091208+603520524+604130482+604168546+603397387+602687058+602707605
3118+602626894+601278077+598954437+596844550+595491114+594654802+594035901
3108+593602889+593485073+593799457+594362074+594630337+594107337+592647948
3098+590443122+588055622+586361933+585962144+586597637+587528150+588342289
3088+588873900+588741930+587829710+586675504+585615349+584477809+583561488
3078+583430738+583483880+582504770+580663701+579171754+578277791+577260764
3068+576151089+575830016+576432323+576930008+576458636+575234878+573926639
3058+572967263+572743237+573456264+574481495+574701678+573677556+571936009
3048+570200633+568826317+567890297+567482711+567664127+568108892+568205605
3038+567764610+567146671+566480208+565402204+563793920+562187594+561173376
3028+560797017+560715271+560613198+560336842+559825188+559018292+557785591
3018+556070098+554268497+553140307+552976297+553106455+552612392+551439005
3008+550458047+550312921+550453021+549813462+548391103+547301606+547162467
2998+547285456+546710422+545348486+543805836+542596454+541868016+541567010
2988+541440325+541043603+540251269+539557791+539338458+539168645+538453290
2978+537383749+536707234+536775196+537105951+536769874+535204717+532721243
2968+530268036+528852699+528964047+530146895+531346225+531882012+531704475
2958+530789004+529066156+526902314+524913421+523410682+522480761+522254443
2948+522651756+523000915+522363721+520472170+518114088+516345895+515512724
2938+515209760+514937949+514586018+514379915+514440485+514432503+513889547
2928+512891996+512005313+511560659+511379686+511063380+510273374+508923559
2918+507329614+506022890+505287246+504980364+504750609+504289067+503498136
2908+502518731+501522289+500558996+499728449+499214355+498915456+498454024
2898+497624881+496527106+495423085+494650670+494392976+494366257+494000505
2888+492989317+491513963+490059452+489069145+488584986+488217348+487579785
2878+486673848+485827299+485375919+485353413+485427103+485195500+484476375
2868+483320690+481977823+480798523+479963024+479352882+478731801+477950812
2858+477066309+476365995+476100208+476096327+475826623+474924308+473555793
2848+472339685+471885460+472204870+472564895+472122421+470723234+468964909
2838+467569601+466817622+466445772+465968893+465171828+464269919+463551053
2828+463046826+462619099+462116387+461367328+460286183+459045758+457882829
2818+456770493+455598917+454591721+454112255+454029843+453769045+453165001
2808+452719756+452664285+452330943+451037560+449212936+447958061+447655097
2798+447611082+447090115+446173756+445340844+444653833+443811793+442739258
2788+441701167+440922432+440328883+439660314+438799980+437946964+437359476
2778+437006806+436629116+436037378+435199994+434177572+433112170+432146364
2768+431267959+430367196+429460409+428655768+427903826+427067920+426242473
2758+425658348+425298841+424917678+424315703+423385892+422150715+420915870
2748+420030037+419408623+418670392+417723730+416875702+416374137+416051512
2738+415454785+414305825+412837345+411608894+410942025+410578083+409997690
2728+409108198+408335894+407903214+407464473+406711829+405862804+405264414
2718+404918359+404563989+403965747+403106817+402201878+401430645+400724492
2708+399990954+399362740+398972153+398657252+398136285+397355924+396492966
2698+395700151+394960479+394136990+393138737+392092441+391283218+390853790
2688+390663208+390470077+390102550+389529216+388940693+388534068+388060699
2678+387005756+385395883+383938046+383201330+383082738+383075015+382706749
2668+381844568+380838591+380214590+380072938+379956342+379378204+378329248
2658+377219166+376462272+376183366+376207055+376204726+375888495+375201780
2648+374349872+373581891+372964432+372389842+371736535+371023138+370441489
2638+370125257+369862168+369297593+368486817+367880556+367667320+367538455
2628+367178652+366598629+365937451+365273612+364636492+363988655+363276625
2618+362591204+362129810+361951904+361901607+361775698+361490583+361106020
2608+360717392+360303892+359727971+358928652+358050468+357327020+356888612
2598+356699878+356618649+356475112+356144615+355615887+354986713+354383481
2588+353878442+353415200+352839722+352147353+351628160+351541165+351737919
2578+351859393+351758281+351461747+350932649+350177382+349419527+348903585
2568+348624162+348393335+348079136+347666338+347172570+346638151+346165818
2558+345851803+345675671+345530915+345340925+345081309+344734959+344306714
2548+343859104+343491208+343287359+343240573+343182626+342879994+342316231
2538+341796890+341614365+341658121+341517171+340960910+340206677+339699383
2528+339656552+339826401+339753893+339304805+338766986+338407331+338179609
2518+337949225+337751474+337648257+337517654+337249022+337032202+337113468
2508+337328736+337276628+336893469+336438690+336033579+335636746+335300706
2498+335095195+334953543+334802910+334637089+334375700+333904549+333318502
2488+332910250+332835230+332921817+332911211+332767120+332588475+332346599
2478+331952390+331486746+331128569+330946672+330920433+331004841+331035366
2468+330775640+330229690+329729160+329530263+329482774+329289384+328940483
2458+328667527+328583563+328605072+328643099+328665236+328625213+328471550
2448+328212009+327915659+327648764+327397316+327070736+326644080+326266760
2438+326126476+326218459+326351131+326381065+326325446+326197099+325874547
2428+325286172+324633198+324240246+324211605+324388107+324596169+324760068
2418+324832132+324796802+324696726+324542398+324299080+324030041+323898958
2408+323968472+324123687+324217001+324219773+324237438+324380494+324616827
2398+324828917+324977590+325051613+324945402+324613907+324248783+324044675
2388+323866437+323357037+322325265+320834944+318880235+316173695+312480358
2378+308122000+303884710+300296420+297144617+293858313+290242085+286594315
2368+283243153+280394240+278343612+277317938+277206701+277901213+279663400
2358+282794212+287279570+293130152+300653969+309624203+318364109+324598940
2348+327112090+326443373+324442728+322679561+321077707+318818445+315782480
2338+312461252+309269056+306223353+303116563+300052142+297637516+296387224
2328+296119793+296149394+295932555+295499414+295378808+296067574+297520902
2318+299199218+300566420+301482612+302188119+303022713+304153675+305483681
2308+306787485+307946681+308999056+309954939+310706290+311176406+311442193
2298+311662857+311963345+312392514+312928929+313496535+313981286+314300215
2288+314507279+314751927+315090406+315432360+315660230+315700733+315546073
2278+315310294+315176440+315197653+315225591+315087930+314788551+314493014
2268+314331147+314286689+314305722+314388059+314498188+314538137+314503510
2258+314517368+314634888+314768336+314870223+315018897+315246471+315457083
2248+315595446+315738502+315969551+316298606+316693591+317065959+317287916
2238+317330193+317322469+317454217+317856963+318504356+319198204+319783327
2228+320358397+321094892+321915719+322599736+323161614+323861337+324821008
2218+325894171+326960645+328095450+329377672+330762040+332196447+333694048
2208+335290100+337052232+339075642+341364765+343751599+345981962+347912132
2198+349634684+351363223+353187034+355037527+356884546+358800636+360790564
2188+362721511+364507072+366205566+367806681+369112518+370024294+370754949
2178+371570566+372495979+373357089+373926727+374026249+373643312+372952237
2168+372185771+371472337+370733737+369776985+368501415+366907728+365002577
2158+362855254+360563803+358100470+355418727+352605570+349744850+346826515
2148+343761097+340432515+337263767+335647944+336822883+340377783+344800445
2138+349212906+353632611+358078333+362433070+366765115+371205072+375773673
2128+380426754+385134974+390029119+395355611+401125833+407078986+413022494
2118+418885328+424601039+430266417+436172082+442480345+449130968+456089876
2108+463490223+471698796+481481358+493893369+509676203+528670987+549721849
2098+570938938+590134429+605491974+616288237+623157268+627544157+630498708
2088+631918702+631093698+627287683+619542500+607294425+591363361+573007841
2078+552770489+531305462+509954999+489840784+471494282+455233941+441087773
2068+428792024+418164983+409035728+401101331+394281746+388697006+384196516
2058+380452586+377288495+374563995+372175350+370208704+368675995+367399205
2048+366386059+365819451+365703779+365979544+366795308+368486041+371568016
2038+376694614+384467513+395497115+410437281+429481991+451997379+476830715
2028+502512929+527197739+549185138+567525099+581882729+592470855+600157352
2018+605892170+610042651+612423609+612661088+610534312+606127431+599614137
2008+591012982+580257703+567449007+553069093+537889269+522516349+507126763
1998+491802034+476981902+463285746+450851672+439158600+427691736+416534267
1988+406150137+396970510+389267421+383017881+377827128+373201911+368877848
1978+364863253+361321732+358386324+355984485+353954978+352308074+351071012
1968+349904980+348311810+346323730+344531442+343298039+342390661+341495478
1958+340678087+340143630+339875478+339662021+339271988+338618090+337910828
1948+337591418+338021844+339166812+340383068+340655728+339550562+337772207
1938+336342678+335654374+335495834+335525361+335544652+335504444+335400672
1928+335338919+335675809+336633263+337760492+338456371+338907270+339504774
1918+339696279+338686718+336958068+335799426+335820676+336608428+337288676
1908+337265763+336680899+336114734+335864395+335758886+335627618+335682941
1898+336299033+337383246+338244836+338543698+338903131+339776843+340412448
1888+339971564+338907529+338127205+337826791+337796376+337921878+338088993
1878+338180828+338219706+338377877+339171468+341427442+345271522+348987660
1868+349932733+347626426+344345111+342212127+341562848+341645001+341763741
1858+341724309+341654979+341687427+341830446+342153293+342906380+344385947
1848+346889488+350417041+353651163+354113518+351367657+348114318+346575511
1838+346630538+347041377+347296779+348296621+351079069+354893177+357371810
1828+357585194+356917955+356098605+354500484+352343478+350927143+350772372
1818+351193041+351522724+352007143+353279128+355243150+356855647+357220624
1808+356596401+356020333+356496362+358539210+361688852+364404594+365287692
1798+364713471+364603490+366609790+370468689+373349143+372356212+368696099
1788+365944546+365715974+367174845+369033099+370877199+372470664+373310155
1778+373748341+375392546+379626659+385769211+390455886+390704451+387618263
1768+383871525+381017901+380291865+382258326+385306412+386929812+387147593
1758+387594759+388411633+389340519+391734191+396813337+403004376+406718334
1748+406593866+404625114+403139819+403288086+405149518+407620317+409170469
1738+410423866+414198505+421263551+426896519+425996421+421237350+416930693
1728+414191595+413282036+414342486+416759587+420406765+426738274+436823356
1718+447961498+453657993+451493559+446240240+442547125+442119914+445173507
1708+451158480+458405016+464807406+470583984+478171254+487766967+495177402
1698+497896323+497851052+495663853+492126064+490577242+493003656+498600148
1688+506489126+517626417+531404467+540636090+539793570+535027107+533239550
1678+536352383+543286975+551002149+557019273+562420416+568914900+574572665
1668+576387754+576334464+578556882+583513223+587865558+589213635+589654408
1658+592862403+601157379+614990308+629478503+633151551+627775648+625601458
1648+628680033+630861984+626971414+620379662+616294113+616351690+620739243
1638+628923942+637285291+638715189+632030087+624891905+622341873+623978355
1628+627150724+629994703+632401567+633807888+632990940+631451579+632678663
1618+637366668+641391462+640636896+637566821+636360802+637573990+639407225
1608+640333858+640335188+640201630+640371405+640650792+640816132+641158566
1598+642092442+643419898+644470333+644857409+644646169+644050957+643495953
1588+643564913+644383338+645384696+645994542+646435796+647891119+651751312
1578+657989765+663319916+663338172+659906816+658754235+661598214+665460180
1568+666990673+666883500+667559498+670604221+678028294+691973754+708667551
1558+713830070+705199313+695875116+691060204+689950492+691214901+693976986
1548+698337857+705536499+716368276+729837301+743877146+754810774+756264250
1538+749139742+742949922+742069411+743997401+744439689+743507513+744927359
1528+750090913+756874909+763111736+769229491+775533800+779867471+781061517
1518+780596316+779147053+776879364+775736614+778129065+784998208+795798720
1508+807212036+810395787+801045351+789861384+785058372+786419237+790897702
1498+794865362+795436479+793149130+791860551+794429504+800049241+804408782
1488+803533740+798614391+793901552+791988492+792811057+795179857+798541071
1478+803143560+809025240+815523050+820770715+821484556+816896923+811605059
1468+810096962+812452310+815013428+814744167+813822413+816548946+824084700
1458+832661575+834987728+829610569+822744826+818047582+815614775+814726429
1448+814402325+813735862+812698214+811897601+811945940+813737636+818194075
1438+824376873+828224870+826685730+822785921+820850023+821503329+822918962
1428+823907755+824862178+825992733+826780264+827394545+828534930+829354464
1418+827831807+824212937+820649796+818135537+816545029+815747890+815749812
1408+816458035+817404254+817786378+817602042+818182471+820357179+823155184
1398+825283845+826710786+827442957+826604945+824517084+823305965+824043752
1388+824959150+823513583+820437077+819274814+821907331+827035703+832392831
1378+837215873+842221773+847569736+851731267+853343728+853449274+854172131
1368+856377586+859569838+862790619+864868354+864823342+862949455+860699136
1358+859127475+858121240+856900364+855000313+852816736+851080991+850022722
1348+849291512+848566881+848113506+848679375+850671150+853385636+855357825
1338+855775205+855235279+854837042+855073190+855673946+856126729+856366352
1328+856920838+858198182+859901184+861554444+863264394+865341242+867491041
1318+869102171+870161401+871200823+872469446+873725873+874769803+875755565
1308+876930985+878279136+879538224+880585924+881628229+882772531+883585857
1298+883502706+882570900+881409006+880586589+880201361+879721304+878200642
1288+875155031+871203632+867348539+863931744+860789235+857962847+855641942
1278+853764360+852119378+850514162+848755652+846941190+845753575+846025940
1268+847802780+850026639+851364960+851365700+850736193+850476836+850961328
1258+851963646+853140988+854093637+854408723+854294455+854723809+856172703
1248+857752346+858520216+859013060+860307404+862282327+864088880+865689736
1238+867622235+869744686+871429432+872747280+874538459+877293744+880576833
1228+883618674+885980156+887536665+888372386+889017341+890262607+892388681
1218+894907004+897178684+898908664+900168047+901494395+903665185+906798972
1208+909926329+911971617+913002687+914031022+915752946+917946427+920012336
1198+921658204+922927270+924017987+925381364+927580463+930711811+934278943
1188+937728186+940641642+942682791+944166496+946356947+950096442+954367140
1178+957484076+959415244+961425128+964009898+966554904+968381191+969324823
1168+970090476+971898950+974696512+976722140+976851190+975916205+974935765
1158+973881856+973087822+974070257+977537535+981837798+984730189+986023942
1148+987412080+990110157+993433897+995732851+996350236+996104775+995793384
1138+995340009+994966533+995866187+998827317+1003007252+1006833519+1009468253
1128+1010781001+1010817735+1009937446+1009143780+1009662050+1011700242
1120+1014001043+1015302187+1015641295+1015679803+1015837161+1016539323
1111+1018076985+1019904824+1021096061+1021760158+1023362714+1027312636
1103+1033526772+1040271299+1045125828+1046472427+1044770977+1042172385
1094+1040825269+1041566308+1043356600+1044084041+1042873217+1041236810
1085+1040827782+1040876785+1039700478+1037912995+1037940490+1040851285
1077+1044918209+1047405638+1047884734+1048921052+1051922389+1054323710
1068+1053504841+1051020443+1050064911+1051620237+1054464216+1056599011
1060+1056250517+1053157234+1049340945+1047880225+1050740835+1057427119
1051+1065377001+1071570885+1073741823+1071642210+1068267914+1067551339
1043+1069990576+1072096989+1070949213+1067576247+1064203577+1061327372
1034+1059173582+1058725602+1059669161+1059791485+1057764896+1054883444
1025+1053331222+1053792728+1055352119+1056755852+1057702515+1059151852
1017+1061522795+1063150185+1062314021+1060257277+1059859557+1061802330
1008+1064255758+1065520611+1065379144+1064322057+1062467388+1059592440
1000+1055583463+1051200936+1048152517+1047483541+1047760488+1046418989
991+1043337975+1040717283+1039299950+1037467528+1034588959+1032357339
983+1032179138+1033350862+1033807785+1031966124+1028583328+1026248158
974+1025774161+1024817151+1021651878+1017669583+1014360624+1011102961
965+1007322815+1003875272+1001285550+998885929+996116896+993007574+989175542
955+984130247+979080592+976286577+976110224+976432257+975341762+973020266
945+970634688+968638404+966554978+963871609+961118320+959823680+960563020
935+961627277+961064808+959447765+958909317+960204770+961936524+962157150
925+960424436+958181508+957075491+957287914+957874995+958117500+957774180
915+956775187+955594520+955203453+955950701+957300183+958967412+960982692
905+962381990+961685963+959070519+956264161+954267581+952618756+950577016
895+947896530+945001404+943226856+944052746+947389200+951020265+952386747
885+950928467+948281463+946499523+946585482+948458038+951111103+952536493
875+950875398+946390134+941358956+937617096+935191680+933452609+932531889
865+933044468+934901133+936918630+937802098+937571714+937434682+938062193
855+938852163+939168136+939379450+940096690+941099599+941534349+941006027
845+940292335+940585395+942077231+943904405+945253148+945897216+945671045
835+944028355+940678967+936714337+934400084+935120872+937891900+940736471
825+942863875+944187340+944097389+942570592+941282383+941757341+943291454
815+944241739+944700066+946251918+949479204+953005980+955127989+955708714
805+955810638+955926680+955626598+954738104+953562315+951921103+949609437
795+947617291+947047505+947437907+947548553+947480555+948264315+949510690
785+950081955+950465557+951743936+953109087+952870870+951453389+951333799
776+953519889+956195571+957429159+956983397+955264799+952551127+949694435
766+947806801+946903599+946200550+946086504+948051302+952229685+956681172
756+959536903+960835459+961461862+961398002+960300781+958756320+957828357
746+957870191+958225263+958326301+958324305+958432660+958369983+957652816
736+956849395+957557322+960074242+962057000+961409680+959714513+959840680
726+961314556+961206053+958648039+955352533+952486824+950119059+948834841
716+949097450+949825629+949866502+950510717+954103127+960175649+965252504
706+966681293+964761877+961070647+956389516+950353137+942826549+935698493
696+931779393+931313083+931619152+930668942+928833564+927068845+925980567
686+925739467+925203902+923085885+920308648+918989988+919302635+919192136
676+916404774+910231954+901686861+892108850+884083431+883594209+893216271
666+903846269+908568717+909073756+907544595+903452836+896380067+887856334
656+880528273+877099282+878725933+883555110+888496632+892295700+894669747
646+894111935+889457264+882869356+878714329+878818914+880473356+880004608
636+877168981+873745903+870084163+866103642+862569697+859293851+855534696
626+851990698+850066699+849258104+847266328+843388027+840509458+842121622
616+847985343+855234614+860613694+861111564+856526075+850918459+848501912
606+848777456+848764373+848513738+849669128+850095821
##END=
