##TITLE=<SNM>
##JCAMP-DX=4.24
##DATA TYPE=INFRARED SPECTRUM
##DATE=3/5/2025
##SAMPLING PROCEDURE=Instrument type and / or accessory
##ORIGIN=Admin
##XUNITS=1/CM
##YUNITS=ABSORBANCE
##RESOLUTION=4
##FIRSTX=4497.3318
##LASTX=599.83466
##DELTAX=-1.4281778
##MAXY=1.7352693
##MINY=0.18248558
##XFACTOR=1
##YFACTOR=1.6160955e-09
##NPOINTS=2730
##FIRSTY=0.20328514
##XYDATA=(X++(Y..Y))
4497+125787829+125990440+126702454+127770895+128802296+129483708+129623785
4487+129113662+128172981+127481492+127674983+128643566+129445433+129094807
4477+127694374+126612508+127056880+128652021+129939476+130089797+129569532
4467+129243911+129379138+129590831+129463589+129003386+128500824+128143844
4457+127846152+127413629+126846911+126364644+126114004+126030457+125986319
4447+125900679+125783173+125707704+125550790+125018289+124290425+124114996
4437+124750305+125398726+125191532+124229100+123320468+123149364+123823814
4427+124835530+125393488+125027804+123878159+122389533+120932588+119747462
4417+119019672+118841339+119147938+119774607+120525836+121115632+121221566
4407+120812897+120275325+119991178+119929207+119920143+120115525+120671233
4397+121168106+120995600+120265404+119728062+119777207+120069690+120143693
4387+119942816+119629597+119240705+118745870+118267706+117956644+117641009
4377+116964982+115957849+115097671+114752798+114911482+115448408+116226506
4367+116956988+117368387+117428707+117062802+115963501+114243210+112917574
4357+112976262+114151088+115285888+115766533+115907302+116102573+116308623
4347+116302750+115945493+115245696+114470670+114061723+114199182+114586774
4337+114829088+114806129+114512143+113901674+113219498+113086963+113886387
4327+115321332+116685943+117303715+116920954+116070569+115688841+115981352
4317+116180920+115736760+115029762+114606672+114420750+114149309+113774303
4307+113595758+113896834+114681145+115675564+116632068+117525052+118281260
4297+118532831+117965597+116795353+115667487+115161348+115408438+116068845
4287+116723848+117270503+117727183+117863969+117494966+116939340+116680153
4277+116745692+116851635+116954213+117282646+117908034+118490260+118532656
4267+117904161+117025432+116478141+116492820+116901075+117560228+118531070
4257+119647438+120358364+120362624+119976784+119657019+119624941+119894538
4247+120142522+119813730+118835456+117876831+117652405+118311632+119440909
4237+120306776+120333903+119661223+119029206+119030700+119663823+120533839
4227+121231875+121527105+121426316+121183670+121142934+121388171+121598066
4217+121419604+120957234+120727110+121092332+121842252+122454067+122626093
4207+122409892+122055023+121894808+122132484+122617601+123102432+123648837
4197+124398277+125086327+125212592+124618886+123664871+122918640+122761957
4187+123146404+123594667+123599812+123169197+122797170+122827293+123167731
4177+123710457+124517064+125451061+126183673+126663083+127061988+127270481
4167+126984462+126307071+125745987+125514738+125267398+124685089+123967644
4157+123533249+123506464+123737612+124135208+124664195+125077143+125077752
4147+124866188+124998880+125512432+125808170+125598764+125250875+125057854
4137+124954207+124978835+125318793+125927040+126557859+127054694+127370090
4127+127500569+127496272+127356222+126966196+126354077+125894695+125965277
4117+126447582+126891114+127103452+127211691+127231847+127011340+126567844
4107+126178731+126147686+126610913+127469523+128394291+128966218+128988476
4097+128690959+128449097+128308503+128080942+127785823+127556104+127329382
4087+127057368+126893345+126853338+126693805+126308436+125940963+125977080
4077+126586875+127425929+127836129+127595835+127168005+126991940+126995951
4067+126973960+126913455+126807245+126608064+126451888+126539722+126773765
4057+126843140+126626182+126239042+125813665+125469456+125367007+125577676
4047+125968200+126299483+126398427+126254312+126005396+125799217+125660808
4037+125525313+125383171+125368768+125676077+126337240+127092830+127578712
4027+127704240+127785610+128180311+128791250+129136714+128989177+128680743
4017+128634807+128822111+128840193+128405991+127695692+127202047+127218321
4007+127560068+127915269+128289113+128859131+129527772+129893890+129664964
3997+129003515+128403585+128140414+127990867+127739849+127714548+128380082
3987+129566655+130534159+130732482+130212116+129400604+128780333+128748237
3977+129462344+130630448+131588022+131877489+131717072+131608906+131638661
3967+131582748+131515346+131778941+132410875+132992687+133082642+132633734
3957+131973327+131438300+131124389+131061745+131433210+132305162+133266203
3947+133719306+133521868+133059959+132787614+132867833+133134286+133295561
3937+133236753+133185137+133511781+134276047+135048935+135382845+135373403
3927+135490780+135958064+136409812+136257674+135495132+134824592+134853406
3917+135357240+135544305+135083088+134486643+134405973+134894805+135570777
3907+136363995+137634539+139395188+140899453+141478812+141215033+140426590
3897+139341811+138432599+138288344+138884346+139363387+139260929+139560825
3887+141103225+142886768+143323275+142782005+142589012+142514169+141709831
3878+140777180+140926865+142334057+144317214+146174051+147242464+147131191
3868+146482651+146140304+145900830+145178747+144243865+143781624+143914141
3858+144614150+146381364+149501258+152092025+151522938+148865091+146391967
3848+144936239+144570058+145200055+146539569+148206851+149953623+151399504
3838+151915776+151601967+151466868+151936126+152359382+152175766+151739831
3828+151590109+151836877+152682246+154410651+156349753+157145904+156950559
3818+156892544+156741623+155787894+154669728+154399126+155269188+157044110
3808+158887282+159852684+160399568+161676898+163309549+163986350+164091924
3798+164871497+166217907+167430306+168675088+170510312+172851132+175280099
3788+177931906+181353309+185559209+190060882+194908545+200629792+207093415
3778+213614888+220165037+227254288+235092813+243488974+251818157+259108064
3768+264949583+269852513+274514125+279567625+285677644+293336093+302545370
3758+312715365+323462820+335607803+350668298+368866410+387175462+401608080
3748+412572216+423402802+435403798+446149261+454050319+461508721+470721816
3738+481507258+492629027+503790960+515568784+527246805+536448983+541785127
3728+544407540+546005890+546637640+545667868+543568735+541502981+539644171
3718+537239989+534315513+532277236+532400274+533994641+534944386+534296409
3708+532537622+530651556+530413779+533297758+538442375+543378314+546979498
3698+549691054+552041131+554644475+558360657+563324811+568311426+571904017
3688+574181215+575901755+576994159+577098756+576248924+574953890+574535981
3678+576236421+578725763+578790380+576654366+575188090+575128120+575195393
3668+574515254+573245189+571904164+571001074+570652467+570700856+571197065
3658+572094106+572884042+573371067+574267924+576396894+579475572+581658058
3648+581474275+580110494+579476900+579978125+580977697+581903580+582771263
3638+583810337+584819720+585516124+586419877+588269578+590662917+592616882
3628+594327316+596520239+598599603+599949369+601597289+605034975+609895381
3618+614794991+619990431+625688682+630448142+633443098+635557020+637350881
3608+638316080+638616446+639025319+639537461+640149774+641583594+644196454
3598+647270780+649859888+652017405+654697906+658496445+662794881+665800238
3588+665732007+663006731+660086054+658909227+659773591+661709447+663147767
3578+663119073+661735043+659177580+655928138+653916822+654732133+656920999
3568+657511035+656596807+656737622+657625148+656578071+652964532+649006737
3558+647250348+648878388+652964679+656413356+656695429+654981602+654463706
3548+656242667+658567185+659150730+657409905+654860260+653610997+654593014
3538+656829679+658234068+657450475+654938302+652240909+650197800+648180656
3528+645210337+641570611+638807199+637811315+637483804+636223550+634321994
3518+633666676+635302388+638061153+639469155+638040425+635048050+633487578
3508+634741931+637131065+638310917+637685916+635876713+633687109+632312374
3498+632623509+633477325+632737400+630611381+629551322+630537986+631851498
3488+631876356+631297163+631377787+631398145+629653264+626336107+623658408
3478+623147226+624159928+625177721+625247870+624033350+621989872+620580247
3468+621165193+623411890+625383448+625357999+623227702+620484870+619340425
3458+620807070+623309358+624416848+623937604+623489711+623528879+623138079
3448+622029409+620676434+619283037+617889381+616488202+614859239+613329158
3438+612931534+613719147+614152656+613253033+612116481+612156719+612962810
3428+613030857+612079673+611415541+611878925+612614497+612281602+610528015
3418+607831655+604956196+602894572+602156418+601925648+601021231+599646827
3408+599047644+599659994+600750296+601446774+601203427+599862660+597959149
3398+596468236+595822397+595616486+595283922+594732501+594465033+595004984
3388+595909291+596086250+595548844+595531731+596657993+598036527+598526245
3378+598093252+597269569+596134381+594633362+593536827+593896979+595448599
3368+596689933+596834694+596614362+596730392+596608535+595472130+593935520
3358+593318191+593729461+594090572+593980848+593955289+594121774+594005374
3348+593671372+593907490+595000743+595857804+595099512+592888591+590728677
3338+589572467+589293124+589706201+590694598+591653159+591956770+591661051
3328+591024802+589864608+588068608+586211163+585125840+585063878+585515202
3318+585863367+586059578+586727509+588376756+590211962+590544120+589008838
3308+587205351+586362563+585920497+585272888+585147047+586027344+586794634
3298+586228829+584779113+583782011+583813398+584679975+586261765+588388927
3288+590301954+590987072+589963415+587717714+585635215+585023824+585792480
3278+586698815+587064130+587302129+587753785+588143737+588162141+587765587
3268+586915681+585310729+582652983+579527944+577473919+577486237+578913271
3258+580222762+580393820+579442489+578377451+578664908+580807783+583724218
3248+585778944+585855437+583787322+580638937+578152250+577060768+576439751
3238+575392047+574547599+574907419+576086902+576754943+576202010+574803633
3228+573476992+572850295+572447029+571149966+569077942+567943787+568800627
3218+570644832+571833720+571731336+570509734+568683048+567210760+566724251
3208+566568868+565728403+564327629+563151245+562406083+561909358+561718826
3198+561845036+561908289+561528110+560690301+559551462+558121626+556361290
3188+554594980+553385217+552782272+552337551+551967220+551798264+551335470
3178+549986146+548122431+546534666+545176269+543495930+541677949+540619807
3168+540630134+540737129+539718193+537752647+536490032+537173454+538978084
3158+539556945+537515570+533965652+531102032+529790512+529233891+528560907
3148+527863913+527588073+527590286+527323151+526680041+526111581+525856727
3138+525480716+524322625+522190115+519606613+517483913+516409470+516142666
3128+515976218+515613632+515396140+515577341+515729700+515192368+513999239
3118+512989708+512822190+513121229+512980303+512214746+511492156+511199350
3108+510953053+510310792+509227682+507804226+506339646+505384663+504974205
3098+504435324+503576529+503068002+503155449+503142208+502529969+501601726
3088+500730096+499964133+499242687+498450316+497465754+496412113+495414642
3078+494197024+492632199+491442094+491437779+492271310+492800159+492521111
3068+491891168+491411077+491045024+490452627+489432401+488168938+487092909
3058+486422618+485941198+485350461+484697394+484221691+483855233+483212050
3048+482209047+481322222+480873038+480500457+479744194+478676279+477676153
3038+477021794+476782615+476732788+476442159+475692830+474592901+473287209
3028+471926562+470841719+470331126+470226160+469949029+469103291+467858675
3018+466700363+466033907+466054450+466518129+466526575+465278345+463259357
3008+461855079+461664141+461942157+461695602+460692009+459347480+458088480
2998+457053648+456310478+455993146+455968693+455732686+454967055+453837289
2988+452615282+451497355+450736261+450372605+449963438+449093320+447953891
2978+447054896+446582328+446257509+445716083+444938982+444208610+443572176
2968+442671816+441397583+440275378+439796762+439791414+439815941+439709352
2958+439448855+438889726+437956909+436821906+435713458+434747780+433998377
2948+433528317+433242298+432814358+431993183+431048195+430600080+430776818
2938+430865409+430172177+428962377+428058107+427699099+427401056+426840452
2928+426202875+425645479+425038218+424262998+423340287+422387518+421646376
2918+421226918+420769030+419788082+418366249+417104372+416454993+416368284
2908+416480220+416433343+416023401+415240841+414338083+413714780+413511413
2898+413430199+413126587+412556061+411749455+410573476+409018683+407487421
2888+406442152+405860414+405347018+404730648+404224555+403993969+403855920
2878+403457596+402622811+401534353+400605040+400134944+400115470+400299622
2868+400352731+400068593+399541109+399002301+398552637+398202407+397949987
2858+397647925+397083964+396301773+395518402+394733223+393761017+392635013
2848+391687886+391165012+390920632+390607579+390072865+389404418+388705617
2838+388055869+387559586+387222412+386899474+386493921+386065096+385668874
2828+385217956+384556368+383640075+382653816+381922338+381620718+381552302
2818+381298149+380691553+380044313+379672875+379325190+378497154+377305427
2808+376500517+376492698+376839756+376839019+376238655+375230268+374077783
2798+372947722+371964635+371275055+370916231+370588720+369826593+368612220
2788+367527007+366985507+366650620+365965834+364952984+364047497+363365882
2778+362622344+361697973+360852161+360295244+359872762+359286414+358440528
2768+357504946+356757128+356365369+356213563+355946391+355256405+354143604
2758+352932957+352034772+351562536+351148095+350289816+348945103+347595964
2748+346682289+346201902+345914187+345645982+345263812+344603737+343628690
2738+342552993+341681622+341144105+340837506+340600540+340336134+339937330
2728+339270616+338348311+337358659+336433293+335552222+334726104+334068132
2718+333627799+333305082+332941427+332407562+331663175+330827247+330141133
2708+329744431+329458597+328888882+327839335+326607074+325735555+325430468
2698+325350619+325038856+324390510+323597918+322851576+322247488+321774736
2688+321271372+320582824+319807604+319209306+318900531+318750790+318549710
2678+318158135+317547593+316803132+316135607+315787442+315760149+315709584
2668+315322546+314688878+314057829+313451196+312818413+312305239+312017228
2658+311727779+311146078+310328739+309570041+309017569+308627101+308356701
2648+308153408+307862539+307397957+306896345+306503221+306166544+305789999
2638+305370928+304880104+304254311+303582065+303066714+302774536+302583451
2628+302334609+301914432+301271267+300479745+299757174+299313614+299146428
2618+299021528+298709655+298218849+297778737+297627042+297773814+297922171
2608+297729094+297204708+296682552+296370310+296185772+296030167+295912256
2598+295781491+295517657+295122559+294749186+294528060+294443177+294348077
2588+294075169+293577983+292998532+292561076+292337295+292128470+291695901
2578+291115472+290719858+290657122+290731550+290726497+290637409+290527833
2568+290401771+290290424+290273661+290374054+290582695+290982125+291653136
2558+292412257+292810268+292542469+291802876+291091406+290690666+290458919
2548+290127849+289651261+289187601+288853820+288625742+288427078+288202006
2538+287935848+287701298+287628345+287723703+287785517+287619457+287296058
2528+287077477+287102078+287240422+287284422+287167027+286923975+286585934
2518+286237382+286008843+285871735+285656382+285377389+285250994+285304030
2508+285292468+285095832+284905337+284942127+285153755+285245831+285000105
2498+284535430+284157778+283974568+283825878+283563925+283206816+282847052
2488+282555187+282316819+281990931+281424536+280659974+279952506+279544980
2478+279437930+279398227+279217358+278919518+278633499+278343995+277946611
2468+277504877+277229166+277181552+277184779+277047339+276734912+276325911
2458+275936272+275671718+275538224+275426066+275245695+275014686+274782957
2448+274584532+274474956+274497805+274582873+274568489+274369308+274080449
2438+273861482+273729131+273555141+273271980+272959701+272704183+272498548
2428+272315633+272171111+272095429+272104521+272188206+272296178+272365202
2418+272384344+272399244+272436181+272467844+272484662+272542475+272684636
2408+272856506+272942809+272870963+272686498+272548025+272600988+272830043
2398+273088308+273255586+273304436+273263958+273204394+273199950+273205961
2388+272988635+272233607+270707066+268255767+264697606+259857836+253753719
2378+246648571+238909609+230879040+222834695+215007604+207681626+201248135
2368+196042423+192149817+189393117+187456228+186211225+186109929+188040825
2358+192605050+199695500+209085461+221136746+235663358+249967664+259779499
2348+262436156+258786454+252680603+247915999+245133316+242807083+240013650
2338+236886896+233706700+230440883+226984147+223704536+221506228+221040373
2328+221977560+223310638+224314618+225097270+226284811+228354530+231303034
2318+234693051+237888165+240487729+242664092+244927183+247562763+250429868
2308+253213067+255699662+257825644+259588543+261023267+262225432+263274205
2298+264163612+264914232+265650025+266433304+267154382+267712608+268200149
2288+268809659+269592791+270338653+270740869+270716656+270469067+270197764
2278+269896900+269499922+269064237+268715481+268505199+268383710+268246602
2268+268003477+267686256+267471363+267497236+267673015+267749176+267567016
2258+267204099+266896799+266820509+266934326+267046300+266995642+266767122
2248+266501130+266390337+266504394+266755560+267042409+267319170+267549737
2238+267720593+267858955+267970670+268043973+268137616+268376297+268847629
2228+269520521+270244143+270874621+271437862+272096831+272963242+274032208
2218+275249937+276519946+277702896+278760465+279856742+281187385+282768641
2208+284497202+286300524+288130824+289962950+291854216+293864832+295951812
2198+298046795+300117307+302104927+303950607+305667182+307304590+308923354
2188+310590563+312309849+314007596+315565929+316808959+317646621+318279735
2178+319009074+319859607+320583119+320916679+320775643+320321037+319781713
2168+319184669+318422874+317496474+316484841+315390519+314127978+312651412
2158+311104955+309740473+308631397+307644180+306660356+305677417+304842983
2148+304353523+304199099+304533802+306396798+311033736+318311675+326805572
2138+335417677+343951444+352397469+360617260+368504119+376057123+383504792
2128+391236120+399429135+407920525+416315395+424102710+430915531+436602312
2118+440955702+443820576+445465471+446431002+447294001+448924918+452588690
2108+459423309+469812788+483246387+498580177+514125965+527632922+536928005
2098+540830071+539402705+533930503+526408148+518089218+508890618+498340924
2088+486134755+472085671+456436466+439691612+422193925+404606282+388046981
2078+373238941+360387781+349666291+340956081+333724687+327665215+322754134
2068+318769674+315432011+312609404+310117184+307860603+305969982+304437024
2058+303146729+302213747+301681246+301327936+301166855+301527062+302615686
2048+304527643+307451454+311712215+317952888+327033871+339469041+355334557
2038+374587232+396805690+420796581+444871304+467217963+486130808+500480369
2028+509824984+514216325+514429503+511765414+507247272+501463861+494802956
2018+487403344+479315479+470697805+461583518+451837701+441432769+430432784
2008+418894176+407032852+395279112+384045849+373520719+363689189+354549342
1998+346228605+338824050+332288986+326561193+321611312+317316565+313461965
1988+309907289+306696519+304002850+301910486+300259007+298802560+297444440
1978+296215111+295144320+294227012+293427431+292729128+292176951+291743183
1968+291214020+290424158+289558614+288992034+288849633+288895939+288851902
1958+288684421+288528189+288468459+288497098+288555869+288545948+288381990
1948+288086639+287809749+287720642+287821330+287897989+287758077+287433701
1938+287056879+286717916+286488787+286407112+286450670+286599912+286827068
1928+287062190+287298972+287592312+287887330+288108676+288386821+288828611
1918+289175337+289105077+288768733+288626977+288913937+289462076+289913915
1908+290082134+290106033+290210409+290434448+290702376+290998095+291324168
1898+291601538+291724798+291697782+291700935+291963755+292483476+292936773
1888+293017710+292791993+292547429+292455409+292490668+292547393+292570020
1878+292582541+292618077+292718635+293036944+293755920+294766539+295526305
1868+295513028+294884782+294264705+293995486+294010903+294169734+294422634
1858+294730782+295014034+295211703+295356391+295562118+295891620+296320999
1848+296923317+297838836+298856002+299374930+299216670+298915050+298919531
1838+299209478+299566162+299914770+300442956+301319619+302283454+302827222
1828+302944174+303084491+303359077+303501884+303449640+303418365+303560839
1818+303891246+304394573+305071466+305918219+306833553+307559481+307897946
1808+308004332+308282052+309033908+310304876+311906177+313473067+314649341
1798+315406304+316107613+317140564+318450129+319420971+319574990+319365833
1788+319579453+320445402+321702779+323080760+324473088+325774724+326893278
1778+327953189+329279203+331122855+333335952+335240053+336240106+336533501
1768+336616965+336853599+337675401+339305912+341246563+342709852+343703044
1758+344802382+346161037+347663126+349525476+352003681+354739173+356920810
1748+358262573+359232677+360318627+361641101+363054231+364297556+365263824
1738+366377915+368275857+370780764+372426839+372245122+371379135+370959309
1728+371081572+371675408+372752691+374145166+375773612+377980513+381047721
1718+384391211+386634810+387234731+387080269+387120213+387813887+389395272
1708+391886975+394842652+397593561+400211658+403466853+407411887+410761242
1698+412708826+413777036+414262549+414500032+415378226+417383789+420323755
1688+424031564+428757056+434222066+438450832+440040847+440589280+441885162
1678+444411977+447916161+451708984+455192440+458606560+462383301+465988395
1668+468559394+470592729+473221264+476629666+480100657+483102732+485902251
1658+489105664+493393699+499452950+506733545+511941230+513903309+515703440
1648+518859017+522256133+524288583+525416874+527123435+530079777+534315698
1638+539653576+545445027+550086723+552607932+554394601+557170294+561409203
1628+566611171+572235658+578403748+585459215+593213483+601291538+609979434
1618+619542464+628337834+633424879+634636670+634016464+632745146+631155315
1608+629553314+628353767+628069260+629336522+632690929+638213327+645349677
1598+653021403+660032649+665579611+669463421+671925803+673455368+674708467
1588+676316960+678543298+681122374+683552743+685627201+687715011+690455630
1578+694062088+697844694+701014987+704363419+709353317+716325910+724440884
1568+732790352+741640676+751586392+762336945+773726439+787512666+806132042
1558+826123055+840233621+849334742+856655870+862577625+866797503+869424894
1548+870325402+869599493+868315561+867679275+867191917+864022067+857092404
1538+850847342+848278962+847672992+846506418+843904475+840825502+838309125
1528+836575602+835495627+835042422+835438608+837014866+839668296+842504881
1518+844475112+845101809+844732842+844120013+843780036+844142658+845716039
1508+848299837+849912755+848739321+846395109+844963723+844998539+846355424
1498+848219360+849238038+849007379+848590613+848847606+849519152+849815018
1488+849486843+849018960+848709668+848405540+848050146+847923125+848220762
1478+848783948+849530069+850697307+852134372+852867658+852513739+852076394
1468+852328297+852966354+853336353+853422214+853846061+854866287+855754403
1458+854931347+851806271+848602047+847077719+846676813+846478904+846022528
1448+844901171+842952259+840898454+839592983+838929847+838403321+838104873
1438+838279914+838405608+837882844+837221625+836977984+836785829+836175729
1428+835383506+834753564+834103336+833282788+832664279+832464969+831982923
1418+830320730+827902680+825986961+825179100+825173642+825117286+824220319
1408+822361251+820095302+818157380+817008878+816635412+816693169+816939024
1398+817457288+818195147+818458852+817614036+816203157+815297042+814959942
1388+814206445+812480225+810930670+811430493+814554463+819220906+824091749
1378+828808204+833563902+838095505+841819173+844713221+847297830+849743836
1368+851670841+852942823+854141189+855828904+857687087+858861923+859025015
1358+858587964+858167658+858117351+858313120+858466844+858703183+859420020
1348+860652465+862088571+863565101+865098207+866659638+868282515+870204872
1338+872663787+875625919+878811407+881850917+884490111+886859477+889371059
1328+892179025+895089005+898193501+902017931+906693890+911581772+915949398
1318+919638988+923001141+926335632+929467346+932070986+934360170+936752329
1308+938925189+940193704+940669333+941047372+941658948+942589699+944033403
1298+945663509+946396278+945598154+943905202+942109128+939805559+936279725
1288+932403955+929990774+929295476+928823831+927642430+926228084+925043512
1278+923916106+922815772+921932894+921064325+919868541+918561226+917756242
1268+917869543+918869780+920383855+922025320+923567130+924860799+925939446
1258+926962919+927648922+927291905+925697427+923295237+920184840+916163239
1248+911663945+907562827+904282183+901857421+900226430+898838049+896817954
1238+894033667+891238241+889015297+887370660+886250852+885588675+884920301
1228+883842981+882783660+882502546+883011295+883738532+884572284+885943036
1218+887994996+890404121+892886788+895245384+897079889+898109853+898765465
1208+899894346+901826661+904155605+906326472+907932900+908765102+909368785
1198+911118093+914738345+919094611+922391631+924368278+926319994+929061498
1188+931860980+933586315+934248640+935005235+936869024+939826729+943140198
1178+946066333+948156503+949357008+950133077+951396871+953952860+957638097
1168+961335432+964073027+965809057+967115414+968474732+970061170+971831426
1158+973424207+974226978+974154542+974354294+976144762+979106673+981583881
1148+983262449+985147704+987025729+987559410+987098829+988115146+992081645
1138+997323372+1000840060+1001703465+1001393141+1001264423+1001367028
1130+1001204527+1000509229+999841741+1000637210+1003822624+1008241738
1121+1011436446+1012497538+1012780717+1013919999+1016449948+1019607701
1113+1021925285+1022545933+1022041832+1021818991+1023146666+1026554847
1104+1031204767+1034830477+1035563542+1034038476+1032436548+1032074589
1095+1033182005+1035770892+1039217430+1041975678+1043168365+1043742911
1087+1044976093+1046341534+1046050241+1044071307+1043070038+1045360698
1078+1050146122+1054460343+1056302667+1056082040+1055465080+1055816638
1070+1057497050+1060133883+1063299013+1066612039+1069443092+1071096359
1061+1071369802+1070352083+1067753017+1063725884+1060277059+1059841115
1053+1062075272+1063804221+1063459301+1063133634+1064934577+1068488515
1044+1072025340+1073741823+1072618253+1069425389+1066406459+1064842003
1035+1064448990+1065048616+1066707710+1068418144+1068851359+1067908511
1027+1066104028+1063775158+1061826393+1061682554+1063771544+1066448209
1018+1066915060+1063962002+1059573057+1056941093+1057543521+1060783595
1010+1065163908+1068450158+1068044752+1063506953+1057737667+1054354050
1001+1054400300+1055649858+1055401348+1053801338+1053158782+1054317168
993+1055322347+1053877757+1049874081+1045130997+1041674796+1040423836
984+1040865534+1041603466+1041621760+1041030617+1039924160+1037140168
975+1031608402+1024507533+1018394656+1014294202+1011175470+1008128068
967+1005247961+1002428341+999204644+995822944+992970425+990622672+987997272
957+984536276+980570588+977161891+974909736+972741302+969202928+964923744
947+961881358+960632021+960259957+959982974+959275210+957718426+955728575
937+954290402+953749419+953842951+954422661+955289164+956007992+956420257
927+956803608+957315971+957624599+957362295+956759940+956196532+955448641
917+954541126+954702594+956627534+958517435+958354270+957309332+957856586
907+959735717+960503820+959174744+956826327+954215311+951202356+948092476
897+945615267+943954328+943046813+942932700+943001079+942303274+941127922
887+940725910+941467457+942607181+943233509+942611902+940704371+938829665
877+938637510+940019622+941167681+940958118+940220775+940418831+941807065
867+943219568+943347769+942031823+940167518+938468517+936824470+935133067
857+934189407+934679936+935667928+935416763+933448745+930660401+928065244
847+926614975+927460603+930903822+935096407+937256210+937045688+937059851
837+938926148+941154477+941857003+940947275+938905494+936467970+935347277
827+936566076+939172740+942107358+944933911+946119664+944356341+941598535
817+941215111+943982728+948002779+951057189+951930700+950964763+949913187
807+950010039+950271384+948721902+945177037+941761332+940572776+941518649
797+942735751+942865354+942379398+942776395+944947705+948314800+951434343
787+953473247+954655091+955324054+955426069+954985183+954230875+953171332
777+951863648+951114356+951729841+953002561+953231819+952210117+951822267
767+953393361+955408587+954972865+951527286+947428602+944678467+943387380
757+943704269+946827796+952697031+958251664+960322066+959278456+957589044
747+956367959+954760499+952117691+949433796+948033465+947935064+948672702
737+950755643+954068816+955915492+954002355+950621688+950295283+954137195
727+958776198+960343236+958210873+954635101+951991481+950699066+950093539
717+950029070+950478734+950567398+949147076+947000772+946447913+948004549
707+949425756+948656621+946096502+943091514+939950579+936287986+932427707
697+929652714+928775958+929298501+930219958+930877857+930677367+928623267
687+923962061+917479185+911588411+908486497+907771947+906749212+904292510
677+902417140+902369710+902229780+899042522+890566106+876734957+864609005
667+866068717+879310640+891542517+896188454+894640743+890444027+885074320
657+879495197+876597683+878476003+882555582+884110227+881904322+877805712
647+873130491+868923301+867875560+871352489+875676005+875769390+871698441
637+867969314+867066003+867267230+866717764+865626724+864575369+864298460
627+864655845+863858902+860332994+854681288+849612684+846740987+845548227
617+845729760+847054409+847277766+843285228+835252797+828772281+830264743
607+839753124+849630314+852489840+850132645+850241889+855966695
##END=
