##TITLE=<SNM>
##JCAMP-DX=4.24
##DATA TYPE=INFRARED SPECTRUM
##DATE=2/5/2025
##SAMPLING PROCEDURE=Instrument type and / or accessory
##ORIGIN=Admin
##XUNITS=1/CM
##YUNITS=ABSORBANCE
##RESOLUTION=4
##FIRSTX=4497.3318
##LASTX=599.83466
##DELTAX=-1.4281778
##MAXY=1.844681
##MINY=0.39247778
##XFACTOR=1
##YFACTOR=1.7179931e-09
##NPOINTS=2730
##FIRSTY=0.4091216
##XYDATA=(X++(Y..Y))
4497+238139261+236813035+236627142+237080129+237266004+237074318+236966384
4487+237278494+238045881+239039978+239860204+240170840+239789688+238745839
4477+237599608+237313397+238209083+239371691+239660937+238963408+237918466
4467+236979880+236432403+236788159+238273042+240108390+241088818+240909483
4457+240363238+240180485+240279381+240253309+240064346+240002659+240266753
4447+240791244+241203951+240958870+239999311+239192043+239510798+240778807
4437+241787909+241649721+240426798+238621755+236765070+235504798+235432859
4427+236405584+237393090+237534694+237044082+236528506+235967898+235118702
4417+234424312+234613275+235698878+237069253+238224193+238910742+238861788
4407+237925752+236500924+235481154+235405104+235894242+236292533+236544639
4397+236922443+237140879+236498062+234973350+233503680+232922949+233183590
4387+233796847+234428579+234829576+234844877+234725892+234840609+234999908
4377+234622972+233560648+232267642+231248877+230812717+231157978+232213710
4367+233455941+234244387+234431268+234429950+234600386+234825066+234777604
4357+234314070+233506039+232632470+232163195+232368325+232993500+233572080
4347+233839972+233622682+232756624+231474651+230410853+229904801+229783770
4337+229992630+230789819+232134034+233410734+233903636+233318256+232014096
4327+230781839+230073120+229584017+228972252+228604370+229040860+230082575
4317+230867968+230876399+230442893+230195245+230262777+230340753+230421729
4307+230893486+231751928+232340240+232231872+231847459+231811897+232175962
4297+232532152+232522333+232076060+231435758+231065327+231281091+231915026
4287+232473449+232549915+231990087+230860439+229526268+228606486+228451316
4277+228788528+229237178+229869066+230763763+231432775+231386215+230874994
4267+230388110+229957987+229511141+229234662+229205762+229257578+229319195
4257+229431240+229558308+229669851+229829844+230218230+231138896+232579943
4247+233760557+233818462+232934138+232082617+231840312+231992325+232094378
4237+231931922+231521627+231040780+230757709+230837853+231195032+231532382
4227+231542305+231171092+230712398+230548953+230877318+231733765+232992251
4217+234208981+234855250+234858824+234610620+234421293+234259913+233972140
4207+233572913+233352968+233642197+234393416+235104304+235186304+234396990
4197+233072776+231939468+231530422+231872994+232752686+233908927+234845536
4187+234965301+234232938+233400013+233251157+233746211+234161780+234040072
4177+233670751+233569443+233867346+234387362+235013942+235747762+236478599
4167+236918766+236904264+236567815+235924964+234693956+233032808+231903507
4157+231968542+232595330+232677781+232094326+231666111+231928453+232640953
4147+233365232+233883045+234086302+233992107+233854457+233867572+233884242
4137+233725672+233580979+233797506+234339276+234721764+234548639+233905562
4127+233076159+232138319+231131940+230328662+230006230+230214240+230942994
4117+232173221+233609654+234674978+235001227+234789973+234457844+234085400
4107+233537386+232959187+232738253+233056539+233775267+234599848+235213573
4097+235458082+235410082+235194283+234821805+234249036+233544706+233028680
4087+233129553+233929518+234992171+235787557+236024970+235545754+234390762
4077+233053226+232219816+232178564+232656323+233131444+233218215+232924059
4067+232606224+232599302+232922567+233354824+233668322+233804948+233863165
4057+233911859+233881605+233667923+233240437+232664667+232164183+232094344
4047+232644058+233559746+234323646+234681605+234818839+234876622+234620768
4037+233959165+233468326+233808296+234831363+235778727+236067193+235514356
4027+234300123+233087782+232659202+233179184+234208565+235341231+236385600
4017+237168426+237530618+237372637+236699116+235824714+235259526+235102413
4007+234943252+234637803+234644291+235292729+236269218+237091110+237625386
3997+237968131+238219231+238459021+238680909+238752136+238612735+238424049
3987+238449480+238848864+239495532+239982918+240025037+239821642+239759365
3977+239861575+239853855+239658387+239491959+239500840+239542612+239433967
3967+239324073+239684790+240858621+242589869+244115102+244831661+244646948
3957+243627854+241965353+240498459+240523352+242623175+245834015+248202824
3947+248649704+248157166+248251500+248748393+248208947+246422137+244796152
3937+244543663+246017913+249091433+252746621+254813415+253948693+251710006
3927+250860723+252088122+253487293+253436223+252953000+253956881+256345292
3917+257707704+255916262+251720102+247908547+246411867+247186644+249701117
3907+254385165+261561205+269390001+274467241+275221357+272554386+267479904
3897+261287362+256666544+256112545+259420217+262974947+263348155+262214465
3887+263242875+266263729+268202969+268711918+269582364+269393436+266039187
3878+262438955+262768950+266916503+272074927+276546855+279064034+278062755
3868+275290555+274249048+274790488+273695760+270027805+266648402+266479024
3858+270890029+280472676+293539070+301307793+295116240+281573718+270217843
3848+264420279+264337065+268826582+275980487+283922456+291457097+297030812
3838+297940117+293436652+286723504+280977375+276854229+274154853+273247041
3828+274054153+275712352+278708122+284925557+293129780+297280161+295231356
3818+291505322+288021628+283087450+277321181+273740794+274254738+278800513
3808+284853496+288872489+291254655+295100697+299512187+300263250+297705028
3798+295314553+293025107+289366242+285578331+283914945+284896257+287990299
3788+292771596+298254204+302717805+305986290+310224551+316525496+322474778
3778+325488849+327130932+331088378+339612396+352660489+367666105+380836564
3768+391186304+400606616+409495065+416995115+424044277+431786840+438433722
3758+441429995+442260508+445532809+454626336+468229156+478973509+482082539
3748+483350513+489284356+498404563+503308886+503715642+507381169+518647568
3738+536344286+555443766+568674905+571417632+566836521+562785193+564559705
3728+572073182+581281130+587360759+588307013+585413990+581217744+578104273
3718+577270499+578917717+583526895+590682812+596124273+594286861+586065619
3708+577206210+571762182+571208633+574526141+577812390+577302071+573627870
3698+569942047+568596045+571252591+579127583+591610400+604083087+608877984
3688+604042355+596145575+590350371+587267015+586684705+589727122+598106777
3678+611344890+622871878+623734588+617100474+612418403+609888353+603740653
3668+594110960+586213972+582198518+580839228+580064087+578989604+578350256
3658+578792436+579972286+582421811+588674356+599994566+611664078+613134147
3648+600887668+584411601+571810025+564356743+560971685+560729172+562898817
3638+566730322+570841567+573267396+573976860+576188417+582338267+588454811
3628+586770261+578247526+570717882+569595069+576391899+588032580+597225541
3618+599417391+598041066+597834635+599166690+600251027+600432548+599616745
3608+597320812+594378523+593402224+596001455+600532120+603694371+604908951
3598+606936835+610924117+614014551+614002824+613438972+616309512+622898385
3588+628837294+629487813+625245943+619754522+615780354+614564040+616121816
3578+619118783+621483550+622110129+622030402+623486385+628064928+635507420
3568+642946165+646363975+644904453+641151496+637506994+634637286+632215898
3558+629751490+626988363+624528880+623687751+625148799+628041752+630554872
3548+631210734+629799645+627465340+625580119+624672515+624355131+623558271
3538+621142712+617480100+614769986+614662294+616538703+618687879+619998909
3528+620241908+619892467+619579801+618884596+616481388+612378713+608694798
3518+607394245+608501342+610321754+610851606+609221180+606047203+602772612
3508+600883019+601186247+603228079+605478909+606346407+605384610+603369979
3498+601035119+598524220+596493352+596467678+598797889+601471296+602657496
3488+603043228+603984902+605164579+605342283+603931403+601080013+597462850
3478+594397813+593180666+593954905+595418313+595861359+594693825+592980133
3468+592512453+594211921+596911141+597841851+595323666+591090471+588699683
3458+589388644+590647563+589570789+586665346+584617685+584465516+584922163
3448+584703450+584046755+583964322+584844795+585723047+584722948+580848596
3438+575434543+571232850+570022815+571378289+573558447+575108763+575383716
3428+574320230+572503461+570808469+569457714+567938553+566030953+564343039
3418+563644572+564098721+565279474+566533119+567120807+566532911+565119464
3408+563798580+562788767+561608604+560541198+560516565+561125485+560615860
3398+558529481+556570083+556220052+557029367+557671767+557538680+556880632
3388+556168912+555630109+555073716+554256178+553422890+552915797+552533986
3378+552081190+551982033+552537976+553205079+553169829+552264584+551152006
3368+550904392+552078033+553877524+554740893+553851851+551626243+549083009
3358+547347736+547341526+549123740+551515499+552866115+552390872+550496283
3348+547911450+545206644+543071728+542150350+542525188+543915355+545985671
3338+548089571+549267132+548876820+547090651+544915940+543635927+543878475
3328+545204979+546585224+547124721+546626094+545664887+544791388+543903247
3318+542936281+542500000+543121722+544478549+545824412+546714842+547136621
3308+547291358+547291185+546926304+546009714+545037752+544948622+545930715
3298+547010230+547338473+547247608+547353461+547400090+546756579+545433684
3288+544096980+543634331+544589154+546374352+547540047+547429268+546927380
3278+547184534+548346968+549710213+550531532+550572125+550134872+549588436
3268+548825126+547546674+546112618+545461648+545927211+546571069+546087221
3258+544287105+542333952+541557944+542362610+544019022+545145478+544748783
3248+543356881+542693941+543784558+545744545+546748600+545979808+544179206
3238+542452850+541143451+539906459+538457380+536881910+535412153+534361261
3228+534065700+534350090+534469126+534128775+533783705+533531997+532913223
3218+532044720+531519343+531220035+530646746+529963545+529548635+529183651
3208+528490111+527587468+526958772+527125548+528271190+529808704+530644109
3198+530067003+528211446+525827146+523909833+523095314+523053438+522790177
3188+521674823+520013450+518632927+517951044+517517747+516603204+515148366
3178+513825609+513163780+512940071+512535673+511659849+510616452+509941196
3168+509734417+509425152+508428106+506856244+505252671+503872357+502503804
3158+500785497+498713273+497002460+496549976+497236335+497862810+497696347
3148+497297986+497336601+497487799+497071536+496023282+494629575+492976840
3138+491246703+489950834+489299968+488777437+487853492+486747054+485993840
3128+485627329+485245414+484691900+484292187+484427842+485038497+485586494
3118+485562416+485015494+484489875+484383225+484446195+484043185+482856084
3108+481170806+479531914+478358552+477809826+477687459+477493691+476903506
3098+476156606+475685873+475404953+474748779+473484829+472125262+471400011
3088+471508812+471926983+471930349+471381380+470779607+470393250+469879427
3078+469087147+468468512+468244664+467963640+467294594+466598591+466458738
3068+467044691+467885196+468115150+467250220+465704622+464287219+463459933
3058+463215997+463299888+463427528+463430963+463146330+462352211+461095235
3048+459757040+458577224+457537885+456780404+456536017+456614253+456558742
3038+456262348+455984654+455904441+455932613+455783947+455145051+453992574
3028+452737402+451893566+451597242+451431334+450791431+449599993+448490988
3018+448024488+448022476+447995553+447793701+447479856+446980847+446149571
3008+444948383+443613657+442696685+442526753+442689608+442588474+442219048
2998+441783010+441123158+440179437+439313119+438661109+437883435+436885695
2988+436121205+435935486+436057749+435877096+435074858+433928418+432908162
2978+432016344+430869349+429481436+428406015+427953566+427847228+427726527
2968+427462468+427012413+426462716+426016685+425549387+424646016+423384321
2958+422451529+422233336+422342138+422135186+421339610+420250763+419491407
2948+419380281+419542269+419388088+418837141+418290012+418098534+418252125
2938+418379627+417998371+416961669+415682628+414763331+414397167+414172695
2928+413529739+412403908+411239184+410364852+409624544+408706636+407610919
2918+406667406+406216796+406308632+406614150+406652730+406182518+405308914
2908+404246539+403202274+402462243+402268614+402501066+402703716+402534997
2898+402067248+401595023+401249156+400873381+400267410+399480126+398752863
2888+398218847+397863369+397707175+397730906+397693540+397356728+396794853
2878+396186175+395496209+394685992+393979719+393601203+393475436+393420411
2868+393399421+393394980+393233929+392738320+391968730+391184118+390553583
2858+389997259+389366863+388680123+388046327+387475154+386936975+386481299
2848+386105074+385663554+385128879+384763617+384781068+384971506+384926438
2838+384540220+384043085+383603126+383153938+382608161+381980575+381220388
2828+380182645+378944196+377939413+377533003+377578453+377598506+377305235
2818+376786554+376286435+375950421+375729210+375468135+375123967+374818483
2808+374576386+374170289+373450173+372685405+372246626+372025415+371560788
2798+370731559+369931264+369504662+369326229+369030599+368479687+367881349
2788+367447531+367044278+366377314+365501282+364844414+364649258+364657724
2778+364456045+363894899+363066676+362117404+361240816+360643761+360351809
2768+360204219+360097534+360018222+359845410+359405590+358701156+357890696
2758+357123708+356499938+356048877+355686842+355297363+354820559+354226314
2748+353514455+352725436+351857766+350914010+350088978+349669593+349675803
2738+349815136+349790919+349460872+348808861+348007352+347359262+346966938
2728+346620134+346135384+345596581+345127583+344633362+343937567+343082247
2718+342371672+342100085+342250416+342499590+342506737+342156672+341620158
2708+341229465+341100194+340878011+340173682+339182429+338447707+338100972
2698+337783415+337262028+336731031+336457536+336381451+336222100+335883032
2688+335545352+335348080+335193447+334936293+334595490+334305341+334125382
2678+333925785+333495957+332810848+332093924+331548876+331157766+330790596
2668+330389356+330006885+329737414+329612758+329537159+329355256+328998460
2658+328521204+328009740+327536926+327194943+327037674+326949412+326670920
2648+326024426+325121332+324333284+323977667+323994286+324041887+323903248
2638+323600089+323198988+322786819+322513635+322407124+322299328+322103479
2628+321938820+321873768+321778150+321500803+321034407+320485751+319997255
2618+319692118+319599553+319588521+319440445+319082295+318683519+318417795
2608+318233082+317956603+317508907+316934993+316351365+315904085+315689952
2598+315728462+316003138+316367324+316432653+315868766+314889727+314121802
2588+313909577+314034823+314138351+314099875+313922275+313522665+312837174
2578+312052943+311549182+311516985+311727962+311812303+311692851+311563649
2568+311504946+311355101+310989666+310531978+310194506+310036473+309972809
2558+309914176+309791497+309545861+309206272+308897562+308703170+308600232
2548+308543472+308507355+308449311+308338046+308211030+308110382+307988570
2538+307780439+307541915+307396338+307361748+307325665+307159514+306817532
2528+306382187+306030560+305895807+305969013+306144670+306294272+306311862
2518+306172564+305939730+305699056+305523225+305449777+305433262+305383164
2508+305259062+305071504+304870208+304778996+304875343+304997120+304872324
2498+304487321+304145929+304107210+304266943+304280404+303993829+303615799
2488+303390355+303283427+303125984+302900124+302754720+302838438+303142707
2478+303449474+303514318+303345669+303159360+303043689+302864805+302541662
2468+302240168+302190035+302389632+302603592+302636864+302508772+302337000
2458+302175325+302028255+301930625+301927156+301993630+302027596+301932360
2448+301710143+301464403+301309978+301277019+301283645+301208116+301018719
2438+300812912+300692558+300657516+300676633+300767636+300915400+300996688
2428+300892779+300638782+300395852+300291526+300323722+300418264+300529737
2418+300643396+300736620+300835776+301031140+301297280+301414478+301266229
2408+301089183+301187126+301505863+301726310+301686030+301503469+301361014
2398+301340093+301443031+301665977+301996059+302339741+302543501+302550613
2388+302447953+302280934+301909115+301078359+299558469+297231519+294146429
2378+290509108+286616750+282785124+279241374+276034628+273116677+270492640
2368+268226388+266402697+265128911+264444669+264281970+264691416+266065207
2358+268948498+273513823+279434084+286469125+294489209+302407916+308110070
2348+309956087+308124676+304755786+302259007+301090016+300199447+298985839
2338+297615204+296267710+294905610+293530118+292296665+291418621+291051589
2328+291164172+291444780+291507473+291305239+291184642+291478295+292229566
2318+293274317+294349738+295189063+295731232+296187150+296786772+297547030
2308+298328173+298982855+299414071+299601663+299627407+299624041+299671815
2298+299755394+299840118+299981809+300263666+300580252+300648218+300354045
2288+299942882+299730206+299753937+299807609+299696622+299378509+298929391
2278+298448701+298010407+297668946+297459669+297388928+297441073+297547654
2268+297555738+297346253+297007255+296773970+296773797+296908550+296983038
2258+296909486+296781568+296733308+296760613+296767240+296731157+296696151
2248+296665342+296633874+296651118+296734176+296797181+296763770+296690773
2238+296713359+296892278+297147316+297335082+297377791+297317145+297249317
2228+297218960+297184231+297094893+296985328+296941370+296991538+297092221
2218+297193113+297245466+297198143+297077060+297000039+297015929+296997888
2208+296802628+296494369+296319440+296450688+296791421+297057666+297060962
2198+296876804+296716343+296692439+296758150+296828440+296892070+296990879
2188+297115814+297171290+297077927+296881904+296722519+296718945+296904282
2178+297195645+297421922+297474900+297422720+297383029+297348405+297253724
2168+297131946+297080738+297138504+297278357+297466782+297665684+297822503
2158+297903132+297930367+297964888+298035734+298104811+298124170+298116017
2148+298146617+298225547+298305830+298392010+298534118+298691388+298753560
2138+298734582+298772781+298902087+299012796+299066087+299161600+299348985
2128+299518432+299552293+299518536+299627164+299983683+300467287+300891530
2118+301193232+301419925+301614768+301760588+301810895+301795664+301872894
2108+302175880+302631312+303033004+303260633+303356494+303455407+303684598
2098+304047605+304387714+304553171+304595429+304700587+304933560+305169238
2088+305293236+305348990+305430452+305535229+305597054+305599518+305607046
2078+305718276+305995450+306387426+306714594+306792934+306641424+306550316
2068+306833318+307442447+307941559+307982638+307699462+307486786+307535532
2058+307727808+307864469+307857113+307757853+307704181+307830399+308165997
2048+308588783+308936385+309205891+309532191+309906786+310101421+309989220
2038+309753402+309647480+309704969+309798991+309875075+309998310+310205400
2028+310447359+310697297+310949178+311113490+311179270+311448082+312186794
2018+313023865+313195081+312526972+311685461+311333209+311509457+311878188
2008+312170765+312286957+312251152+312190784+312226797+312350656+312470143
1998+312606041+313046728+314142410+315727873+316941515+317041747+316224453
1988+315182061+314300478+313691696+313475967+313647843+313995966+314322509
1978+314541187+314609396+314548785+314481548+314634376+315321532+316635997
1968+317986683+318399129+317671866+316716627+316376900+316537535+316709063
1958+316858457+317182953+317555744+317690636+317562163+317386366+317424287
1948+317989042+319454427+321862423+324284747+325083099+323654559+321360534
1938+319870273+319518854+319694234+319928005+320170449+320457163+320714630
1928+321002419+321843202+323684257+325882005+327280847+327975289+328819818
1918+329309598+328138942+325808419+324343450+324773903+326316795+327456469
1908+327354954+326375428+325370229+324748957+324467933+324559804+325250429
1898+326616970+328216900+329258875+329650817+330395601+331978843+333134581
1888+332532946+330829245+329500140+329020941+329122145+329553777+330088417
1878+330519356+330836670+331233608+332324780+335196570+340225584+345381025
1868+346970304+343922475+339250639+336099039+335127216+335301728+335524639
1858+335398074+335134120+335095054+335384786+336012858+337258836+339533189
1848+343156597+348098460+352800793+353953651+350498580+345843501+343313450
1838+343121174+343662614+344119712+345603659+349464446+354654338+357891771
1828+357877338+356651414+355375425+353090594+349856422+347486868+346983939
1818+347538146+348037745+348627132+350289234+353094237+355489917+355889942
1808+354640842+353612710+354497138+357795113+362371540+365814294+366427690
1798+365180602+364820232+367422585+372575147+376491236+375081709+369835091
1788+365743934+365159335+366870945+368914269+370712962+372122039+372599953
1778+372717463+374643519+380109128+388166959+394389355+394596237+390001353
1768+384273941+379717810+378044363+380030233+383650033+385555446+385601139
1758+385873489+386498959+387081303+389553831+395797876+403773030+408323679
1748+407351301+403800612+401043210+400381242+401545723+403203766+403874719
1738+404498975+408400527+416506514+422960530+421014732+413723160+406556627
1728+401209396+398371988+398293405+399965881+403021690+409334811+420527658
1718+433494912+439713770+435317441+426246674+418785759+415467488+416819422
1708+422178519+429142507+434633616+438930163+445545959+455047664+461841927
1698+462044403+457823073+450383738+441742487+436616918+437057536+441340102
1688+447941117+458150692+471463849+478817766+473251336+462871516+456373370
1678+456079613+460689693+466458669+470377326+473845372+478460622+480728453
1668+476935424+471248813+469789222+472898425+475865173+475133782+473154573
1658+474796344+483328551+499630383+517652881+521983672+514472832+511418585
1648+515511789+518117647+511882518+502090247+496427020+496878046+503114806
1638+514251656+525982265+529018610+520991726+511751269+508309902+510538875
1628+515149719+519675457+523949315+527175646+527354253+525984346+527692002
1618+533800497+538957603+537190932+531697985+528685787+529628849+532439576
1608+534665670+535691651+536459853+537675300+538979322+539833427+540571896
1598+541970529+544074776+546081601+547396517+548309151+549393766+550704553
1588+551866467+552698055+553450021+554452271+555959636+558785629+564498816
1578+573442117+581330292+581719840+577294368+576409073+581052356+585899225
1568+585756215+582853409+581707073+584239448+592233719+608290886+628906682
1558+636774943+626933129+614825150+607487920+604644996+604850803+606499895
1548+609415607+615686263+626980244+642190175+658455717+670605469+670040090
1538+658946434+650608481+650405033+654534770+656665420+656460098+658975577
1528+666485515+676585039+686487291+696574533+706837675+713721796+715659059
1518+715542417+714585547+712441991+711336560+714659862+723892999+738537759
1508+754828767+761309740+750656494+735920973+728527608+729275063+735050631
1498+741196665+743126434+740763471+739243720+742872610+751139995+758637928
1488+759835369+755554989+750583983+748090570+748505722+750868546+754671046
1478+760409768+768368859+777518799+784884894+786111825+780850705+775296557
1468+774745264+779064293+783863909+785211784+785151416+788926924+798756526
1458+810420210+813535276+805277536+794959230+788695374+787138084+788832486
1448+790757606+790110279+787331262+785047125+784779631+786787532+791423599
1438+797987630+802391175+800952470+796914256+795112787+795518711+795297153
1428+793906256+793498737+794790824+796487793+798554397+802525650+807271975
1418+807874755+802858993+796772218+793229300+792088828+791576601+790978886
1408+791227159+792876390+794599172+795084685+795540083+797996165+802424967
1398+807127161+810625739+811605299+809101061+804926915+802876688+804620425
1388+808068974+809501642+808046561+806794859+808709154+813735254+819781438
1378+825367782+830654854+835819870+839710286+841382484+841949112+843116854
1368+845159241+847476754+849965171+852638232+854653973+854990578+853790153
1358+852030525+850384209+849004970+847821407+846694882+845575851+844704121
1348+844539739+845198376+846146850+847025450+848407672+850809076+853169888
1338+853634931+852085204+850283388+849552447+849673877+849824659+849772270
1328+849974400+850799154+852105396+853764757+856044314+858970158+861805796
1318+863763806+864933422+866056616+867664144+869619379+871371790+872642297
1308+873752655+875246871+877336026+879667277+881590524+882832720+883758365
1298+884607475+884916046+884194612+882655432+880840710+879010791+877085741
1288+874863845+872397979+870246097+868903981+868045158+867006062+865916729
1278+865397424+865242410+864613332+863546619+862950362+863015726+862904843
1268+862237047+861787963+862353134+863662637+864841135+865640631+866690760
1258+868478212+870512203+871833502+872131249+872037297+872386669+873347286
1248+874487065+875616851+877002613+878739065+880595976+882447127+884352957
1238+886428650+888873769+891671313+894162367+895651309+896529007+898012606
1228+900543975+903025592+904260988+904730750+905930133+908525756+912211753
1218+916479851+920326899+922311068+922376502+922318701+923499905+925616121
1208+927792497+929489467+930503305+931210237+932595027+935257402+938639337
1198+941555744+943431320+944988125+947476056+951029312+954317712+956226317
1188+957143150+957969777+958851569+959840288+961840417+965432184+969474769
1178+972296530+973638229+974171759+974174881+974010291+974772040+977112799
1168+980189216+982610950+983925241+984545784+984925479+985546577+986748112
1158+987827731+987498551+985851194+984482849+984365166+985155225+986397907
1148+988229352+990986998+994581401+998119461+1000483742+1001350546+1001154800
1138+1000767334+1001693256+1005165605+1010428113+1015024350+1017161314
1130+1017155693+1016813121+1017908699+1020599315+1023220403+1024077562
1121+1023412957+1023009531+1023840738+1024859295+1024165061+1021811327
1113+1020413145+1022382813+1027652398+1033547383+1036516595+1035356347
1104+1032562550+1031680550+1033781917+1036965956+1039233093+1040309450
1095+1040395145+1039898391+1039830460+1040690116+1041794993+1042372862
1087+1042808969+1044092521+1045794140+1045931044+1043787072+1041428412
1078+1041355138+1043923005+1047559874+1050276303+1050559686+1048528471
1070+1045631771+1043556286+1043628658+1045916889+1049936784+1055102356
1061+1059741683+1062027000+1062654343+1064365746+1067699803+1069345286
1053+1066554612+1061445453+1058361334+1058762609+1061085048+1064055856
1044+1067671145+1071427571+1073741823+1073388426+1070596295+1067022847
1035+1065261901+1067229903+1071482250+1073000752+1067963341+1058759001
1027+1051807087+1050554482+1052601379+1053424745+1052202047+1052342351
1018+1056035911+1060932324+1063082541+1061660766+1058763580+1055898383
1010+1053440635+1052496116+1054320414+1057835923+1060181816+1060264180
1001+1059623445+1059646274+1060266539+1061332697+1063261841+1065750397
993+1066824048+1064261801+1058294235+1051923937+1048035326+1047264001
984+1048309966+1049155328+1048529096+1046921221+1045667992+1044745955
975+1042849284+1039868763+1037444322+1036481484+1035657494+1033599911
967+1030985206+1028904239+1027136771+1025510785+1024941867+1025386094
958+1024517625+1020629013+1015286778+1011105832+1008669803+1006758006
950+1004270283+1001077987+997594744+994123089+990627564+987208714+984710236
940+984141942+985192348+985977481+984823756+982158536+980138839+980506808
930+982967192+985212679+984854703+981970701+978993995+977569376+976579893
920+974052410+970151170+966926053+965841924+966839178+968899953+970616491
910+970981614+969831774+967389500+964544356+963342058+965066089+967776134
900+968154857+965715498+962829345+961350672+961259148+961561197+960801113
890+957883805+953676491+950997602+952289411+956899387+960718749+960171411
880+956487496+953683985+953707438+955405726+956819937+957268605+957201991
870+956771643+955542006+953702789+952511941+953053797+955281451+958027162
860+959309604+957555874+953406430+949489300+947837571+948312190+949244913
850+948943211+947330132+946219288+947006017+948778135+949668531+949208137
840+948297618+947919103+948426820+949321587+950090275+950939454+952234941
830+952540737+949583183+944543552+941681060+943045450+946096679+947278021
820+946658796+947333810+951137975+956763941+961488686+963231314+961657856
810+958519266+956065058+955031097+954894540+955586970+957748289+960985549
800+962930722+961362329+957354855+954544821+954882536+956803909+958038472
790+958469168+959238550+960787513+962732617+964355896+964710750+963464460
780+961650015+960740260+961165682+961865952+961459473+959874219+958145192
770+957230233+958161429+961850409+967342593+971786037+973320360+972736107
760+971228568+968584790+965083159+963268090+965355995+969637486+971913920
750+970819869+968691440+966913841+964202131+959691450+955038452+952613387
740+953267028+956329429+960857318+966464202+971775421+973968519+972074555
730+968287737+965205769+963090246+960641936+957862572+956244983+956378903
720+957094855+957428546+957901638+958570961+958440024+958206948+960508848
710+965404706+968858598+968124118+964717203+961084011+957580021+953842538
700+950435623+947736195+944989096+942260941+940384393+938323827+934340292
690+929084168+925100632+923887787+924192265+923423230+921158036+920077099
680+922437494+926899812+930044577+930534322+929139609+925646999+918347586
670+907267323+899475042+904559290+917959773+927678908+929206084+924059455
660+914600458+902930252+892915591+889878170+895934207+905982591+910848612
650+907341846+900966622+896296485+892395661+888088844+885615345+887315576
640+892391637+897581841+899000285+894709358+887562323+883551448+885184719
630+888287087+887721708+884824245+884138962+886142214+888245801+888710289
620+886126879+880357417+874789252+873115944+874995614+877546898+879553827
610+881059145+883045188+887463721+893554799+897277086+895099808+887701447
600+878757175
##END=
