##TITLE=<SNM>
##JCAMP-DX=4.24
##DATA TYPE=INFRARED SPECTRUM
##DATE=2/5/2025
##SAMPLING PROCEDURE=Instrument type and / or accessory
##ORIGIN=Admin
##XUNITS=1/CM
##YUNITS=ABSORBANCE
##RESOLUTION=4
##FIRSTX=4497.3318
##LASTX=599.83466
##DELTAX=-1.4281778
##MAXY=1.8569726
##MINY=0.38070381
##XFACTOR=1
##YFACTOR=1.7294405e-09
##NPOINTS=2730
##FIRSTY=0.40499765
##XYDATA=(X++(Y..Y))
4497+234178424+234534634+235396062+236236863+236490850+235890217+234438771
4487+232487552+230783324+230088567+230644655+231927862+232957633+233092218
4477+232555499+232146885+232573369+233947511+235637918+236647027+236369414
4467+234989068+233218341+231787143+231097746+231149753+231610804+232032928
4457+232192258+232185072+232032583+231532242+230881652+230837123+231790193
4447+233276276+234551074+234997288+234209822+232586086+231282097+230959111
4437+231281218+231728105+232001996+231726192+230775277+229980624+230577087
4427+232621809+234529620+234681281+233259010+231855607+231470292+231596588
4417+231238792+230211365+229178630+228797916+229226002+230217155+231241894
4407+231680423+231393901+231013617+231228487+231913266+232249366+231623591
4397+230213399+228668777+227490308+226941303+227220639+228236090+229442871
4387+230395958+231176928+231790572+231640978+230314535+228470622+227237820
4377+227024225+227371853+227637610+227465838+226855624+226054009+225340590
4367+224942368+225112985+225871725+226588505+226419301+225383223+224368100
4357+223943477+223863140+223776720+223782493+224105565+224683779+225282086
4347+225766401+226084424+226200484+226203741+226217010+226110945+225653977
4337+224921585+224094639+223022546+221590710+220351170+220131199+221094074
4327+222653222+224153350+225199371+225458425+224830857+223943822+223731485
4317+224308786+224905887+225001905+224862754+224901872+225201060+225685892
4307+226186802+226334552+225838794+224880951+223986437+223608187+223883888
4297+224524569+224900648+224492396+223386373+222245729+221683799+221733808
4287+222037355+222400027+222865370+223313463+223419510+223161680+223015808
4277+223415702+224235410+225008592+225468333+225628853+225562732+225496388
4267+225825457+226505617+226770134+226025714+224686502+223704499+223648201
4257+224349006+225188153+225752150+226121887+226413924+226536980+226607667
4247+226929499+227375093+227568130+227599544+227822031+228145241+228138882
4237+227669473+227024897+226507909+226100002+225540003+224730496+223939565
4227+223563849+223838549+224717572+225882289+226938270+227657152+228005142
4217+227995061+227634905+227029860+226431708+226012565+225566920+224751554
4207+223783182+223503880+224467703+226219354+227679433+228117876+227665027
4197+226972373+226468447+226024869+225385618+224700477+224358036+224470425
4187+224869802+225447913+226139344+226713388+226924743+226805202+226616042
4177+226573944+226727363+227028378+227438077+227949189+228492869+228889351
4167+229025349+229048130+229197569+229447938+229536167+229344612+229015750
4157+228651924+228115601+227238113+226144083+225308228+225260477+226151493
4147+227587085+228901172+229551125+229337013+228475844+227489257+226824864
4137+226577166+226662328+227077180+227761028+228422596+228792264+228950198
4127+229128588+229199292+228706774+227614760+226696638+226716800+227441816
4117+227988944+227979914+227778450+227756479+227918119+228146706+228284513
4107+228002075+227078197+225935072+225452669+225970122+226825932+227254311
4097+227403440+227915292+228774584+229256348+228910340+228048378+227276731
4087+226913662+226893759+227005252+227120002+227265857+227493410+227658910
4077+227484294+226924398+226305912+225992042+226052217+226275996+226301035
4067+225864557+225236214+225155515+225949753+226936047+227161963+226668808
4057+226484249+227249521+228330885+228654147+228049308+227208783+226699447
4047+226593278+226768566+227041767+227085538+226589022+225600195+224617727
4037+224264378+224816916+226096849+227734956+229281439+230160702+230001923
4027+229189918+228696590+229058797+229772164+230005111+229685985+229485228
4017+229869372+230531042+230767488+230300232+229643249+229498704+229868183
4007+230105972+229817037+229329672+229275407+229911660+230803176+231225523
3997+231026645+230803400+231049305+231567654+231905857+231901945+231704927
3987+231638083+231985039+232635147+233060062+232810986+232004632+231332795
3977+231523609+232578418+233604932+233728022+233095699+232610487+232790669
3967+233343086+233882080+234578077+235698007+236815611+237098635+236353526
3957+235264665+234608561+234624432+235198597+236305741+237799578+238937999
3947+239090971+238925247+239554573+240727510+241184529+240599715+239801926
3937+239551626+240359427+242522638+245194135+246289319+244733049+242130188
3927+240945103+241851231+243333937+243786010+243627042+244409270+246382408
3917+247875816+247166015+244464586+241419147+239270876+238334746+239076582
3907+242705301+249786177+258280984+264112721+264993983+261948562+256801587
3897+251263764+247491500+247078371+249496587+251954437+252283299+252068584
3887+253762524+256556784+257891171+258234370+259640306+260615881+258427855
3878+255060913+254582043+257590673+262012804+266466126+269577564+269040501
3868+265882156+264177480+264902824+264711045+261366488+257210148+255571938
3858+258056015+265445764+276988439+285350764+281619099+270654620+261347911
3848+257078631+257759102+261843531+267432033+273332907+279113705+283599044
3838+284509222+281450929+276933778+272878093+269369415+266462748+264866912
3828+264716870+265588551+268254016+274134383+281384911+284418287+282182752
3818+279178774+276561129+272254248+267055300+264039570+264712131+268722633
3808+274166108+278518517+281899331+286333921+290584763+290670408+287146461
3798+283861579+281576035+279215600+277163089+276662145+278111782+281197441
3788+285448403+290065139+294108709+297778545+302493660+308527843+313830823
3778+317058924+320148581+325832465+335239915+348017770+362224533+374846470
3768+384833857+393523855+401573499+409152597+417359193+426010315+431881376
3758+432651352+431262390+433084056+441337628+454447620+465572411+470539877
3748+474111006+481209355+490205296+495314929+496363862+499344783+508330488
3738+523711531+541673843+554650250+558429856+556949149+555835663+557317921
3728+561694490+568184916+573875658+575738751+574332109+572918987+573538387
3718+575348266+576716204+577868014+580273168+583257259+582886281+576811878
3708+567943008+561180276+559176292+560989962+563350829+564045740+563756961
3698+563843122+564962019+567916815+573750827+582465261+591429804+595366224
3688+591510176+583935111+577953349+575496912+576072783+578681244+583413384
3678+590819710+598184265+600100709+597947355+598023522+599983667+597169555
3668+587972099+578456947+573278420+572087285+571731782+570719071+570263723
3658+570161053+568005079+564818646+565844453+573885825+585234292+590370842
3648+584091650+572691658+563381743+558184743+555824462+554058319+551951836
3638+550711865+551666951+554309498+557771339+563098030+571060892+577212668
3628+575071273+567552903+562475701+562906579+567692622+573945794+578334735
3618+579475310+579487649+580855483+583532701+586015607+587599053+587905307
3608+585648144+580675578+575909696+574919697+578904161+585785245+591857994
3598+595281234+597094560+598656225+600062591+601691255+604621168+608648368
3588+611007476+609234474+605388352+603362793+604461252+607268126+609895232
3578+611641420+612392268+611907212+611028224+612370762+618022077+626381834
3568+631911833+630332178+623954003+617749392+613725776+611319727+609658459
3558+608519746+608350110+609721323+612264749+614644536+616366806+618309995
3548+620523731+621305459+619642676+616836973+614643089+613614042+613223488
3538+612672811+611649278+610284407+608720813+607310655+606497357+606075647
3528+605258006+603766719+602026183+600514285+599664937+599812446+600504428
3518+600504084+598937939+596340059+594490201+594795696+596403888+597006537
3508+596235286+596028843+597168315+597870016+596420775+593256158+589695817
3498+586385551+583330187+580802615+580130898+582698104+587494281+590998100
3488+590871545+588635820+587201537+587152391+586758804+584713944+581583585
3478+578605766+576550395+576059031+577521472+579743446+580154265+577618697
3468+573869110+571258064+570460069+570747918+571063615+570476612+568747897
3458+566795817+565934992+566537331+567701825+568318329+568250675+568209524
3448+568878174+570305495+571628767+571241694+568150279+563718326+560888912
3438+560959220+562163037+562125884+560761978+559506464+558895164+558439954
3428+557915504+557403842+556757043+556077640+556033008+556791369+557319610
3418+556687700+555391138+554321664+553057326+550367425+546542705+544011963
3408+544831085+548230476+551341811+552122712+550850069+549047048+548006731
3398+548101406+548806381+549362986+549405447+548726458+546951319+544266243
3388+541940910+541192923+541788404+542358346+541978683+540859304+539555091
3378+538292994+537347076+537221142+537747831+537860703+537078286+536270847
3368+536227800+536578410+536719267+536791574+537178612+537679109+537710885
3358+536947044+535406679+533492751+532223726+532593842+534269723+535744984
3348+536312962+536730847+537395120+537500237+536855023+536710651+537528636
3338+537813107+536517648+534850763+534142962+533794972+532789257+531611150
3328+531258646+531541635+531601225+531315409+531220424+531451717+531521439
3318+531057647+530257687+529537547+529219955+529590830+530545812+531274499
3308+531037796+530116072+529433119+529529862+530168596+530621945+530459168
3298+530194962+530669403+531871324+533065044+533702916+533703158+533348792
3288+533074487+533058840+533167852+533531386+534542063+535827906+536153391
3278+534975215+533275106+532363446+532661876+533829264+535119760+535482053
3268+534413096+532898235+532479902+533408726+534420334+534079409+531885317
3258+528580118+525806744+525039973+526431865+528667969+530061101+529869959
3248+528640569+527349349+526569551+526508066+527147869+528020687+528377810
3238+527877417+526771583+525405023+523986663+522744280+521804910+521086597
3228+520674778+520998608+522081627+522927494+522428514+520790028+519303117
3218+518637638+518286374+517722601+517080110+516604842+516163073+515438212
3208+514339994+513111707+511933910+510617186+509115628+508082342+508159922
3198+508839359+508820472+507553964+505818907+504761703+504747021+505200645
3188+505464714+505592750+505973930+506384956+506083907+504811125+502961095
3178+500860816+498727727+497114986+496462569+496435721+496415042+496197811
3168+495680530+494596237+493038880+491489830+490145982+488922520+487898436
3158+487078004+486149628+485038280+484228532+484215366+484955702+485827073
3148+486028830+485284943+483976974+482424236+480615149+478765739+477368609
3138+476560067+476145802+476075597+476197809+475950111+475024837+473933168
3128+473352093+473276133+473127211+472457665+471386020+470344324+469453757
3118+468473167+467461662+466870834+466742453+466577436+466218038+466062223
3108+466283108+466517640+466259361+465133951+463215301+461342145+460493934
3098+460686627+460986952+460622901+459663749+458678472+458096915+457877030
3088+457676652+457393800+457361403+457843530+458584487+458991446+458544577
3078+457135453+455355007+454146157+453716762+453276234+452302709+451312332
3068+450811663+450352869+449322340+448060381+447557851+448249833+449381103
3058+449652995+448633839+447206380+446339662+446032926+445792914+445401257
3048+444804432+443868164+442689195+441744242+441370197+441353206+441270491
3038+441002286+440676595+440418420+440399671+440707303+440932220+440391400
3028+438931751+437065384+435361449+434125442+433470750+433293291+433229256
3018+432831878+431911498+430770751+429935155+429533021+429196611+428622222
3008+427872684+427170569+426692406+426415309+426061908+425452883+424866707
2998+424751457+425091176+425246784+424568587+423212126+422033881+421503056
2988+421191805+420536425+419510031+418347951+417255764+416484617+416154342
2978+416035714+415771335+415159104+414254234+413408539+413001132+412979970
2968+412936545+412623226+412045701+411193941+410134496+409218528+408775656
2958+408700489+408595785+408236318+407737959+407298603+406868725+406205210
2948+405303407+404527986+404107654+403808673+403407125+403076298+402913625
2938+402567634+401771775+400784534+399925122+399134260+398290392+397558776
2928+397126244+396837429+396350064+395566337+394769341+394336016+394332432
2918+394373272+393974171+393117551+392280162+391827641+391655765+391501157
2908+391312394+391210447+391253252+391262454+390844983+389771374+388370763
2898+387309664+386918524+386864828+386520836+385659942+384740389+384365723
2888+384563895+384823173+384724777+384258504+383603916+382918206+382339888
2878+381968979+381782491+381624505+381292368+380673693+379855570+379058780
2868+378420494+377901318+377448038+377122726+376956503+376813853+376539893
2858+376148685+375778499+375503540+375165441+374443750+373299074+372241870
2848+371805305+371870581+371895362+371621574+371171982+370665799+370092203
2838+369451642+368812529+368244206+367767697+367400820+367207784+367197375
2828+367200408+366994068+366525865+365910119+365262527+364625998+364021901
2818+363488663+363033971+362594373+362107318+361592726+361084509+360544723
2808+359953550+359379334+358844545+358266607+357627356+357049383+356653935
2798+356462104+356401377+356303291+356007205+355564437+355191356+354960822
2788+354699510+354181989+353292661+352121723+351032363+350408276+350203108
2778+349999146+349594082+349209318+349019177+348817799+348334846+347663335
2768+347146468+346913005+346747919+346424812+345918767+345244741+344381848
2758+343434103+342604193+341963047+341421882+340912080+340490818+340318426
2748+340513324+340917905+341114216+340822713+340156786+339391567+338662225
2738+337988543+337429422+337042522+336716107+336215369+335487440+334749895
2728+334174990+333715300+333310477+332951011+332492182+331764046+330906358
2718+330304535+330165298+330288199+330247910+329785910+329044816+328367895
2708+327936431+327726024+327688182+327790715+327948701+328002535+327739293
2698+327012777+325936410+324857424+324061083+323563550+323218111+322938878
2688+322740016+322580927+322308449+321828425+321233633+320696019+320321663
2678+320121940+320022578+319908293+319735350+319560372+319408486+319191462
2668+318846746+318492794+318286557+318161416+317913890+317537467+317197093
2658+316870058+316331168+315536136+314738830+314196769+313979676+314029546
2648+314172540+314098924+313588226+312799639+312155632+311905418+311930819
2638+311953841+311815327+311576625+311401165+311324964+311203407+310923450
2628+310543890+310196693+309958163+309790354+309554960+309189255+308837267
2618+308629962+308458535+308163861+307754662+307282255+306754738+306275127
2608+306013092+305977766+305984521+305854244+305582180+305330036+305213856
2598+305088921+304708362+304112295+303632029+303470252+303470907+303336770
2588+302958245+302507653+302254269+302301244+302504448+302625281+302534846
2578+302276223+301953633+301597337+301179866+300712973+300236946+299769467
2568+299348826+299037437+298815967+298581745+298304890+298099963+298095482
2558+298262050+298417072+298429376+298333909+298165446+297840616+297345220
2548+296846585+296470403+296152500+295823811+295575975+295538615+295669926
2538+295748574+295605167+295327278+295153645+295178046+295270859+295291228
2528+295253248+295245734+295291331+295360915+295439943+295481542+295392623
2518+295168602+294915976+294662971+294340140+294017550+293915983+294088272
2508+294288098+294252462+293985705+293686896+293482693+293331289+293160034
2498+292984299+292863190+292831896+292898688+293013800+293041993+292871565
2488+292545666+292192231+291858647+291527062+291258065+291200096+291431905
2478+291831661+292113789+292048617+291700730+291373798+291264717+291288084
2468+291291634+291280054+291328718+291413122+291427873+291301663+291036836
2458+290689811+290365567+290183456+290162088+290157780+290016233+289773774
2448+289603243+289582564+289635467+289676722+289688302+289662557+289577980
2438+289443740+289305606+289213516+289207174+289296024+289440914+289601864
2428+289774774+289902879+289820474+289444464+288996888+288845485+289072883
2418+289379739+289515358+289623232+289961848+290441631+290705562+290599824
2408+290337272+290209270+290279612+290390382+290410303+290385006+290390554
2398+290385178+290346853+290405167+290669512+291041282+291319826+291408779
2388+291345089+291154189+290703563+289731624+288042888+285616970+282524780
2378+278894303+275008132+271227269+267674424+264139242+260434631+256723300
2368+253392339+250741348+248828385+247529583+246867620+247290278+249339876
2358+253053620+258023205+264111773+271692852+280581901+288974262+294400488
2348+295591312+293291517+289857075+287541702+286693698+286297837+285629515
2338+284661263+283564631+282293160+280717520+279067608+277889467+277454523
2328+277478458+277476459+277231829+276982684+277207618+278139440+279500451
2318+280746642+281542708+282017752+282558934+283368079+284330764+285286970
2308+286192530+287005897+287634550+288022640+288188846+288186003+288075853
2298+287957260+287987555+288274008+288714674+289066007+289194629+289157304
2288+289072021+289023443+289026424+289011501+288893684+288651535+288324775
2278+288003374+287794087+287694708+287562140+287301639+286994868+286746585
2268+286514413+286218241+285938594+285834476+285883623+285892291+285772819
2258+285626241+285566306+285635046+285826842+286045366+286143642+286115312
2248+286125513+286289996+286532438+286680361+286623907+286389703+286105317
2238+285895289+285816296+285877764+286062374+286304041+286487944+286513862
2228+286375762+286179382+286069112+286121136+286288032+286446414+286516326
2218+286518876+286495785+286433197+286321376+286215260+286163045+286127978
2208+286041385+285905318+285806491+285829841+285951070+286036146+285984691
2198+285849934+285766219+285780074+285812091+285782883+285724241+285740077
2188+285873215+286045383+286149432+286170404+286159840+286118086+286009919
2178+285908679+285982295+286264165+286555702+286652272+286578431+286509691
2168+286537298+286609070+286660767+286700643+286764730+286850909+286919356
2158+286945446+286960559+287020424+287114495+287136725+286991904+286727577
2148+286514172+286493700+286691613+287040706+287399191+287594830+287598173
2138+287597914+287743717+287907735+287893742+287766050+287752868+287924002
2128+288158862+288366580+288573351+288801904+288997939+289141037+289328318
2118+289619372+289877823+289935965+289864003+289897399+290140582+290494500
2108+290823638+291062995+291196753+291253964+291331199+291532163+291858854
2098+292213737+292517991+292769515+292991950+293192017+293353967+293428583
2088+293383055+293293344+293300409+293448400+293650122+293820378+293952412
2078+294066387+294175640+294291958+294388907+294405209+294389321+294578050
2068+295157126+295945471+296502662+296598164+296407608+296217880+296157153
2058+296234354+296417534+296623081+296788615+296963076+297208878+297470120
2048+297659228+297824004+298114886+298565236+298957686+299002386+298685346
2038+298329119+298238752+298398806+298578092+298635751+298653156+298795426
2028+299094545+299413309+299611791+299682237+299756474+300047632+300652005
2018+301305524+301551430+301292979+300935580+300878300+301116554+301378969
2008+301457376+301363494+301246280+301217088+301315209+301561356+301857959
1998+301996542+302074225+302617182+303826238+304997521+305251353+304605933
1988+303766200+303227173+303062707+303197257+303499444+303796564+303983156
1978+304048501+304012726+303913606+303828099+303913813+304422133+305436153
1968+306482467+306790719+306243730+305610406+305535273+305841320+306075990
1958+306211471+306444969+306708831+306756082+306560943+306405679+306582380
1948+307183961+308301789+310074067+312053995+312982302+312134126+310414372
1938+309174711+308771198+308798632+308925325+309095201+309347862+309684410
1928+310114150+310885987+312265781+313858705+314932521+315619403+316528961
1918+317181171+316478780+314751685+313556518+313725189+314752719+315610787
1908+315702291+315217028+314737899+314598559+314720529+314953924+315385698
1898+316221432+317301211+318039721+318345147+319030064+320421404+321357706
1888+320772496+319409038+318576095+318456020+318520917+318536461+318598359
1878+318794567+319126979+319651704+320869790+323743249+328522331+333262916
1868+334680346+331981553+327906895+325135899+324146659+324112401+324310125
1858+324499405+324645432+324756684+324911740+325363159+326495497+328602393
1848+331876470+336237116+340261456+341100740+337975929+333861671+331576214
1838+331359327+331946744+332581859+334017383+337352738+341836699+344776503
1828+344983946+344118055+343221422+341495947+338894138+336894220+336412024
1818+336881985+337401472+337992093+339395806+341733305+343804978+344268046
1808+343313270+342426562+342997884+345523284+349242577+352272369+353099073
1798+352350638+352322377+354863287+359587260+363070331+361766359+357162496
1788+353678976+353252372+354728116+356449628+358031730+359410077+360111192
1778+360522873+362345917+366971183+373635932+378816735+379285903+376027334
1768+371760363+368140639+366672581+368301728+371510701+373373725+373484012
1758+373493076+373709894+374090591+376337792+381903945+388932227+393051069
1748+392498221+389667118+387295430+386538378+387423190+388998434+389857811
1738+390575883+394023283+401082929+406662212+404975613+398840104+393088635
1728+389046167+387005340+387040908+388447447+391153615+396801173+406568434
1718+417562638+422666136+419009053+411593387+405420759+402505942+403479053
1708+408060927+414283908+419353079+423374868+429439414+438104150+444381102
1698+444707931+441091378+434882080+427804650+423633733+423961664+427402172
1688+432984970+442052839+454049760+460940218+456669835+448137651+442781044
1678+442661555+446780913+451916912+455289041+458034913+461761339+463748470
1668+460767722+456093964+454924198+457671413+460379443+460047410+458786794
1658+460751179+468657415+483088508+498718077+502574366+496332534+493779871
1648+497331665+499792824+494850241+486732668+481967130+482331629+487582016
1638+497041679+507227273+510445138+504491706+497384706+495075296+497504230
1628+501876318+506109583+510029012+512845605+512838712+511426555+512642470
1618+517658462+522206010+521501620+517883654+516081013+517168822+519532411
1608+521418698+522471974+523381187+524640906+526047204+527258742+528456803
1598+530110799+532232239+534234397+535626391+536588887+537655776+539050321
1588+540561633+541933259+543131562+544232399+545449313+547630790+552228795
1578+559622507+566461406+567428382+564155235+563268561+566808879+570944953
1568+571463336+569639533+568922599+571244037+578646021+593526912+612208433
1558+618815867+609809966+599596973+594204075+592731950+593385469+594826921
1548+597297144+602791575+612695282+626091365+640696746+651973734+652054312
1538+642650343+635672483+636193589+640989834+644191949+644933285+647538471
1528+654405632+663908376+673644860+683436626+693003337+699609806+702117319
1518+702776560+702677922+701815064+701953061+705548694+713695390+726173403
1508+740186129+746521292+738780866+727208034+721597801+723015748+728827737
1498+734732229+736587394+734598643+733594273+737415030+745437102+752554476
1488+753615782+749413983+744472573+741821686+741836919+743359846+745622177
1478+749366698+755839995+764953289+773726622+776757310+772531731+766859945
1468+765227697+768044152+771928048+773643700+774515726+778636463+787874933
1458+798524525+801265226+793673963+784556534+779558256+778776459+780275742
1448+781435479+780568348+778301467+776132052+774804747+775153668+778552094
1438+784680400+789325207+788438430+784678539+782667317+782882101+783028093
1428+782147934+781721674+782826130+784882018+787508228+791253714+794911797
1418+794681297+789791446+784248212+780990540+779619879+778526039+777449706
1408+777545173+779115454+780590267+780816631+781246751+783877510+788494401
1398+793164781+796189955+796501860+793950025+790640518+789453347+790914719
1388+792768644+792517121+790747634+790601780+794022194+800114519+806674047
1378+812541386+817882519+822362309+824557641+824203551+823375089+824137654
1368+826787094+830768456+835685534+840503699+843051674+842169033+839481890
1358+837330741+836331196+835683260+834872374+834305981+834356093+834675994
1348+834736652+834439842+834057767+834104570+835290500+837970268+841358217
1338+843752686+844129248+843187948+842415869+842589296+843412313+844214513
1328+844647666+844839151+845204201+846154738+847835374+850033740+852351077
1318+854544204+856586168+858405904+859893883+861127444+862382165+864013931
1308+866287429+868951619+871160600+872370724+873032240+873911917+875122248
1298+876129031+876454309+876224222+875935270+875695396+874967984+873117161
1288+870022713+866329752+863207664+861343399+860132172+858525841+856646550
1278+855669269+856090635+857037311+857331433+856567213+855101911+853676865
1268+853168511+853941209+855208614+855819053+855933407+856817288+858784602
1258+860765289+862057301+863121916+864419512+865721036+866885736+868404665
1248+870670512+873220693+875255833+876626563+877812218+879098440+880169534
1238+880645767+880886262+881779587+883502202+885146168+886161084+887247343
1228+889073972+891247040+893202360+895052011+897147396+899654841+902550289
1218+905492265+908093178+910399279+912470332+913954727+914935385+916332171
1208+918653988+921219265+923220354+924703163+925915425+926726172+927281192
1198+928214151+929815932+931996652+935304780+940506951+946488161+950298992
1188+950849393+950695198+952586690+956092163+958519994+958336022+956806272
1178+956331486+958076503+961416614+965045334+967979451+969874114+971381806
1168+973583618+976260078+977896944+978134199+978483740+979896930+981536209
1158+982496947+983314105+985121710+988062927+991093891+992787899+992028987
1148+989143533+986545584+987187179+991612171+996936829+999669673+999692075
1138+999704137+1000960858+1001892784+1001364371+1000829754+1001725423
1130+1003271371+1004298282+1005014941+1005860635+1006678552+1007434845
1121+1008122278+1008584312+1009428145+1011667592+1015096072+1018382212
1113+1020538875+1021633956+1022798587+1025156731+1028110769+1029946359
1104+1030131710+1029193236+1027061870+1023888016+1021474384+1021508642
1095+1023514419+1025465052+1025776130+1024708896+1024037179+1025720160
1087+1030898412+1039014297+1047218825+1051655948+1050618147+1046507956
1078+1044090671+1045835412+1048851556+1048207686+1043862584+1040790745
1070+1042251842+1047113294+1052762196+1057401075+1059729786+1058790141
1061+1055036659+1050508756+1046801595+1043954673+1041938971+1042005212
1053+1045385923+1051461085+1057671623+1060974513+1060675773+1059375144
1044+1059260928+1059397064+1058386835+1057239022+1057780876+1060683424
1035+1065464230+1070665366+1073741823+1072342074+1067486205+1063609202
1027+1063541995+1064959460+1063442048+1058497949+1053737064+1052217723
1018+1054461926+1058731275+1061313232+1059355775+1054506592+1050655507
1010+1049382036+1049886944+1051479696+1053678061+1054987513+1054287121
1001+1052435126+1051221141+1051491000+1053001864+1054749913+1054660925
993+1051060605+1045531089+1042238883+1043258831+1046741075+1049688290
984+1050096627+1046659463+1039994128+1033630980+1030681767+1030833687
975+1031550208+1031152968+1030118613+1029372797+1028020954+1024511069
967+1020001708+1017623782+1017839531+1017614200+1015222488+1012396590
958+1010542665+1009211362+1008514555+1008985274+1009162560+1006289032+999886593
948+992643699+987172842+983365389+979726951+976202522+974009188+973556736
938+974266364+975544866+976286202+974632517+970381985+966462315+966118840
928+969191023+972296017+972764668+971275862+969911680+969166140+967926376
918+965269078+961752990+959276977+959221213+960795974+962172287+962713039
908+962615917+961596520+959809870+958564798+958456579+958153979+956364021
898+953813909+952239079+952458205+954036275+956016341+957168220+956092025
888+952727995+949145390+947400993+947326894+947377282+947221432+947823324
878+949094726+949593982+948713133+947298013+945796799+943686526+941440186
868+941192729+944139116+948208639+949911816+948516202+946266622+944822069
858+943871257+942917205+942122863+941285508+939885277+938150186+936757881
848+935794110+935029683+934798563+935674724+937396994+938858711+939437856
838+939559034+939764788+940199181+940958025+941928482+942645554+943270330
828+944829720+947789962+951124353+953021979+952601027+950648740+948132886
818+945000803+941446872+939081767+939572751+943141088+948603467+953147017
808+953427904+949620175+946288818+946794966+949578059+951192868+950712362
798+949589157+949144976+949562895+950451533+951492573+952362876+952732475
788+952805058+953032456+952897148+951504085+950085242+951440394+955524047
778+958469400+957974005+956473963+956684405+957716209+957394584+955671005
768+954092383+953707620+954375132+955291755+955700644+955205042+953552528
758+950904606+948687629+948704035+950995317+953569209+954531671+953883183
748+952872126+952706765+953511240+954174272+954117887+954327502+955890683
738+958792886+962030293+964477493+965974364+966618854+966149583+964811732
728+963933640+964341496+965344970+965976501+965692029+964189231+961805859
718+959345975+957075303+955363235+955364131+957732821+960936383+962369425
708+962024020+962095914+963486909+964478941+962718829+958724646+955894129
698+956450665+959134293+960737660+958794127+952377007+942149332+931219197
688+923169484+919032755+918205534+920271692+924129877+927071991+926688537
678+923574651+920582012+919376093+918753522+915300091+906245732+894020207
668+888568305+897081431+909303233+912863161+908367654+903254334+902099560
658+903095796+903090144+901969145+899643123+893217455+882030904+871954391
648+869932416+877233900+889663456+901301426+905993037+899307230+883572234
638+867047238+856910067+855872611+861943430+868768957+870743646+869881615
628+872336122+879175159+884179778+882068884+876335612+874194527+876816119
618+877031523+868056158+853904746+844953850+846359803+855849175+867532432
608+874811514+875829739+874663799+873054642+867727020+857079427+845496876
##END=
