##TITLE=<SNM>
##JCAMP-DX=4.24
##DATA TYPE=INFRARED SPECTRUM
##DATE=2/5/2025
##SAMPLING PROCEDURE=Instrument type and / or accessory
##ORIGIN=Admin
##XUNITS=1/CM
##YUNITS=ABSORBANCE
##RESOLUTION=4
##FIRSTX=4497.3318
##LASTX=599.83466
##DELTAX=-1.4281778
##MAXY=1.8053582
##MINY=0.34272763
##XFACTOR=1
##YFACTOR=1.6813708e-09
##NPOINTS=2730
##FIRSTY=0.36156029
##XYDATA=(X++(Y..Y))
4497+215038991+214580906+214481770+214691988+215221984+215801787+215937064
4487+215502979+215035038+215313091+216595761+218242663+219161369+218582381
4477+216530870+213947715+212278107+212389261+213838369+215496899+216622260
4467+216992890+216655548+216133458+216173197+216698726+216804509+216323416
4457+216420532+217901350+219739364+220065876+218278911+215566966+213562816
4447+212972378+213444644+214226760+214630731+214315048+213684233+213681787
4437+214660296+215775164+215891227+214835933+213470097+212829302+213332657
4427+214497173+215401273+215602327+215446737+215368428+215233364+214628373
4417+213534208+212432262+211851094+211958738+212467765+212798035+212577501
4407+212179166+212422885+213489258+214520712+214649413+213978858+213168364
4397+212522110+211867401+210979466+209808251+208643327+208195452+209003074
4387+210633049+211964623+212280802+211665566+210564949+209392617+208406237
4377+207807221+207924135+208950129+210369620+211176586+210866948+209864758
4367+209005821+208837345+209214409+209437124+208962466+208055583+207674301
4357+208544227+210163938+211057563+210500501+209407772+208859094+208693489
4347+208270375+207592252+207000431+206604224+206351820+206097342+205693583
4337+205302924+205228851+205436216+205726144+206132455+206697989+207267423
4327+207654484+207510202+206393278+204705130+203838218+204508595+205699539
4317+206092184+205753724+205586702+205973515+206720376+207605226+208279167
4307+208178560+207192074+206152005+206170812+207453996+209015038+209570345
4297+208654831+206985117+205813883+205863956+206865880+207993971+208576433
4287+208471040+207990958+207568163+207400768+207344509+207160382+206832593
4277+206521554+206264471+206003736+205904405+206258870+206933856+207305585
4267+207004065+206448580+206398862+207055396+207769466+207781821+207199111
4257+206909112+207456318+208430113+209134842+209422359+209575184+209737368
4247+209793557+209569176+208968067+208167889+207750199+208229643+209370017
4237+210370009+210723535+210486250+209861355+209071883+208511205+208526041
4227+209067079+209737758+210115283+210027030+209590906+208989869+208319083
4217+207763121+207719287+208411697+209473780+210213923+210237462+209581459
4207+208549243+207755995+207823439+208616155+209317764+209513235+209528160
4197+209602570+209492728+209006105+208339946+207823882+207630006+207658720
4187+207609392+207360887+207231016+207551147+208087914+208277944+208038390
4177+207965682+208554224+209443505+209745345+209134151+208245897+207814098
4167+207872945+208129319+208567659+209138440+209406088+209182735+209024362
4157+209473478+210204511+210401312+209709380+208558247+207741443+207749029
4147+208371089+208933769+208996746+208765488+208665182+208644284+208354321
4137+208032399+208428004+209603243+210629007+210886286+210976754+211816282
4127+213299369+214332011+214027052+212576561+210886091+209602711+208778144
4117+208286204+208114750+208213886+208396524+208437292+208119713+207395114
4107+206689197+206684961+207496200+208406025+208727450+208575848+208548286
4097+208961154+209646793+210241485+210362299+209681446+208310381+207107614
4087+206997790+207886877+208843478+209290255+209312783+209022164+208417475
4077+207741425+207381235+207465252+207800131+208082685+208078360+207667087
4067+206879156+206048155+205721483+206057567+206552981+206763572+206864392
4057+207085936+207227364+207185764+207304131+207770388+208240934+208386828
4047+208352442+208404412+208479194+208342587+208014266+207750571+207658384
4037+207610384+207597197+207884679+208671368+209775087+210768911+211309400
4027+211330705+211096274+211017682+211257022+211628113+211962248+212275360
4017+212493945+212379122+211878355+211230754+210609776+209972384+209316062
4007+208766215+208374722+208135771+208222039+208874710+209947126+210883875
3997+211362238+211661844+212164543+212767938+213053878+212794543+212126115
3987+211451147+211217832+211546631+212072745+212377722+212490949+212701806
3977+212997317+213100583+213077381+213409211+214259498+215088745+215263000
3967+214791284+214283214+214326250+214967364+215817864+216651631+217526396
3957+218191084+218082660+217306003+216901677+217683262+219226508+220276325
3947+220166926+219601126+219612240+220084470+219962327+218889644+217676845
3937+217202489+217972109+220285152+223594217+225962776+225744882+223849794
3927+222643643+223047968+223917504+224121094+224204312+225204127+226767332
3917+227216696+225392083+222071887+219206532+218099038+218697842+220653496
3907+224473945+230635657+237615147+242299337+243305799+241621709+237929748
3897+232780915+228452998+227609784+230319815+233092946+232629030+230830827
3887+231685722+235304656+238429523+239945348+241157296+241005783+237806489
3878+234205794+234021489+237391475+242082595+246644004+249651336+249179549
3868+246524626+245223184+245648496+244834652+241450769+237835682+236818514
3858+239953768+248051955+259806653+267349728+262562184+251083517+241245266
3848+235936163+235457836+239048037+245068002+251691326+257587729+261266946
3838+260880452+256672923+251550837+247644333+244964931+243141913+242622517
3828+243561411+245297842+248313895+254367413+262157681+265712840+263043719
3818+259014079+255872993+251638487+246212169+242439205+242538022+246550150
3808+251870331+255333054+257967363+262899366+268518373+269419283+265731611
3798+262085381+259518001+256655588+253905162+252853927+254043471+257166494
3788+261928621+267621488+272826810+277049441+281707096+287835839+294009940
3778+298491444+302389848+308372466+318282238+332632410+349863287+366322629
3768+379528651+389662928+397085526+402515194+408128281+414757933+419912367
3758+421526159+422146215+426406848+436709584+450916112+462518658+468133553
3748+472406416+479960604+489661292+496420797+499860691+505236156+516297700
3738+533282057+552292880+565657044+567972179+562286491+556326667+555225731
3728+559414294+565736878+569980353+570619056+569160677+566810659+563564819
3718+559981495+557623855+557814824+560420401+563372751+564097527+562261286
3708+559430495+557189025+556607325+557310406+557242838+555356436+553445325
3698+553603042+556169340+560808579+567786421+576917285+585404518+588605231
3688+585156120+578516755+572502197+569577995+571299094+577675100+587501990
3678+599121801+608186728+609081203+604546790+601316087+598649961+591252213
3668+579681820+569533434+563223222+559319501+556131090+554320444+555410568
3658+558185242+559128177+558195806+559868125+566943349+576393724+579771190
3648+572668599+561076014+551523791+545617639+541938422+538760363+536091401
3638+535360102+537173903+540493904+544668287+550823724+559269658+565530488
3628+563933818+557211819+551937209+551211937+555011117+560869199+565211508
3618+567268000+569442363+572428354+573974826+573366433+573745961+577011547
3608+579986371+579027200+575550545+573619830+575206679+579087571+583085271
3598+586725635+590843156+595075393+597603405+598254339+599704529+603887845
3588+608462458+609212864+606123962+602550528+600525906+600125179+600933439
3578+602693746+604899021+606271576+605783287+604932486+607149389+613669784
3568+620791695+623081625+620275542+616602848+614313415+612143589+608582705
3558+604729003+603030379+604180449+606604168+608794979+611073849+614140206
3548+616788252+616438573+612269508+606390404+601411944+598629542+598261641
3538+599814636+602056496+603507182+603529516+602856178+602596542+602510966
3528+601101543+598074607+595192520+593779446+593137411+591990389+590059923
3518+587917890+586504427+586699154+588268455+589545543+589216389+587990244
3508+587427652+587904384+588524334+588352685+587287518+586046341+585458261
3498+585300331+583982866+580557649+576580262+574515120+574898122+575866759
3488+575199660+572738365+570456907+569706501+569127283+566756350+563314471
3478+560928081+559936544+559232010+558623758+558967340+560474959+562277628
3468+563411214+563474563+562500857+560774973+558872618+557591205+557454758
3458+558022668+558043087+556766886+554744036+553053531+552504091+553470246
3448+555396317+556583078+555802078+553841727+552302628+551615642+550995976
3438+549585951+547194315+544461011+542454078+541637026+541385650+540943056
3428+540334060+540054289+540471075+541636282+542870368+542690530+540330693
3418+537181525+535479072+535843924+537148379+538318868+539170378+539562490
3408+538761391+536212853+532704611+530184398+529908845+530891732+530883898
3398+529111467+527225065+527139914+528644945+529661652+528853710+527117013
3388+525910897+525260956+524265307+522853793+522132314+522997968+524891567
3378+526386140+526983402+527419934+528036268+528162151+527488849+526777366
3368+526753048+527212303+527542839+527550283+527471124+527332727+526656234
3358+525227562+524012335+524403384+526321515+527851821+527288769+524937758
3348+522304424+520458860+519825119+520462263+521822126+522921999+523308156
3338+523407168+523784356+524484281+524998413+524795497+524188486+524073380
3328+524295723+523393200+520947361+518713123+518150283+518524919+518558774
3318+518370002+518606844+519006897+518911679+518315409+517713858+517476307
3308+517643276+517939887+517976790+517729101+517640228+518020146+518613367
3298+518995553+519151498+519453639+520205995+521260527+522049680+522123309
3288+521625449+521082036+520784574+520599490+520318265+519998895+519983617
3278+520555780+521434267+521777069+521045877+519754255+518958118+519064858
3268+519415175+519044333+517852361+516816334+516908858+517979945+518925362
3258+518940712+518218134+517368078+516803713+516825125+517554013+518507832
3248+518838120+518228769+517108619+515976806+514986651+514191330+513773941
3238+513815099+513903795+513326775+511919018+510386833+509482183+509172138
3228+508740852+507555616+505856815+504778319+505149197+506342091+506920245
3218+506315787+505087798+503827939+502793862+502219536+502003929+501420740
3208+500023938+498398909+497218494+496203205+494766309+493081901+491856110
3198+491426243+491447123+491258245+490485399+489380493+488511648+488156049
3188+488117585+488077562+487940052+487681195+487028631+485777529+484364987
3178+483407375+482762149+481838605+480637842+479742090+479477562+479535984
3168+479223350+478000643+476017746+474036337+472728054+472193361+472056134
3158+471844817+471337456+470533130+469398516+467981082+466623311+465648683
3148+465062198+464751691+464565791+464244649+463770789+463449824+463199653
3138+462434890+461030714+459602681+458579557+457678134+456457271+454933096
3128+453572064+452944137+453296156+454193361+454681437+454124481+452847465
3118+451655032+450841454+450030074+448931158+447884993+447472461+447732487
3108+448017895+447728906+446974423+446219869+445548304+444746070+443898211
3098+443297014+442881682+442316537+441625723+441358642+441925488+442872181
3088+443143622+442249714+440830401+439824046+439451856+439207464+438568689
3078+437590871+436808915+436457817+436055424+435123975+433894851+432866446
3068+432177616+431779903+431669015+431694503+431593435+431243295+430606826
3058+429686401+428752718+428218699+428117666+428056692+427723143+427112516
3048+426294932+425369970+424685146+424610524+424931134+424891146+424054313
3038+422733551+421416122+420300013+419563681+419481366+419918039+420082846
3028+419200531+417424768+415802822+415130016+415037173+414572884+413545436
3018+412708886+412674641+413243649+413754910+413642675+412819525+411778819
3008+411041742+410517081+409828677+409071642+408666271+408621356+408411917
2998+407558741+406117591+404626598+403680933+403514673+403836878+403982684
2988+403414562+402247937+401085707+400297972+399792880+399434622+399246241
2978+399209975+399195689+399013015+398437236+397446549+396429594+395836232
2968+395675359+395629842+395500378+395239501+394720265+393857836+392893702
2958+392202355+391852925+391636608+391406325+391095109+390582395+389790442
2948+388716483+387417807+386261710+385859069+386302620+386841744+386720647
2938+385954111+385002029+384156121+383446305+382800972+382224519+381889162
2928+381898273+382005686+381781323+380953955+379547014+377965127+376868800
2918+376597182+376826118+376998051+376814384+376214286+375289926+374323169
2908+373617430+373287177+373257860+373285334+373047287+372518089+372132605
2898+372253702+372593243+372477534+371682921+370700920+370032155+369549078
2888+368867303+368069606+367596738+367557070+367589046+367354296+366829883
2878+366146974+365452153+364950181+364791719+364814939+364600750+363908588
2868+362909358+361909455+361039511+360322782+359847504+359672026+359625161
2858+359403067+358929348+358441024+358069827+357578170+356789868+356029287
2848+355731188+355827470+355922441+355866891+355776032+355644974+355272429
2838+354531205+353576181+352777740+352408953+352350780+352195331+351681412
2828+350900413+350074285+349334939+348726900+348212946+347677331+347084713
2818+346581642+346317894+346258373+346244264+346112284+345734776+345116847
2808+344432945+343819340+343218675+342538318+341802517+341087951+340508449
2798+340236867+340292275+340341941+339954791+339039932+337893478+336898041
2788+336261607+335951561+335812526+335741236+335685686+335494964+334991609
2778+334249321+333559641+333072735+332668782+332181840+331546008+330753027
2768+329862274+329042669+328474086+328213280+328194775+328271737+328206261
2758+327788802+327104722+326510154+326178165+325884249+325424745+324948864
2748+324612124+324219196+323532246+322689031+322030405+321680194+321476782
2738+321199137+320751864+320201184+319692192+319314791+319032609+318715898
2728+318236579+317608227+317067791+316862110+316862961+316607721+315874401
2718+314983542+314360437+314046421+313792811+313410482+312904717+312415719
2708+312048740+311703351+311193012+310577245+310161771+310087787+310123946
2698+309956870+309526896+308989155+308476689+308025517+307654284+307377242
2688+307148164+306877467+306504817+306031630+305511649+305009145+304538723
2678+304082906+303664631+303289393+302834392+302196327+301567833+301312309
2668+301483036+301709101+301675814+301473430+301296605+301051220+300513017
2658+299707451+298888839+298243790+297799282+297549572+297508167+297625896
2648+297719874+297544361+297011086+296328496+295813602+295559939+295394654
2638+295151005+294847890+294569164+294294816+293960221+293615399+293369322
2628+293192710+292954841+292649917+292378530+292113541+291732648+291288583
2618+290978218+290809883+290552091+290099181+289684788+289584908+289708965
2608+289655861+289180901+288464580+287867070+287541497+287355810+287115104
2598+286799652+286580341+286581564+286665474+286550403+286154639+285706019
2588+285460066+285404871+285323282+285101436+284864417+284785222+284859401
2578+284898343+284661289+284038467+283238785+282704252+282665346+282885969
2568+282985725+282825881+282439387+281860470+281235398+280869695+280931325
2558+281213649+281350681+281217318+281003484+280914132+280905287+280744929
2548+280280321+279623981+279082890+278878910+278946372+279050666+279049354
2538+278935754+278709229+278378834+278071695+277949091+277977966+277942604
2528+277756332+277617775+277730790+277978019+278038603+277794937+277455237
2518+277251346+277167897+277056903+276909448+276869798+277013370+277232965
2508+277351953+277288462+277098220+276889685+276722520+276590416+276453437
2498+276276754+276093247+275992764+275957828+275811862+275463885+275068333
2488+274819244+274755700+274842215+275014839+275083222+274830730+274314701
2478+273890347+273842542+274101576+274380107+274488796+274431935+274285880
2468+274124973+274019970+273975125+273890613+273695425+273475245+273355051
2458+273297197+273146002+272854887+272542696+272333949+272269447+272341003
2448+272482555+272572669+272571712+272574300+272627032+272644119+272587470
2438+272518129+272395472+272099323+271710188+271467319+271414251+271383303
2428+271335339+271413879+271649958+271881057+271993557+272050809+272140197
2418+272229814+272240166+272202925+272278487+272573290+272960900+273184572
2408+273156762+273033502+272960297+272911820+272842196+272820022+272927276
2398+273142759+273377491+273558588+273659337+273680979+273634309+273545152
2388+273409910+273091728+272348430+271017973+269081763+266556640+263470147
2378+259927679+256095425+252140212+248200650+244337944+240566628+237022104
2368+233971256+231605073+229967335+229070325+228951373+229677194+231408627
2358+234437052+239072303+245540870+253916737+263553685+272528410+278546495
2348+280520193+279225523+276767560+274844679+273418968+271807445+269996391
2338+268204818+266335804+264241540+262009961+259947779+258450920+257759325
2328+257709429+257786462+257544196+257066543+256923591+257543753+258769349
2318+260112267+261223271+262045499+262721017+263415324+264168708+264951604
2308+265818286+266829410+267846276+268596275+268954816+269046189+269076375
2298+269144155+269222056+269285175+269385712+269548711+269685176+269719828
2288+269722115+269795142+269915973+269989691+269972835+269854237+269597437
2278+269206955+268796089+268491892+268306294+268180694+268096429+268037600
2268+267913986+267657115+267364528+267224252+267286503+267415665+267498884
2258+267580100+267704405+267768481+267662982+267450353+267281486+267251407
2248+267386170+267622941+267790531+267752458+267545820+267287282+267025395
2238+266765316+266562897+266532800+266761895+267188980+267587278+267740511
2228+267635579+267440143+267337816+267421284+267657505+267897183+267985754
2218+267903315+267741911+267569837+267409550+267297563+267240666+267173062
2208+267084898+267109837+267344907+267666403+267850140+267809461+267623668
2198+267398844+267191213+267039345+266998241+267110989+267338596+267533004
2188+267544153+267396699+267286059+267324470+267381739+267287726+267092360
2178+266978300+267002300+267071711+267113967+267142593+267186161+267241322
2168+267300346+267378566+267498618+267657452+267807778+267870613+267806803
2158+267698219+267682231+267754638+267747123+267573719+267375252+267339766
2148+267490588+267721297+267941566+268118727+268243405+268329567+268432372
2138+268598898+268802523+268976352+269091547+269147416+269138643+269090856
2128+269057054+269054839+269088959+269218175+269495784+269869480+270217795
2118+270454494+270563627+270578995+270572951+270657410+270942234+271421234
2108+271915514+272221643+272322073+272386255+272571127+272861870+273104685
2098+273185281+273149459+273139125+273266320+273549282+273879659+274074970
2088+274067225+273984608+273968762+274014298+274034043+273978653+273879464
2078+273836480+273925903+274115330+274337212+274583873+274876939+275265365
2068+275830190+276480255+276842661+276656371+276159521+275806332+275781889
2058+276000793+276342088+276683189+276889685+276936621+276943498+277027107
2048+277196611+277434127+277797099+278319066+278830432+279058837+278950714
2038+278720484+278570761+278538165+278585739+278682659+278804696+278941497
2028+279092266+279255850+279438985+279646793+279909106+280341472+281010999
2018+281659894+281829257+281427891+280918333+280794701+281117083+281604645
2008+281969550+282116615+282151639+282236950+282443127+282754307+283120506
1998+283503313+284047135+285078287+286570769+287795000+288027446+287433126
1988+286697999+286171584+285833355+285662823+285683987+285892982+286270897
1978+286738908+287152398+287396648+287418681+287312047+287465492+288257641
1968+289382825+289916029+289412567+288494979+288003287+288073602+288322408
1958+288508964+288676235+288855417+288945815+288898329+288888758+289188683
1948+289917004+291102541+292760663+294411589+294900445+293658098+291706184
1938+290436152+290144983+290308691+290517793+290684674+290793736+290844536
1928+291028628+291820794+293461652+295281018+296353789+296898408+297674250
1918+298180299+297233766+295217013+293813564+293898662+294931286+295830068
1908+295937128+295402967+294846064+294660218+294753433+294913100+295221391
1898+295962315+297068444+297982523+298547030+299471566+301009566+301955727
1888+301248854+299705785+298698756+298427988+298421324+298522817+298766217
1878+299038367+299239688+299533356+300574027+303381208+308192876+313025814
1868+314520494+311799775+307580583+304628518+303590328+303704052+304040862
1858+304118037+304017395+304100277+304543579+305355030+306686463+308826581
1848+312124143+316672133+321028268+322028243+318706008+314327504+311996310
1838+311853304+312374703+312798012+314165284+317772821+322666060+325706361
1828+325594799+324320123+323150484+321253199+318555912+316588365+316252830
1818+316918334+317674235+318555416+320208274+322568430+324373688+324499181
1808+323426675+322685238+323491124+326173237+329922574+332929978+333790633
1798+333131334+333188656+335861447+340828421+344484206+342987931+337919073
1788+334045803+333486720+335089735+337106345+338961233+340364770+340784818
1778+340829662+342514247+347398871+354633443+360238908+360472771+356457949
1768+351491010+347577185+346219591+348177071+351649153+353496454+353484791
1758+353604222+354135618+354712851+356955668+362548902+369763231+373999900
1748+373252507+370097667+367648814+367162086+368405850+370126630+370893024
1738+371514215+375062727+382403507+388162789+386316977+379883329+373907765
1728+369708178+367562954+367571782+369007472+371819936+377824497+388349115
1718+400262770+405747741+401663685+393556582+386886978+383772835+384814711
1708+389663673+396220439+401554073+405788012+412110596+421027909+427406326
1698+427751503+424120250+417641119+410054494+405515295+405827751+409517142
1688+415509403+425256105+438217521+445635617+440751135+431138399+425062760
1678+424779692+429076448+434392357+437858023+440803140+444822535+446824859
1668+443450584+438469465+437457012+440649393+443604969+443115546+441595767
1658+443515989+451739829+466993374+483759749+487905523+480863304+477608920
1648+480961926+483406950+478300409+469986384+465163514+465615467+471146983
1638+481212664+492220501+495753770+489110470+480983090+478058356+480429147
1628+485070797+489680967+494174294+497851135+498632773+497526661+498718243
1618+503800501+508646414+508129907+504316299+502140128+502986001+505350270
1608+507362414+508522764+509485799+510688690+511791859+512439000+513034702
1598+514334016+516462046+518706104+520327730+521316396+522118488+522945502
1588+523700871+524376868+525179421+526245297+527597787+529795759+534228183
1578+541506322+548477960+549712720+546740519+546327774+550464615+554948406
1568+555465019+553694290+553243827+555862059+563637066+579378084+599538835
1558+607010425+597354192+586065413+579912777+578112164+578770258+580325167
1548+582908021+588758162+599623135+614575887+630885523+643603292+644597453
1538+635466234+628463790+629047085+634118991+637748224+639037967+642405719
1528+650221600+660635897+671269062+682378676+693549973+700889547+703043916
1518+703691517+704368967+703819634+703093333+705640985+713812571+727542084
1508+742971780+749259623+740017233+727285851+721363924+722958963+729241133
1498+735723455+737698305+735095209+733385738+736928897+744730173+750917975
1488+750406715+745043409+740049422+738280749+739493069+742184790+745824302
1478+751122735+758394032+766836882+774334847+776703263+771748696+764309224
1468+760525004+761801914+764887343+766021815+766559804+771136899+781596360
1458+793263744+795626985+786528948+775624802+768727219+766289675+766994634
1448+768120456+766954505+763601712+760267424+758498822+759020576+762454549
1438+767928530+771412133+769634244+765592231+763596820+763758330+763561937
1428+762066797+760970186+761515265+763225091+765927943+770207329+774426095
1418+774404896+769540514+763812143+759870738+757735938+756648969+756182730
1408+756475547+757632565+758808230+759028020+759008026+760277067+763000621
1398+766109376+768675746+769842193+768819531+766652754+765990690+768031335
1388+770748438+770738228+767958166+766383972+768975511+774956924+781750709
1378+788043160+794351493+800872313+805983356+808213305+808705635+809550267
1368+811358786+813961953+817537584+821543225+823958932+823293818+820460439
1358+817468244+815552737+814750858+814442301+814148420+813642690+812711134
1348+811558299+810935584+811301428+812560684+814697966+817612951+820322822
1338+821558539+821282384+820477739+819815391+819558874+820166913+821945087
1328+824341509+826459577+828132180+829791100+831707528+833941377+836496969
1318+839146433+841588161+843859515+846200209+848752328+851585920+854566629
1308+857196950+859103949+860563569+862171653+864315741+867097080+870159537
1298+872501720+873131597+872161613+870779912+870011498+869872250+869612047
1288+868441770+866032870+862569969+858663234+855197285+852808520+851356345
1278+850166855+848878317+847730303+847069302+847055619+847720448+848808410
1268+849664244+849763575+849393619+849432543+850382320+851908657+853444777
1258+854751253+855677633+856076091+856217749+856708023+857863553+859599328
1248+861609557+863319454+864275825+864845861+865777063+867132104+868484098
1238+869760228+871097119+872414584+873738926+875352612+877282015+879149523
1228+880750375+882364982+884354934+886555105+888256777+889161462+890095286
1218+892131607+895324166+898982963+902563416+905570855+907474876+908575670
1208+910166667+913025925+916421400+919215500+921277841+923233832+925356367
1198+927371701+929146684+931249509+934508359+938603334+941763137+942703626
1188+942331968+942638540+944476907+947324963+950805376+955215288+960087682
1178+963385882+963411690+961098221+959133438+959329831+961727246+965207021
1168+968310742+970118835+970795080+971066414+971125758+970604430+969693293
1158+969460386+970709858+973115497+975683993+977750659+979504443+981656189
1148+984433911+987046862+988585890+989245544+990242044+992441719+995242413
1138+997309575+998527283+1000146782+1002577307+1004455095+1004492531+1003110263
1128+1001429081+999725920+997938175+996831283+997862028+1001743523+1007250685
1118+1011924913+1014457959+1015890211+1017977651+1021018271+1023864057
1110+1025538858+1026004459+1026060966+1026840158+1028411020+1029163553
1101+1028137487+1026891986+1026975223+1027564048+1027657565+1028476390
1093+1031711701+1036625501+1040010128+1039286096+1035938408+1034649091
1084+1038201467+1044598070+1049955491+1052699466+1053039786+1050907112
1075+1047235623+1044785388+1045743532+1050138343+1056195618+1060594329
1067+1060505207+1056525304+1052477903+1052473294+1057733582+1065146325
1058+1069535606+1068186307+1062656032+1056948081+1054588030+1055958174
1050+1058410111+1060014650+1061787222+1064495392+1066214293+1065917789
1041+1066173454+1068532087+1070347128+1069929881+1069710517+1071554769
1033+1073382431+1072508800+1069825304+1067643142+1066029953+1064212855
1024+1063292643+1065012750+1069081562+1072976315+1073741823+1070530405
1015+1065172417+1060019897+1056566638+1055534263+1057038549+1060128515
1007+1062416886+1061597139+1058133246+1055074263+1054373770+1054823348
998+1054733943+1054985709+1056803161+1058241369+1056298353+1051408730
990+1046295205+1041809713+1037473111+1034138752+1033196845+1034683335
981+1037665817+1040792864+1041915283+1039288365+1033656915+1027754202
973+1023941551+1022563750+1021705930+1019055899+1014909593+1011827851
964+1010973080+1010994633+1010468767+1009132585+1006348127+1001127897+994340280
954+988979811+987347833+988492798+989004413+986515892+981587700+976263531
944+972131262+969955978+969769369+970713899+971534355+971485788+970701563
934+969844594+969218546+968237077+966270593+963904232+962333229+961569919
924+960472740+958505831+956444270+955211176+954964586+955500945+956770056
914+958606367+960332358+961170468+960612272+958339216+954898578+952239967
904+952208913+954623627+957571226+959306151+959174631+957258699+954420995
894+952415729+952833117+955428556+957888575+957911192+955417495+952129363
884+949256138+946518758+943178018+939371890+936332972+935054786+935053581
874+935216580+935461114+936401320+937756007+938330865+937634910+936758302
864+937173280+938668633+939297162+938167015+936993264+937479426+938758534
854+938870202+937674827+936709310+936591899+936396782+935753293+935631487
844+936240731+936132538+934654910+933185506+932304218+930286615+926557414
834+923879873+924711956+928095094+931942982+935868577+939844652+942458170
824+942611456+941489179+941390344+943401921+946404964+948089124+947500440
814+946473878+947652521+951311389+954592290+954216377+949987402+944842326
804+941295834+939586434+939446335+941006208+943865962+946558817+947380052
794+945874135+943861495+944338510+948376127+953548641+956475537+956406693
784+954759401+952374039+949508046+947527524+948291401+951748488+955587655
774+957609796+957324991+955459823+953095306+951375483+951048421+952129363
764+954302734+956690790+957640921+956370321+954351726+953599405+954082873
754+953940151+951995646+948976934+946387877+945348269+946302726+948749132
744+951079263+951885963+951596266+951875187+953962910+957865816+962021694
734+963983640+963082997+961580412+961607567+962314157+961847209+960727981
724+960408363+959941841+957844050+955619135+955570781+957255579+958632033
714+958931373+958414512+957084639+955094333+952612902+949717769+947031649
704+945468586+945742970+948137903+951928574+954657163+953571187+948676814
694+942774668+938868075+938648143+941455572+943864898+942214486+936016829
684+927821349+920779201+917213779+917431300+919585386+922097091+924636235
674+925995176+923024960+913429843+898859526+886357293+883569716+887856404
664+892243558+894854382+896567115+897673794+897714845+896233246+893877734
654+893217725+896072728+900158841+901527779+900206911+898976299+898234117
644+895608900+890061821+883654441+878864150+876509913+876582515+879299476
634+883055265+883565107+878834585+872718178+869064344+866600779+863419423
624+860788676+859511412+857668790+855564689+857681127+865625691+873458871
614+872858915+864170184+855525907+851658167+850466620+847798368+843563365
604+841163824+842095521+844893805+847459323
##END=
