##TITLE=<SNM>
##JCAMP-DX=4.24
##DATA TYPE=INFRARED SPECTRUM
##DATE=2/5/2025
##SAMPLING PROCEDURE=Instrument type and / or accessory
##ORIGIN=Admin
##XUNITS=1/CM
##YUNITS=ABSORBANCE
##RESOLUTION=4
##FIRSTX=4497.3318
##LASTX=599.83466
##DELTAX=-1.4281778
##MAXY=1.8414811
##MINY=0.38808295
##XFACTOR=1
##YFACTOR=1.7150129e-09
##NPOINTS=2730
##FIRSTY=0.40719613
##XYDATA=(X++(Y..Y))
4497+237430361+238131640+239156224+239809072+240162562+240438357+240193267
4487+238961302+237416615+237009552+238398608+240662785+242085640+241746469
4477+240460444+239956588+241016552+242796407+243986475+244048773+243248947
4467+242100532+241108583+240608168+240532090+240529240+240365494+240071122
4457+239806170+239725765+239866348+240137225+240466456+240692865+240367336
4447+239226133+237792956+236835170+236515932+236573885+236927201+237700595
4437+238769613+239697875+240316924+240962022+241713226+241867016+240903218
4427+239436225+238378398+237877444+237689109+237803243+238140398+238313876
4417+238155794+237973089+238070993+238320948+238342687+238034831+237685721
4407+237489687+237354995+237270090+237377117+237752588+238460957+239450039
4397+240237423+240305699+239724201+238746588+237342397+235764398+234783500
4387+234801746+235316532+235525772+235130612+234514325+234262007+234477381
4377+234766540+234883003+234954163+235093876+235250446+235335160+235195395
4367+234764819+234381302+234479189+234839716+234618120+233389040+231829947
4357+230940420+230823001+230780879+230472588+230308163+230683965+231380361
4347+231865623+231913445+231767285+231848662+232383623+233198689+233861216
4337+234050647+233787884+233316420+232901936+232706042+232591386+232226150
4327+231687262+231481845+231672491+231750342+231589080+231471627+231166412
4317+230327748+229561495+229709150+230424991+230618279+230033932+229518642
4307+229805160+230605680+231099283+231093027+231205563+231825220+232552565
4297+232881449+232817152+232582924+232231798+231847185+231788537+232350311
4287+233200183+233495024+232747747+231414264+230403495+230182838+230587747
4277+231227215+231693761+231588941+230894022+230234796+230248385+230831690
4267+231442259+231804837+231844787+231360916+230334994+229305596+229025283
4257+229796367+231250657+232682113+233563821+233823195+233638543+233096215
4247+232284903+231612713+231645834+232532564+233792559+234729822+234906271
4237+234290540+233236519+232277569+231734250+231546141+231571668+231887118
4227+232561654+233267798+233440929+232874949+231985266+231449002+231601123
4217+232105916+232434295+232657681+233225797+233973213+234146795+233492678
4207+232586382+232118272+232365829+233109422+233780064+234022513+234034937
4197+234001799+233692500+233108883+232887287+233496049+234499815+235072746
4187+235005287+234778721+234676960+234381459+233748559+233344311+233533046
4177+233691092+233219854+232706615+233133837+234457953+235670803+235923973
4167+235203649+234188344+233668693+233868254+234246176+234112805+233381550
4157+232570342+232190770+232340527+232760294+233085962+233192485+233376163
4147+233934914+234520494+234346235+233207951+231845013+231140415+231380205
4137+232298335+233402560+234239920+234701219+235125972+235877593+236790928
4127+237300326+237161864+236651336+235992231+235198140+234597806+234748832
4117+235559189+236154918+235859816+234842479+233693699+232814824+232321186
4107+232243145+232614776+233306776+233910881+234053583+233831814+233723658
4097+234032505+234546022+234768000+234433712+233750332+233206265+233230263
4087+233914374+234874401+235454699+235308121+234708951+234170533+233944662
4077+233982024+234117549+234232587+234524891+235421369+236781648+237596749
4067+237138544+235930333+234925386+234399566+234202455+234306041+234567500
4057+234620605+234363682+234065973+233948572+234044773+234294016+234463532
4047+234251650+233678007+233117572+232872291+232931930+233127894+233313570
4037+233447966+233675331+234261816+235265217+236309211+236849524+236693406
4027+236235896+236172400+236845892+237827989+238354799+238226868+238029148
4017+238378780+239150872+239576459+239056791+237784528+236590011+236280295
4007+237010421+238212288+239215585+239792268+239966511+239697162+239104874
3997+238647451+238700764+239196696+239752370+239952452+239644683+239150993
3987+239015346+239408595+239918289+239941713+239280506+238454702+238286906
3977+239035816+240217057+241348563+242340200+243020487+242988113+242217273
3967+241356748+241231562+242168634+243709063+244934720+245216198+244620869
3957+243627234+242737445+242352712+242738314+243968611+245702520+247091558
3947+247600522+247853275+248666829+249523670+249193205+247652376+246091858
3937+245464555+246107411+247962700+250259599+251579441+251201102+250046536
3927+249536964+250009713+250653300+250806029+250906783+251813149+253461457
3917+254432762+253209138+250084280+247055222+245741705+246200345+247803368
3907+250495079+254431563+258775301+261888447+262876661+261797095+258801106
3897+254729688+251611711+251215334+253313732+255381303+255268229+254459123
3887+255675883+258737540+260942513+261291015+261175387+260777290+259366356
3878+257977422+258136216+259783776+262341439+265642817+268342644+268378215
3868+266724103+266144482+266636625+265914007+263387554+260904179+260101364
3858+261711633+266468204+274074638+279736429+277863223+271288325+265161621
3848+261527468+260617592+261883060+264447136+267807022+271899050+275907963
3838+277897909+277124079+275124680+273194773+271281078+269413694+268323841
3828+268348552+269225481+271385916+275758118+281039467+283280828+281618896
3818+279352859+277749645+275350151+272067315+269613377+269323193+271585668
3808+275451252+278946126+281676328+284960571+288282471+289125045+287560566
3798+285876877+284643574+283510365+283181013+284364286+286548684+288967277
3788+291633426+294808922+298394662+302485352+307601860+313487835+318633606
3778+322285240+325805572+330992388+338776175+349356284+361793647+373907444
3768+384374636+393470410+401162757+407547948+413991978+421018566+426640858
3758+429254823+430529901+433247748+438902987+447078354+454817794+459603368
3748+463409974+469460408+477986136+485599313+490479211+495503757+504381516
3738+518845942+536541507+550762616+556880370+557377327+557338680+559602874
3728+564494554+570506133+575433193+578265869+578906328+577140688+573715862
3718+570581203+569506381+571538484+576411327+581212228+582337548+580300301
3708+577802520+575561333+573486482+572089276+571264305+570010566+568343352
3698+567832320+570040873+575137327+581755964+588036439+592630098+594537502
3688+592864692+588407341+584103327+582625039+584332708+587919872+592761749
3678+598535675+602127636+599741383+593910598+589906447+589335150+590873391
3668+592190730+591437180+588390450+584192299+580370158+578274349+578296662
3658+578813568+577516803+575164366+574953509+578172657+582745881+584530114
3648+581584728+576265705+571515477+568686797+567724893+567663621+567449046
3638+566846505+566443386+566892346+568759330+572713469+578337950+582237803
3628+580610660+575272140+571191112+571170746+574823214+579131781+581098441
3618+581386210+582878747+586347851+590367502+593827395+596877392+599390361
3608+600312957+599641776+599092236+600110338+602666541+605701177+608403975
3598+611090369+614555684+618404412+620682439+620561285+620285055+622389309
3588+625354366+625271372+622241810+619593160+618790536+619279464+620765503
3578+623024485+624833672+625283744+625230917+626560143+630534127+636473972
3568+641113437+640740172+635982263+630923796+628180821+627511516+627596248
3558+628138212+629859748+632488588+634184893+633876063+632716231+632427976
3548+633541932+635327833+636020146+634144716+631020761+629846194+631398336
3538+633241582+633516074+632662501+631446714+630038804+628987268+629009997
3528+629855647+630505002+629857593+627274420+623763855+621826562+622743320
3518+624896786+625824735+625114628+623979403+622981180+621780616+620536331
3508+619968857+619954052+619436208+618077093+616594530+615275036+613829868
3498+612659054+612774718+614406934+616545804+617801836+617109038+614068702
3488+609746269+606973474+608458192+613708158+618344287+618370005+614684971
3478+610743935+608175429+606930518+606905772+607666134+608185716+607644308
3468+605866817+603431630+601515398+600674545+600115760+599310703+599211444
3458+600547690+602276038+602831626+601914381+600178805+598003095+595550391
3448+593511267+592676808+592652758+591630485+588318369+584136483+582135659
3438+583448411+585933367+586834763+585780655+584127586+582755925+581791518
3428+581254003+581113977+581464303+582588164+583948391+583899039+581715579
3418+578758829+576847255+576712233+577859970+578906189+578608793+577242728
3408+576236685+576327117+576975256+577434434+577394849+576852329+576202104
3398+576054467+576261709+575733751+573810047+571389179+570088347+570282521
3388+570838943+570743403+570095681+569492166+569102219+568691941+568158735
3378+567501942+566495691+564899620+562867099+560980166+559969918+560120267
3368+560875728+561542392+562287288+563579291+564958737+565451384+564760636
3358+563280575+561572420+560181782+559280317+558555057+557921028+557777804
3348+558339022+559232390+559734421+559371478+558566735+558316119+558928218
3338+559755586+560073209+559329564+557179260+554306616+552244554+551625991
3328+551766504+552329460+553790614+555753451+556636462+555894729+554958995
3318+555110004+555956731+556566293+556753516+556867928+557153681+557478115
3308+557548598+557378335+557092408+556307162+554804407+553648641+554056939
3298+555414072+556126855+556125604+556522224+557361896+557526389+556735304
3288+556217321+556971323+558425075+559385901+559595402+559493919+559034428
3278+557848669+556304729+555324058+555230776+555577315+555894347+555941543
3268+555606404+555044492+554616801+554554868+554912632+555525183+555731660
3258+554975990+553959313+554104622+555740696+557817598+559267701+559735394
3248+559412072+558743948+557736794+555878707+553517408+552096465+552162394
3238+552650975+552640687+552302003+551831356+550969963+549884923+549339310
3228+549677890+550257110+550090983+548835785+547082970+545838059+545634814
3218+546141154+546662786+546815672+546562241+545875524+544766469+543508004
3208+542450629+541679354+541086127+540618573+540169057+539393090+538077210
3198+536651193+535823164+535711462+535773951+535434607+534419702+532778032
3188+530911535+529435019+528821738+529064291+529443290+528936116+527360410
3178+525644331+524604125+524204377+524265024+524839240+525524740+525346762
3168+523743947+521217529+518924279+517774804+517717876+517845009+517308675
3158+515955851+514120390+512210796+510560750+509443389+509115340+509663421
3148+510586851+510921434+510183385+508803556+507448230+506365588+505390199
3138+504297514+503211014+502528607+502227250+501694322+500585232+499387518
3128+498842948+499152994+499870399+500284744+499979980+499229802+498585833
3118+498141808+497568947+496737512+496093544+496216783+496888417+497028895
3108+495920361+494090947+492560596+491635775+490899672+490019754+489117072
3098+488444223+487974687+487378819+486437108+485404026+484799713+484839124
3088+485063188+484672163+483449217+482172471+481823569+482445121+483075118
3078+482969568+482476817+482289594+482283582+481727473+480480928+479376078
3068+479238276+479861531+480256518+479853781+479019357+478266120+477605643
3058+476883580+476170798+475535101+474830937+474017227+473386743+473118646
3048+472794976+471906543+470739483+469992293+469661081+469250559+468843930
3038+468832635+468845042+468113040+466686467+465409964+464858894+464805407
3028+464613839+463891047+462748280+461524118+460473068+459779852+459530940
3018+459505812+459317129+458906503+458572685+458361967+457876376+456909363
3008+455795025+454885427+454171810+453558043+452976563+452234830+451244948
2998+450244953+449456475+448856297+448397223+448031083+447597067+447025910
2988+446406582+445750762+445103666+444769013+444886623+444990470+444505955
2978+443521948+442661214+442314989+442302303+442187265+441735177+441069904
2968+440414153+439721494+438794692+437791395+437176551+436979040+436596079
2958+435591670+434228628+433046623+432348159+432142099+432160832+431924674
2948+431116872+429905326+428742053+427872527+427153697+426375332+425680274
2938+425470287+425847965+426344262+426326015+425643365+424793753+424362031
2928+424309586+424016431+423156671+422189484+421644219+421347762+420833080
2918+420087906+419358893+418661819+418003775+417614628+417560862+417571949
2908+417447944+417191837+416704855+415846729+414740628+413679082+412865268
2898+412427255+412416029+412637799+412720306+412401537+411664530+410733384
2888+409978826+409587941+409341843+408957561+408493065+408113336+407713658
2878+407132491+406507186+406069277+405737718+405202462+404392088+403676803
2868+403473489+403668983+403610978+402826844+401593124+400579818+400132873
2858+400113272+400210863+400168149+399831168+399216706+398468891+397677528
2848+396873236+396170115+395652619+395149302+394425815+393588819+393010189
2838+392855948+392921565+392932756+392828249+392685511+392452864+391907807
2828+390982256+390007076+389379477+389011078+388405583+387363917+386321695
2818+385814208+385848823+385997434+385882570+385360069+384483244+383575523
2808+383076029+383006033+382859751+382311253+381643686+381159520+380650225
2798+379846594+378985756+378526022+378506455+378445530+377827732+376659733
2788+375504454+374893294+374803801+374824723+374660855+374264131+373635593
2778+372826783+372073998+371615793+371354334+370952188+370268842+369455862
2768+368660780+367945321+367462580+367366413+367488541+367368255+366704616
2758+365668545+364739554+364277630+364232171+364231407+363945133+363322886
2748+362513485+361715449+361124655+360820934+360646014+360339791+359782605
2738+359009036+358139336+357424607+357105595+357052211+356811258+356179905
2728+355452629+354946359+354600898+354231386+353855237+353514364+353045211
2718+352314356+351487056+350832661+350414076+350111815+349811292+349460409
2708+349037063+348558631+348114015+347815751+347684343+347621368+347506469
2698+347233576+346690465+345875017+344989851+344275817+343833009+343657011
2688+343667681+343676474+343508296+343162070+342747031+342329975+341920635
2678+341527560+341141679+340692302+340118468+339521036+339126606+339032004
2668+339095709+339105301+338910084+338428489+337699372+336903456+336250347
2658+335889455+335858801+335968556+335852163+335325491+334587338+333922238
2648+333377077+332892771+332544739+332402523+332316887+332122852+331886868
2638+331676498+331324573+330742294+330188027+329888859+329664205+329230293
2628+328628343+328110082+327808238+327669289+327585426+327551054+327694660
2618+328040121+328283681+328051660+327360077+326589185+326069116+325859720
2608+325803521+325656057+325267779+324703919+324147255+323723144+323442257
2598+323255207+323150909+323176175+323299554+323322944+323056515+322556083
2588+322089572+321835550+321668137+321325248+320765698+320204515+319811058
2578+319570452+319409086+319266974+319103523+318944173+318823053+318662522
2568+318358905+317960339+317615399+317386679+317225035+317088936+316989607
2558+316909498+316762451+316502764+316235432+316141525+316267684+316413793
2548+316292916+315829428+315225671+314726803+314462285+314486370+314739036
2538+314978913+314936130+314518310+313847719+313212439+312933603+313109253
2528+313510251+313796664+313788254+313541913+313234751+312969782+312725700
2518+312509179+312410511+312448358+312531630+312621575+312766954+312940519
2508+312982294+312805115+312581469+312550224+312624460+312426498+311820759
2498+311161325+310844814+310835743+310826638+310702946+310628884+310731445
2488+310894687+310897537+310661067+310302017+309961386+309664617+309421438
2478+309350018+309514303+309730755+309764745+309624788+309458800+309307825
2468+309154766+309049842+309033646+309070660+309121054+309147850+309071181
2458+308857892+308619614+308482855+308395655+308215244+307949441+307736325
2448+307626883+307549589+307458670+307377449+307309330+307211217+307057254
2438+306869579+306684233+306534128+306473550+306559811+306784361+307070809
2428+307336369+307510733+307562830+307559737+307596403+307661950+307691561
2418+307695454+307717141+307753876+307789465+307801386+307736534+307598488
2408+307501627+307523036+307575898+307552925+307544445+307774972+308292504
2398+308845485+309142393+309134539+308987527+308892959+308929348+308970358
2388+308731872+307990208+306671269+304655814+301638173+297311742+291666686
2378+285061064+278006048+270885744+263880514+257108174+250693563+244666658
2368+239027145+234050855+230238654+227782944+226468211+226285732+227748519
2358+231445874+237602761+246260870+257539131+270769160+283278604+291338116
2348+292658514+288058026+281357784+276599267+274588068+273567342+272357047
2338+271190160+270530778+270185855+269592212+268689408+268075154+268211810
2328+268938025+269853236+270767127+271774664+273191923+275334824+278148264
2318+281127917+283723741+285777149+287536168+289332791+291312936+293416965
2308+295493658+297373710+298882860+299897452+300473198+300880452+301398679
2298+302067671+302718173+303233167+303665828+304070650+304350564+304408395
2288+304372946+304483952+304772867+305041486+305128789+305007843+304673573
2278+304152080+303590376+303157333+302884370+302706357+302590207+302540438
2268+302533383+302510897+302431308+302327635+302304489+302442291+302710319
2258+302989676+303135750+303021755+302629097+302137076+301826856+301844059
2248+302097316+302398048+302652904+302888401+303119694+303279600+303310392
2238+303236434+303088588+302858617+302598235+302455463+302535016+302789594
2228+303078405+303268374+303293571+303196918+303113994+303161364+303324503
2218+303460463+303426820+303239458+303082923+303125671+303344208+303544499
2208+303526740+303257704+302920237+302744204+302773329+302876237+302947311
2198+302965522+302926701+302872067+302906578+303057587+303188890+303154552
2188+303001076+302934590+303068639+303264725+303308272+303201819+303155943
2178+303306465+303566499+303755842+303776452+303654533+303485660+303375036
2168+303383446+303490630+303647721+303863616+304137761+304330267+304284808
2158+304074681+303936149+303977334+304117325+304259645+304380939+304488122
2148+304576330+304625890+304643649+304698110+304842793+305015142+305116382
2138+305182138+305350176+305643888+305906772+305994180+305938850+305872504
2128+305863572+305913097+306053888+306350171+306804658+307335952+307838921
2118+308212533+308381128+308374455+308354853+308479136+308742263+308999865
2108+309129256+309154071+309208636+309384459+309664686+310020956+310447569
2098+310849958+311074230+311129872+311220477+311486037+311842898+312107937
2088+312193642+312167576+312160868+312234756+312359838+312513002+312710547
2078+312938920+313148073+313320630+313469554+313577432+313623517+313681070
2068+313890815+314267277+314600331+314664905+314497353+314337725+314340852
2058+314460825+314583753+314664140+314735005+314848618+315005917+315130304
2048+315155536+315166032+315365489+315806977+316237760+316369758+316231956
2038+316079905+316051788+316103885+316190564+316324855+316489141+316601016
2028+316609287+316601190+316723387+316985159+317300696+317718203+318324950
2018+318911052+319092923+318845748+318557424+318504075+318605281+318699118
2008+318762024+318825590+318904657+319038393+319243967+319429070+319467369
1998+319390805+319472270+320030707+321025593+321902522+322089606+321619863
1988+320991325+320590882+320505734+320642910+320819151+320897488+320908262
1978+320945310+321012560+321054092+321064553+321169026+321599462+322426935
1968+323292777+323658674+323401663+322911275+322590838+322543641+322719048
1958+323085431+323560631+323947937+324092516+324045597+323981023+324013797
1948+324241891+324912969+326226972+327768896+328502531+327859710+326503306
1938+325489826+325214257+325431056+325781278+326079438+326326266+326585918
1928+326940728+327622996+328823699+330192441+331125047+331677054+332267570
1918+332564792+331894062+330643208+329954580+330303621+331174468+331769154
1908+331737736+331350535+331071420+331069370+331233099+331481003+331880856
1898+332537961+333358553+333970964+334234161+334630051+335498604+336226610
1888+336047901+335248406+334640790+334517272+334729832+335124575+335555150
1878+335881253+336088738+336325417+337014254+338797479+341797256+344769298
1868+345733114+344239221+341916673+340399633+340042286+340325467+340645870
1858+340715483+340620464+340657999+341036686+341798889+342966437+344582075
1848+346740651+349499057+352152677+352952485+351183162+348589841+347108146
1838+347034501+347551928+348100878+349082140+351148060+353927561+355985314
1828+356641968+356617605+356222375+354951294+353140126+352115281+352491882
1818+353512730+354163719+354469838+355238888+356693370+357966849+358193866
1808+357627540+357293235+358117024+360422473+363513654+365825045+366302956
1798+365612521+365430233+366984113+370081584+372552569+371986034+369256266
1788+367417885+367872788+369609234+371133155+372168009+373022000+373611960
1778+374085457+375398731+378473125+382907434+386545897+387448857+386173362
1768+384107269+381961935+380730022+381406834+383403869+384991426+385767011
1758+386508883+387161818+387638374+389252588+393131448+397944339+400647416
1748+400221185+398492211+397253174+397026469+397702829+398845527+399798951
1738+400887362+403740404+408859067+413035044+412515775+408904804+405299393
1728+402701519+401465296+401769295+403137272+405317778+409172901+415467834
1718+422609424+426428229+424999222+421058290+417690254+416244843+417075514
1708+419922127+423612165+426666715+429380287+433671616+439827391+444782985
1698+446273576+445297110+442427455+438604480+436437285+437315639+440446302
1688+444919258+451305456+459395779+464693914+463468222+459333151+456710740
1678+457006154+459714131+463077198+465696272+468290497+471653251+474006383
1668+473242442+471121714+470833285+473002878+475670192+476917466+477347207
1658+479129286+484133814+493074374+503091111+506602302+503820472+502605623
1648+504946591+507159141+505542077+501938126+499975219+500903863+504712866
1638+511070323+518064519+521268757+518990522+515537093+514566535+516225617
1628+518941483+521666316+524507055+526981585+527777744+527458662+528493655
1618+531892484+535393214+536014592+534603380+533829082+534647936+536404713
1608+538073457+539229917+540098679+540962227+541895180+542982896+544444572
1598+546445465+548852780+551152112+552735011+553468647+553833397+554394476
1588+555361419+556683763+558283554+560021146+561690133+563444026+566040788
1578+569947661+573732162+574735633+573525372+573326437+575255284+577513640
1568+578164664+577834530+578109439+580034046+584954955+594249456+605600805
1558+610375258+606851347+602609683+600896418+601222625+602583130+604222437
1548+606379518+610360105+616911631+625266367+634177455+641729289+643961301
1538+640862092+638354545+639676333+643446446+646582426+648620160+651936864
1528+657740818+664704048+671290260+678016185+685413500+691585784+694983814
1518+696865708+698282237+699196701+700545876+704004240+710277243+718886591
1508+727916609+732303826+728701925+722722738+719899549+720805672+724032988
1498+727821312+730507637+731706533+733201677+736986526+742794303+747693803
1488+748973816+747380455+745491819+744943877+745929171+747832126+750280243
1478+753606470+758228975+763954592+769439846+772216533+771450332+769815127
1468+770036514+772486020+775790213+778381101+780422102+783694390+789499734
1458+796477630+799837639+797315912+792832564+789810719+789060227+790140262
1448+791509108+791363417+789759351+788537587+789018174+791197498+794681094
1438+798739323+801271476+800409839+797533129+795044766+793693784+793395659
1428+794278635+796265280+798576671+800441952+802064299+803950363+805249839
1418+804345940+801576413+798717358+796699712+795751745+795896116+796730992
1408+797691749+798386772+798324978+797428170+796957244+798437444+801893723
1398+805940552+809194976+810874251+810782637+809917525+809948665+811396196
1388+812988236+813216782+812746344+813870865+817648415+823139647+828801455
1378+833705334+837654364+840594050+842209515+842631366+843128636+845023111
1368+848395283+852456640+856508266+859781249+861193329+860408639+858469331
1358+856673211+855586364+855135736+855102510+855374987+855789888+856137990
1348+856523488+857291566+858473501+859726684+860824166+861724450+862159786
1338+861669885+860224926+858411221+856881531+856001543+855935787+856560328
1328+857453244+858456819+859873835+861702415+863337343+864406117+865154454
1318+865876447+866784377+868222523+870113384+871632231+872293820+872816460
1308+874063804+875801814+877277218+878343420+879282768+880200430+881150413
1298+882259572+883422184+884206110+884006827+882325467+879366527+876008256
1288+872871234+870180321+868402135+867882901+868088162+868149122+867695018
1278+866628885+865056654+863689060+863202356+863281110+863109839+862574478
1268+862208721+862204828+862381938+862838614+863735353+864799123+865855872
1258+867306461+869357401+871484454+873206338+874689805+876241460+877822865
1248+879238491+880451080+881662627+883068730+884573675+886033230+887569802
1238+889254220+890952262+892783553+895075552+897660393+899878781+901324991
1228+902118578+902657692+903447317+904877679+906919236+909245780+911771122
1218+914824942+918555226+922246377+924957029+926673978+927970951+929073507
1208+930129492+931516132+933036022+934097498+935243914+937732207+941188486
1198+943600596+944300277+945135639+947933318+952325261+956536410+959292869
1188+960479184+960548554+960228742+960722745+963080082+966763169+969676233
1178+970457309+969811081+969176114+969522062+971499739+975016352+978333890
1168+979291519+978190771+977891811+980081631+983005747+984230014+983990276
1158+983943219+984384672+985134051+987209251+991312730+995961718+998722626
1148+998932753+998045467+997654060+998160644+999314567+1001236221+1004088881
1138+1007128034+1008996235+1008941670+1007809503+1007682301+1009662551
1130+1012498390+1014442703+1015834279+1017869718+1019776497+1019903838
1121+1018991181+1019684744+1022732448+1025692222+1025924661+1023401474
1113+1019834954+1016928563+1015984558+1017265752+1019945613+1023318063
1104+1026916697+1029526422+1030397999+1030656782+1031504656+1032547365
1095+1033021140+1032926746+1032559390+1033432913+1038105951+1045819881
1087+1051462504+1051268504+1046874337+1042760014+1041677337+1043909905
1078+1048262159+1052580561+1055229490+1056006951+1054875201+1051266071
1070+1046213999+1043038329+1043826564+1047351170+1051403004+1054466764
1061+1054926985+1052528498+1050316922+1051220334+1053361289+1052906281
1053+1050720006+1050927700+1054532798+1058729698+1061452029+1063530147
1044+1065635861+1066610659+1065776131+1064199521+1063255029+1062410770
1035+1059872013+1056063392+1054523136+1058020356+1064600242+1068950410
1027+1068573740+1066818978+1067971859+1071653626+1073741823+1071998392
1018+1068172115+1064398665+1061035946+1058561764+1058815820+1062520178
1010+1066938256+1067874407+1064411664+1060154360+1058560096+1059137926
1001+1059156763+1057523087+1055091305+1052603360+1050657448+1050056262
993+1050272784+1049515967+1047291323+1044790796+1042856562+1041589130
984+1041165749+1041588157+1042525628+1043494657+1043727235+1042682650
975+1040562061+1037767024+1034938970+1033457102+1034247214+1035788443
967+1035214366+1031678916+1026765097+1022522947+1020045498+1018661221
958+1016588732+1013435444+1010912675+1010175599+1009814429+1007505817
950+1002888525+997587749+992957736+989061951+985993672+984839054+986061514
940+988104530+988853979+987552209+984810486+981586993+978677822+976574402
930+975222030+974201286+973537125+974041624+975828637+976889279+975210839
920+971830117+969561612+969362190+969679292+968848725+966725356+964492232
910+963830226+965421918+967659769+967628699+964179579+959378018+956249615
900+955923130+957445800+959553460+961732923+963810694+965676809+967552447
890+969422038+970143405+968393579+964664754+960710719+957093388+953174316
880+949489978+947991149+949399824+951896041+952997624+952127646+950801270
870+950511903+951137764+951708644+952296484+953643643+955135381+955172708
860+953776197+952839977+953322093+953906735+952943476+950527612+947920806
850+945865834+944369994+943433496+943143990+943107637+942620029+941758323
840+941375813+941506074+941393538+941418492+942914887+946110367+949841416
830+952790208+953947190+952866182+950340423+948038276+947156343+947859916
820+949687592+951852250+953239655+953197671+952803206+954357433+958547104
810+962602414+963166551+960771749+958854752+959082951+960281569+960872259
800+960389170+958924609+956737917+954608153+953164863+952347225+952470187
790+954518278+958082713+960589704+960281291+958458272+957310535+957700412
780+960026262+964565008+969906795+973285919+973567848+971938065+968904958
770+963761342+957942721+954940755+955890460+958342956+959856937+960292691
760+960100498+959335687+958458758+957523581+956260111+955973524+958606396
750+963465858+967408007+968990316+969639046+970623783+971594828+971766238
740+970902377+968735912+964797656+960066994+957208773+957378376+958318975
730+957321309+954849072+954090587+957774578+965121360+971540055+973336939
720+972227223+971799463+972305282+972592494+973102901+973347782+970911830
710+966415762+964327704+966757748+970586457+971053490+966555059+959126881
700+951324119+945154824+942722903+944744719+949029479+952255195+952090111
690+946811577+936249783+924358207+917665021+918872188+923686400+925980970
680+924774637+923786493+925207749+926841148+925055872+917073080+900616831
670+877457872+860402175+864845833+884961954+903300722+912635052+914908978
660+913081788+908193480+902087021+898135558+897953374+899965876+901106662
650+898946314+893045464+885705147+881147076+882413049+888705445+895934478
640+899462977+897432333+892630633+888235353+883985070+879568452+877304048
630+878696110+881171683+880367322+875092333+869013539+866471168+867021751
620+866160948+861501951+856143690+854971555+859059464+865777535+872068749
610+876638080+880445241+884607943+887024502+883503163+873968994+863451685
600+856375156
##END=
