##TITLE=<SNM>
##JCAMP-DX=4.24
##DATA TYPE=INFRARED SPECTRUM
##DATE=3/5/2025
##SAMPLING PROCEDURE=Instrument type and / or accessory
##ORIGIN=Admin
##XUNITS=1/CM
##YUNITS=ABSORBANCE
##RESOLUTION=4
##FIRSTX=4497.3318
##LASTX=599.83466
##DELTAX=-1.4281778
##MAXY=1.7101686
##MINY=0.17871124
##XFACTOR=1
##YFACTOR=1.5927186e-09
##NPOINTS=2730
##FIRSTY=0.19964796
##XYDATA=(X++(Y..Y))
4497+125350429+125475694+125354985+125159309+125059894+125228682+125547472
4487+125514708+124749618+123569140+122894540+123366119+124509455+125083966
4477+124465754+123336967+122772185+123098515+123820007+124238735+124068712
4467+123668789+123640160+124175780+124977273+125731126+126325575+126644711
4457+126594854+126321337+125931799+125111117+123653436+122229258+121835604
4447+122548291+123462662+123736965+123250622+122452806+121896285+121791697
4437+121916438+121953375+121754358+121331663+120878730+120720177+120981344
4427+121387442+121505522+121108826+120345047+119613180+119206445+119032231
4417+118782974+118386784+118090392+118054082+118098045+117942823+117565531
4407+117207775+117058203+117044675+116970633+116725249+116249675+115525377
4397+114818256+114592098+114873455+115114058+114992564+114844087+115017768
4387+115361697+115546558+115428900+115041092+114555058+114166839+113831939
4377+113401235+113038071+113009283+113154878+113141640+113034282+113047567
4367+113083484+113026011+113097097+113516620+114127854+114586728+114689099
4357+114500561+114342139+114505117+114841234+114840176+114253708+113444843
4347+112998655+113147712+113652298+114055103+113998753+113546690+113211734
4337+113361080+113705832+113774401+113637189+113610066+113559114+113152240
4327+112543215+112205152+112275629+112523249+112808143+113188821+113580015
4317+113707909+113593993+113623127+113866705+113889973+113594826+113585732
4307+114157867+114665214+114556144+114301900+114605009+115341255+115861896
4297+115822994+115387482+115078366+115517069+116799600+118139351+118621867
4287+118302301+118032030+118133578+117890000+116713461+115269018+114764254
4277+115460270+116550202+117306113+117755875+118244641+118802799+119141329
4267+119060046+118681014+118311684+118158698+118204177+118358164+118620613
4257+118953783+119178032+119244093+119389220+119795421+120391769+121044196
4247+121533561+121545471+121227149+121313148+122094179+122853300+122893109
4237+122415149+121917121+121451679+120869262+120232693+119740072+119595563
4227+120026884+121078925+122282212+122874079+122590898+121998769+121820157
4217+122173161+122686860+123032697+123108245+122961275+122736184+122588372
4207+122591786+122750433+123032697+123396114+123808668+124172019+124311748
4197+124223251+124115847+124020839+123760813+123471709+123565211+124015122
4187+124376724+124587127+124966476+125380330+125252717+124548169+124009312
4177+124255697+125165025+126166096+126750787+126804265+126738138+127089196
4167+127812343+128273940+128030567+127309983+126709734+126628834+126892462
4157+126885679+126322067+125746404+125868245+126634242+127399743+127767809
4147+127817910+127714949+127511217+127267237+127079176+126971883+126921530
4137+126986722+127306250+127945514+128806884+129680903+130299583+130396238
4127+129918007+129214011+128794768+128819448+128979217+128958691+128826540
4117+128836710+129062166+129426322+129897826+130397838+130696494+130659828
4107+130415109+130106152+129820922+129846173+130440360+131282766+131771691
4097+131853760+131939599+132142124+132231856+132151518+132032381+131922647
4087+131896759+132172942+132812786+133471069+133655575+133250600+132729182
4077+132734712+133350080+133935014+133892099+133326195+132670325+132098929
4067+131723022+131845929+132498478+133099541+133030196+132375140+131835413
4057+131956580+132562134+133055382+133243471+133490324+134002703+134514400
4047+134791922+134911713+134935524+134768869+134444774+134217110+134254281
4037+134444400+134649779+134983725+135602854+136351599+136857870+136908298
4027+136600417+136216118+136023388+136165447+136666628+137414905+138105578
4017+138394317+138201588+137772315+137436639+137339076+137337168+137232813
4007+137117559+137269909+137729765+138248591+138615451+138801033+138867103
3997+138928449+139078273+139192442+138971383+138334328+137648978+137475896
3987+138109218+139280321+140253175+140435884+139979929+139493287+139323367
3977+139565701+140358287+141506207+142275048+142188441+141566131+140945008
3967+140599368+140734484+141442775+142366510+142915790+142841514+142325972
3957+141666612+141139123+141067785+141829955+143584093+145747800+147029901
3947+146761913+145934449+145856739+146330311+146161477+145086991+144041854
3937+143864365+144829444+146839435+149127734+150221165+149280318+147370050
3927+146446838+147296111+148825495+149485266+149284397+149524242+150688778
3917+151515297+150591636+148361353+146407319+145447124+145198933+145832545
3907+148450084+153619848+159899893+164587880+166205816+164904237+161073821
3897+155962606+152273557+152114200+154749888+156755117+155960333+154866218
3887+156577919+159962427+161648642+161670104+162157467+161931786+158881420
3878+155421897+155436436+159213289+164447037+169335220+172305612+171711650
3868+169017272+167492987+167370950+166148727+162982985+160093464+159826169
3858+163211791+170522789+180136064+185189657+179818415+169738960+161730842
3848+157730076+157666588+160777392+165792402+171500789+177071047+181145966
3838+181796531+179147941+175727085+172935894+170260340+167590363+165985655
3828+165925404+167050944+170045400+176004204+182619374+184632855+182049887
3818+179656392+178084093+174604296+169673264+166561131+167288208+171645242
3808+177004789+180345933+182635410+186457574+189978218+189078059+185111292
3798+181943043+179510029+176479049+173909272+173462588+174939664+177103287
3788+179380714+181812811+184271946+186966473+190751943+195393095+198614036
3778+199061206+198856819+201097047+207075611+215944482+225063882+231750249
3768+236070591+239838565+243833362+248666869+255959212+266296139+277347251
3758+286316079+294132085+304541051+320213087+339562721+355661101+364118784
3748+370103130+379514207+391872698+401691014+407217898+412649690+421518842
3738+434902954+451772177+468264025+479031094+482278530+481665838+482025475
3728+485245293+489965894+494019801+496897234+499010710+500080827+500356187
3718+501658514+506181820+515341114+528763996+542392819+550463321+553128565
3708+555309964+559958226+567299537+575342870+580117997+579535729+576587005
3698+575498476+577899699+583485899+592016744+603491824+615419125+621299733
3688+617541432+609607824+603869648+602037820+603362152+606988386+613511477
3678+623478176+632260655+632372475+626788408+624503160+626276496+626072577
3668+622107364+618932303+618961718+620007098+619504729+618652902+620571440
3658+625654560+631258237+636197128+642891915+653293472+664912406+670690101
3648+666638739+657888968+651304953+649557962+651280852+653465170+654917864
3638+657055852+660999884+665989895+671527183+679001721+688863785+696555752
3628+695881161+689095435+683251950+681860181+685519422+693288406+701977776
3618+707622619+709035943+707243970+703745200+701311942+702190939+704522704
3608+704855097+703876181+704720149+707267547+708590907+707973349+708189655
3598+711298401+715755056+718335312+717943566+716456742+716197698+718048650
3588+721075814+723217769+723299651+721595323+719270518+718227309+719169101
3578+719899303+717904721+714281630+712522963+714340534+718687913+723270386
3568+725618168+724599583+721618301+718530661+716274191+715744503+717187767
3558+719017687+719407337+718593457+717957936+717717679+716946911+715416302
3548+714294878+715160327+718343395+721822407+722729096+720683319+718252008
3538+717521956+717886159+718203956+718720921+719773935+721497723+724357605
3528+728089597+730642384+729538699+724882877+719977592+718328800+720110819
3518+722043054+720800379+716332796+712127774+712060188+716564146+721698611
3508+722958276+719842120+715451629+713151075+714303560+717674717+720615433
3498+721252975+719769968+718347961+719442814+722972272+726297025+727844625
3488+728583284+729100548+728143561+725121712+721729971+719902446+719455089
3478+719166856+719623269+722806113+728413757+732740628+732777004+729758897
3468+727170258+726780159+727465004+727109184+725102476+722734934+721548843
3458+722200606+724341812+726731284+728324091+729439976+730915349+732530759
3448+733191578+732275757+730655108+730026697+730820743+731638515+731143032
3438+729585253+727739989+725673255+723266269+721194670+720568355+721519728
3428+722855961+723146739+721981680+720333861+719903868+721481257+723772455
3418+724905481+724818284+724404459+723188728+720092481+715726016+712274324
3408+711441208+713035961+715419146+717378999+719173742+721024020+721804369
3398+721053135+720940791+723550236+727425036+729202189+728026651+726172855
3388+725480675+725446470+725245208+725402236+726409220+727713718+728861039
3378+729747969+729519164+727037331+722957977+719880292+719613015+720980010
3368+721480433+721095648+722291918+725669962+728049629+726538704+722749230
3358+720754872+722332410+725504626+727347121+727136727+725877586+724276771
3348+722754769+722184589+723175331+725109437+726654641+727400187+728420343
3338+730549050+732724836+733077063+731655206+730456840+730567088+730827105
3328+729513176+727007318+726021216+728562552+733057079+735687257+734882883
3318+732329048+729809942+727702791+726024135+725153147+725582990+727007542
3308+727823817+727175273+726893776+729316929+733735637+736746858+736197336
3298+733364324+730817150+729640639+728998831+727807426+726561907+726796700
3288+729024055+732123819+734633420+735939714+736279742+736359378+736864367
3278+737399743+736140976+731998302+726891605+724109938+724877114+727840658
3268+730980615+732914946+733124740+731959980+730561774+730017716+730309766
3258+730531012+729982837+728660975+727060159+726099580+726587280+728088399
3248+729136324+729129513+728703038+728205833+727535135+727011210+726629194
3238+725618692+724511339+725498339+729341329+733927318+736765420+737089804
3228+735265273+732133325+728714789+725636431+723483399+723247408+725227021
3218+728046186+729716159+729540495+728678189+728847043+730297267+731131505
3208+729519313+726261323+723592150+722121269+720729200+718963199+717732948
3198+717557209+717645228+717032385+715678788+714151472+712930652+712321402
3188+712556120+713565724+714596733+714307676+712003380+709069026+708177829
3178+710487740+714338588+716732027+715704760+711957124+708630949+708507603
3168+711007997+712840612+711995371+709491908+706851326+704239261+701507741
3158+699402685+698943053+700132438+701708853+702195280+701361266+700380329
3148+700529573+702005544+703823489+704593509+703552919+701065324+698236278
3138+696003161+694586168+693758067+693238334+692461653+690469016+687138650
3128+684321505+684174806+686432848+688686998+689349164+689138097+689421690
3118+690461756+691431990+691417545+690191785+688299967+686583364+685383651
3108+684072117+681801875+678974552+677235944+677741981+679648095+680555608
3098+678964972+676278060+675326462+676779007+678275411+677443194+674547461
3088+671611610+670250902+670731790+671922447+672059716+670486668+668397181
3078+667323509+667339825+667225909+666094680+664233699+662474134+661305033
3068+660691143+660418028+660331057+660334949+660434794+660724899+661241638
3058+661822072+661891754+660631266+658065456+655584895+654282493+653212638
3048+650741434+647479926+646048114+647715767+650697499+652191508+651455319
3038+650121182+649664319+649614846+648782778+647315264+646337919+646108440
3028+645720212+644357783+642108124+639702709+637867924+636835418+636351835
3018+636134406+636101549+636247873+636574204+636938481+636889906+636095561
3008+634937313+634147833+633845902+633521817+632907029+632230716+631750127
2998+631483749+631231367+630523769+628882761+626569034+624630249+623662148
2988+622997587+621674527+619699068+617725966+616009738+614297139+612492443
2978+610954049+610016448+609552924+609396682+609893438+611361962+613167220
2968+614181015+614110660+613430119+612305514+610515374+608142406+605786877
2958+604142838+603427755+603074330+602090998+600158314+598314098+597831226
2948+598411922+598515173+597575813+596486198+595829384+595336819+594948516
2938+594770082+594258208+592862958+590978999+589309213+588097524+587258570
2928+586444915+585107110+583206872+581621512+581271717+581994996+582592757
2918+582084026+580706140+579303706+578159566+577005209+575826303+574934770
2908+574284168+573375570+571962057+570456409+569438797+568961801+568613765
2898+568167943+567641061+566800087+565375198+563620461+561991204+560587871
2888+559377081+558416464+557572758+556645411+555744260+554949765+554003781
2878+552830713+551816133+551301077+551266984+551417463+551273309+550588389
2868+549708832+549059876+548531535+547737863+546498407+544932844+543513457
2858+542863640+543049558+543397519+543348046+542977294+542403147+541294110
2848+539322281+536776231+534463701+532993418+532139458+531138162+529776781
2838+528690759+528233784+527689426+526311092+524616606+523745955+523887714
2828+524087480+523449189+522042077+520596118+519562864+518725519+517753377
2818+516691493+515624220+514395579+513094561+512201531+511784075+511208768
2808+510084201+508864616+508139354+507876231+507643908+507138769+506286718
2798+505193810+504133124+503307007+502597163+501732912+500575823+499074479
2788+497235615+495366063+494058571+493632096+493682169+493424210+492495516
2778+491213846+489984044+488768351+487425307+486247786+485567694+484990291
2768+483823361+482278755+481366003+481438192+481674370+481146029+479734837
2758+477954840+476381194+475232039+474240249+473023583+471579721+470242440
2748+469311612+468832932+468502485+467803158+466458579+464691081+462967779
2738+461632781+460747573+460179713+459815211+459503700+458816685+457337046
2728+455322929+453604268+452708917+452385356+451972279+451066001+449818723
2718+448613583+447571609+446519530+445304585+443954056+442638780+441553283
2708+440732966+440025779+439284051+438450075+437484594+436405346+435386050
2698+434623140+434027849+433218385+432045879+430963262+430437878+430172772
2688+429502111+428404900+427489902+427111778+427004822+426615434+425523612
2678+423778380+421958228+420690816+420089687+419786783+419390172+418743087
2668+417877750+416940486+416100896+415391726+414692324+413912948+413078560
2658+412210192+411261589+410231852+409241072+408420194+407751703+407087254
2648+406344254+405581157+404846502+404117385+403421501+402817827+402260408
2638+401685775+401159492+400743982+400340897+399816336+399186803+398601728
2628+398151714+397685683+396919368+395819500+394696616+393817769+393168813
2618+392642231+392194949+391805523+391490046+391317263+391277482+391214274
2608+390920053+390236780+389166850+387983042+387087317+386651936+386498688
2598+386356666+386118131+385801643+385387967+384800347+384020111+383153052
2588+382387673+381883283+381623753+381422154+381155177+380865896+380554235
2578+380098645+379497179+378950014+378622037+378491879+378412841+378198856
2568+377733760+377072043+376385926+375827721+375471078+375303646+375239653
2558+375178990+375070799+374956771+374960064+375126485+375269067+375116493
2548+374622731+373999485+373449962+372984867+372540878+372206801+372186779
2538+372492602+372830496+372903396+372719012+372498178+372366037+372256873
2528+372120840+372070917+372201562+372389314+372426250+372231874+371842336
2518+371357818+370940063+370680383+370472684+370150171+369701616+369290522
2508+369099140+369141353+369223198+369150934+368906635+368537941+368057165
2498+367585633+367366408+367442078+367497988+367194523+366560686+365938638
2488+365582743+365395103+365084939+364559368+364049252+363798217+363770561
2478+363785418+363801061+363899409+364084766+364249466+364284681+364143970
2468+363840393+363416725+362934340+362539712+362452104+362702914+362958478
2458+362833559+362334109+361773135+361342506+361001880+360725098+360615934
2448+360731535+360919287+360939009+360719447+360364338+359929855+359416408
2438+358986677+358887019+359052542+359063732+358642571+357987627+357479083
2428+357234074+357123675+357095121+357229770+357489262+357660661+357637533
2418+357556474+357555988+357567701+357462018+357291705+357248856+357413480
2408+357668819+357841303+357816753+357573539+357228011+356990448+356951865
2398+356968930+356857858+356636612+356467871+356439654+356543765+356768978
2388+356992132+356847417+355985186+354431449+352456028+350191549+347593368
2378+344601382+341166006+337322006+333354959+329711547+326719412+324460098
2368+322774332+321411491+320343769+319760566+319721047+320282433+321988931
2358+325571268+330940114+337083134+343309458+349825588+356510907+362123042
2348+365237401+365480353+363945627+362145346+360274822+357502772+353648331
2338+349383133+345283907+341463596+337898997+334704253+332100308+330261257
2328+329170408+328555058+328074619+327724225+327940457+329095674+330940226
2318+332714161+333813917+334286385+334683483+335482955+336690602+337994464
2308+339164688+340164935+340982483+341569541+341941340+342174188+342312541
2298+342367479+342373541+342413659+342613574+343041471+343546534+343832186
2288+343790983+343644845+343686011+343985808+344375159+344615379+344594459
2278+344417971+344282761+344240735+344161660+343957329+343715986+343529207
2268+343333596+343066731+342847356+342840807+343031928+343235211+343273644
2258+343120284+342911724+342797322+342781753+342783961+342789238+342819177
2248+342826923+342755258+342646394+342609831+342726704+343000904+343349613
2238+343660226+343891052+344090892+344313448+344549663+344744526+344867012
2228+344954695+345050610+345128937+345188290+345367922+345790954+346329698
2218+346709282+346805273+346719012+346657937+346831618+347345177+348098993
2208+348837428+349331938+349547608+349689517+350057387+350775875+351677026
2198+352485817+353085000+353559975+354040302+354599966+355267409+355970554
2188+356505369+356763589+356941911+357314010+357892385+358490820+358980652
2178+359378461+359823909+360458570+361201982+361789302+362140668+362483689
2168+363055703+363941585+365221160+366971294+369059359+371211081+373411005
2158+375997697+379199477+382802322+386437126+389945103+393329621+396617362
2148+399837443+402924595+405723552+408252950+410783133+413553087+416579577
2138+419728178+422858742+425987959+429324725+433011135+436895702+440702279
2128+444366086+448105638+452136679+456323812+460199659+463321167+465445084
2118+466432795+466256868+465043720+462978071+460316570+457487899+454949520
2108+452997113+451859148+451775058+452764940+454437757+456120230+457074672
2098+456629710+454371331+450359151+445050706+438970071+432533615+426050381
2088+419627547+413181025+406757743+400699898+395354067+390822902+387051728
2078+383933252+381327586+379138290+377326034+375816793+374523597+373436228
2068+372564791+371845105+371176652+370503371+369835554+369229373+368744667
2058+368406361+368189606+368011285+367775930+367480885+367246017+367204740
2048+367399640+367816534+368484202+369471651+370826146+372682674+375433655
2038+379528689+385034841+391603475+398839328+406411915+413820850+420363175
2028+425405280+428572892+429717406+428881185+426405303+422921800+418966616
2018+414632746+409820234+404730789+399863976+395600686+391963187+388690864
2008+385468876+382170880+378938338+376014126+373515004+371357593+369352982
1998+367405103+365699840+364589718+364089557+363612635+362545700+360967525
1988+359388677+358064569+356990336+356217397+355751403+355380876+354895273
1978+354319778+353828524+353536136+353401824+353325257+353327614+353471619
1968+353564503+353254452+352554600+351903624+351575010+351401928+351164403
1958+350901168+350706642+350495089+350136387+349687646+349373515+349372505
1948+349724208+350467695+351608055+352674392+352698343+351299014+349403791
1938+348208381+347968161+348149028+348256732+348217587+348173877+348184730
1928+348276828+348702517+349671179+350783135+351473930+352004853+352878161
1918+353464733+352672671+350871641+349581888+349607485+350448572+351063510
1908+350867375+350116591+349381786+348859657+348423228+348095138+348149402
1898+348806554+349870458+350750577+351209835+351782522+352714285+353078039
1888+352031873+350273543+349024843+348560197+348457732+348417053+348409344
1878+348490964+348656898+348869387+349492970+351423372+354996128+358597513
1868+359427822+356808272+353037285+350394308+349409030+349511719+349955034
1858+350188518+350074003+349871768+349846133+350087887+350702863+351940710
1848+354232246+357766419+361252353+361928628+359046367+355398016+353513645
1838+353423829+353829160+354114325+355172841+358043725+361841208+364041281
1828+363815881+362817766+361893974+360361194+358338395+357034982+356926567
1818+357362098+357724467+358258908+359625230+361769243+363533186+363841740
1808+363043802+362463406+363171079+365455504+368635504+371180993+371923133
1798+371512413+371990569+374885180+379589016+382897602+381936723+378342411
1788+375935163+376253784+378340128+380853059+383335378+385517077+386954689
1778+388104181+390578678+395683953+402640142+407927143+408503086+405787958
1768+402790658+400872718+400795102+403082222+406593193+409129738+410432777
1758+411774698+413235738+414644572+417461604+423031114+429842924+434173089
1748+434449684+432696369+431448305+431949776+434190565+436982374+438855855
1738+440502327+444634972+451844366+457495570+456946796+453002577+449649495
1728+447729273+447443284+449000053+451880255+456034493+462907865+473451929
1718+484829334+490551118+488390452+483237014+479682333+479351324+482496783
1708+488676739+496147497+502524225+507984871+515316003+525051202+532919769
1698+535959020+535809365+533146965+529152262+527613831+530603310+537006795
1688+545576823+557249459+571506804+580917469+579965048+575343656+574082868
1678+577827921+585262117+593256426+599395329+604944031+611631671+617274118
1668+618854837+618866027+621886267+628447604+634881702+638086176+639778304
1658+643947998+653480738+669421005+687516325+695594799+693346337+693074270
1648+697924992+702414056+701324068+697554952+696129726+698588581+704839230
1638+714097508+722785231+724211205+717575471+710409300+707470830+708241149
1628+710269338+712143567+713921095+714692761+712923167+710229819+710054828
1618+712361669+712350891+706747290+699293035+694034176+690963527+688262020
1608+684801870+680932534+677581136+675248248+673935891+673582765+674279136
1598+675945517+677837710+678728382+677902452+675755183+673242064+671104301
1588+669622941+668688782+667949375+667040515+666086298+666231799+669092729
1578+674829333+680165882+680766001+678721346+679793596+685097663+690329652
1568+691634076+691318897+693356666+699134810+709624536+726630691+747135990
1558+757445337+754672875+752118442+755302034+762442458+770867695+779158358
1548+787569599+797777603+810886505+825811854+840207965+849871012+848163091
1538+837639011+829223579+827100859+828740819+830223826+830982769+833334219
1528+838215852+844210227+849879544+855481125+861146925+865623489+868488311
1518+870264865+870142716+867765893+865617202+866909500+873049077+883497114
1508+894886793+898996311+891638084+881848172+877127309+878083772+882697979
1498+887309866+887879596+884527600+881986489+883742835+889072050+893726449
1488+893720611+889811457+885591467+883249148+882748874+883299220+884906472
1478+888342447+894010192+901151065+907081221+907545569+901746917+894945623
1468+892197636+894410321+898706131+901107279+901865923+905232664+913564119
1458+922965578+924065671+915379220+906016756+901082655+900337259+901882763
1448+903085395+901849756+898539074+895280635+893849721+895201972+899637146
1438+905781438+909548683+907916807+903999495+902359385+903477217+904585917
1428+903846958+902615135+902745443+904416015+907326044+911354728+914528141
1418+913308668+907956850+902614911+899744850+898822068+898129140+896913185
1408+896236424+897132186+898516171+898643934+898159678+899066218+901513321
1398+903637612+903833935+901671397+897635678+893438814+890896057+889873730
1388+888236240+884348267+879748955+877629828+879256540+883424737+888406141
1378+893383653+897903927+901061024+902402347+903039066+904231519+905653077
1368+906627278+908116647+911722448+916983029+921054300+921896023+920757010
1358+920010192+920244087+920440035+919989834+919644642+920415486+922252516
1348+924138646+925328854+926234271+927844143+930587713+933981774+936962607
1338+938650244+939253357+939820543+940925052+942293319+943645944+944874548
1328+945422873+944723358+943387050+942842168+943590258+944715275+945379611
1318+946028230+947464159+949323120+950455022+950583908+950673274+951463802
1308+952341376+952174918+950895344+949388086+948085983+946861196+946050385
1298+946288546+947509366+949029497+950275765+950766383+949926307+947563256
1288+944107522+940264682+936893898+934813991+933996893+933264221+931426517
1278+928371735+924600074+920556871+916958404+914658972+913532384+912455045
1268+910871369+909406999+908609361+907925863+906149982+902592532+897891802
1258+893505278+890134644+887076195+883504224+879851794+877285011+876358861
1248+876766100+877754223+878299030+877726904+876779273+877068779+878805665
1238+880145342+879704122+878658368+879094423+881214223+883374516+884405076
1228+884680062+884998384+885634129+886627191+888166183+890316596+892778819
1218+895100630+896933319+898183928+899161946+900552144+902870736+905723807
1208+908055123+909484765+910922939+913477746+917106825+920605970+922880927
1198+924169258+925770148+928364700+931108569+932855335+933659710+934448591
1188+935838788+937879326+940323361+942707519+944610415+946067600+947402186
1178+948685278+949798469+951022882+952917619+955404092+957951340+960784128
1168+964514548+968485151+970975740+971377740+970831062+970652479+971340317
1158+972870477+975021489+977441274+979997129+982912996+985978481+988109583
1148+988643088+988634855+989867276+992730526+995981705+998337646+999452483
1138+999736825+999954553+1000695159+1001959165+1003485807+1005162891+1006849480
1128+1008536444+1010790519+1013799719+1016038899+1015399337+1011810601
1120+1007525119+1004888504+1004936481+1007521452+1011940908+1017734545
1111+1024932226+1032610721+1037746233+1037562560+1032661990+1026796201
1103+1024041554+1025707485+1029630486+1032259317+1032238060+1031752232
1094+1033014816+1035531602+1038453906+1042606834+1047773109+1051262973
1085+1051819156+1051762647+1053422891+1056255004+1057944213+1056725938
1077+1053325066+1051073462+1052628321+1056942394+1060934552+1062933102
1068+1062715448+1060411002+1057185345+1055125797+1055251688+1056558731
1060+1057590938+1058053789+1058785487+1060726779+1063357406+1064538632
1051+1063188178+1061074889+1060595798+1062141301+1064189923+1064841685
1043+1063654696+1062969327+1065732957+1070986277+1073741823+1070896012
1034+1065193164+1061520750+1061666476+1064225175+1067196204+1069462329
1025+1070826106+1071526369+1071833090+1071464770+1069522057+1065824793
1017+1062082247+1060278224+1060654851+1062042205+1063530226+1064981573
1008+1065956298+1065670609+1064488485+1063912542+1064293735+1064067698
1000+1062168845+1059582302+1057679781+1056297592+1054484961+1052315613
991+1050932975+1051040529+1051711902+1050782459+1046953391+1041419022
983+1036711107+1034397230+1034174936+1034410328+1033355517+1030536502
974+1027018196+1023714250+1019937275+1014833198+1009574564+1006197793
965+1004610674+1002541844+998320731+992497679+986958819+983230120+981286958
955+979826404+978095282+976792205+976391777+975583436+972505302+967214333
945+962064675+959376566+958907653+958162482+955781842+953571402+953788906
935+955947178+957761081+957970800+956901844+955263755+953592809+952390251
925+952280826+953717877+956028461+957376445+956789499+955278949+953953119
915+952613518+950930596+949462933+948905327+949198051+949713818+949811268
905+949296849+948503476+947684432+946642420+945232463+943809109+942706097
895+941806668+940748938+939159425+937073006+935366058+935108212+936424012
885+938382668+939676539+939289732+937415129+935824642+936245803+938386261
875+940304725+940285115+937756803+933590177+930260559+930169546+932978757
865+935646957+935734452+933897497+932649582+933321628+934828511+935333949
855+934227794+932105823+929897030+928849480+930156373+933360623+936161900
845+936855203+935959965+934583314+932589256+929701008+927165435+926646899
835+928136717+930137961+931405710+931615579+930982004+930081676+929658869
825+930317517+932308956+935040551+936784323+936157859+934060737+932870155
815+933922870+936411962+938258947+938179311+937279582+937771622+940108627
805+942698538+944088511+943823255+941822760+938912357+937058486+937408168
795+939190336+941146298+942716651+943611739+943620197+943684265+945493378
785+948917826+951600846+951973806+950611376+948110159+944565207+941324208
776+940384436+941954789+944195616+944845432+942749658+938846492+935899938
766+936352834+939961404+943656572+944137984+941166656+937805303+936957443
756+938684973+941140086+942756544+942943585+942091833+941898429+944004084
746+947718562+950439679+950521186+948799344+947356156+947505025+948415831
736+947965630+945776148+943998695+944473071+946798550+949472887+951241733
726+951137547+948954950+945946423+944278770+945578478+949409343+952796742
716+952587022+949195656+946343259+946600207+948958243+950410264+948591496
706+943637935+938354900+935908770+936853481+938870068+939572278+938574350
696+936285397+932345257+926847712+921767661+919131271+918244116+916553036
686+913300435+910167065+907925564+905320983+902017861+899668956+899070484
676+898320074+894633962+887042814+876586694+866057000+861750262+868836421
666+881310925+890166080+892567752+890059349+886015097+882685405+879679423
656+876119128+872722148+870362241+868551631+866546720+864915966+864551090
646+864384257+862292674+858183830+854126031+851124016+848333816+845956020
636+845244605+845031966+842672582+838920307+837010900+838176034+841785128
626+846631509+849422382+846146504+837814675+830116272+827196738+828745085
616+831777413+833994888+835326256+836045531+834875007+830848794+825897254
606+823288108+824066436+826380163+827951639+827986442
##END=
