##TITLE=<SNM>
##JCAMP-DX=4.24
##DATA TYPE=INFRARED SPECTRUM
##DATE=2/5/2025
##SAMPLING PROCEDURE=Instrument type and / or accessory
##ORIGIN=Admin
##XUNITS=1/CM
##YUNITS=ABSORBANCE
##RESOLUTION=4
##FIRSTX=4497.3318
##LASTX=599.83466
##DELTAX=-1.4281778
##MAXY=1.7427108
##MINY=0.29606688
##XFACTOR=1
##YFACTOR=1.6230259e-09
##NPOINTS=2730
##FIRSTY=0.31770828
##XYDATA=(X++(Y..Y))
4497+195750589+196592716+197214387+197270300+197151349+197236109+197395916
4487+197419713+197468483+197825242+198398712+198717847+198333251+197045712
4477+195066212+193280947+192815282+193836716+195238394+195825360+195384061
4467+194468926+193697145+193419141+193687670+194319715+195012117+195524587
4457+195902830+196288106+196374684+195729473+194897537+195133509+196659922
4447+198240742+198797869+198413530+197598120+196663650+195874240+195413037
4437+195168765+194930552+194664833+194323902+193730252+192923821+192316326
4427+192250589+192629860+193117652+193423456+193266937+192452592+191289145
4417+190612755+190957744+191860191+192471633+192752189+193275879+193892243
4407+193694464+192561792+191634189+191815938+192726666+193419729+193437356
4397+192938125+192264526+191669701+191273886+191062610+190939473+190843659
4387+190685138+190117930+188756869+186875001+185475673+185309972+186046205
4377+186699936+186754949+186601661+186898780+187700235+188344105+188264358
4367+187704642+187270210+186984127+186374815+185461920+185032740+185728245
4357+187238003+188625304+189225913+188993796+188200164+187174617+186209885
4347+185406264+184765497+184565900+185188066+186424466+187484424+187795443
4337+187402308+186733998+186325714+186396555+186488679+186012473+185209954
4327+184978021+185628593+186363228+186289137+185626996+185299763+185448809
4317+185274166+184506626+183974178+184311767+185017169+185280391+185102076
4307+185062505+185390344+185793835+186036601+186182966+186250282+186000428
4297+185200295+183978070+182917819+182725677+183608880+185012744+186093212
4287+186346555+185767430+184644435+183382364+182472903+182416604+183366977
4277+184789478+185750426+185749949+185113185+184482113+184218689+184394286
4267+184973632+185689868+186022297+185751951+185401545+185690309+186598576
4257+187407560+187682295+187689236+187753669+187794580+187657488+187417861
4247+187169879+186881960+186590038+186443655+186527368+186837413+187405962
4237+188244141+189109129+189496957+189097323+188191497+187339546+186794024
4227+186546777+186693674+187234533+187760353+187935197+188022932+188350403
4217+188632484+188496805+188213991+188202680+188267718+187963200+187307963
4207+186679701+186393875+186554709+186922945+187065858+186947366+187004546
4197+187470597+188020600+188147960+187671406+186940976+186516571+186532124
4187+186660879+186705187+186679150+186435190+185911885+185579181+186016293
4177+187205539+188567151+189541229+190077386+190586001+191248270+191551706
4167+190960259+189782728+188770420+188144508+187665640+187383615+187577649
4157+187999006+187866082+186872669+185752061+185451618+186027843+186802874
4147+187362113+187792119+188123851+188215698+188052073+187718450+187396138
4137+187550050+188494124+189704873+190270979+190010879+189544185+189387757
4127+189447288+189264529+188524257+187444100+186727369+186992629+188158978
4117+189432524+190053167+190013651+189776907+189437060+188696549+187594340
4107+186634144+186149786+186048243+186194369+186596905+187203188+187893350
4097+188582355+188985460+188560045+187181025+185574003+184583123+184388631
4087+184806793+185772222+187054289+188057324+188389735+188271777+188148346
4077+188242489+188528462+188773156+188664415+188238596+187985253+188165937
4067+188336393+187951907+187104308+186246041+185566529+185079288+184968895
4057+185376444+186023601+186458271+186599366+186705334+186912533+187166244
4047+187515548+188074163+188676259+188911405+188612010+188110722+187894874
4037+188009803+187979157+187536719+187141785+187327372+187868084+188115679
4027+187918414+187763915+188107159+188833880+189402447+189467725+189284544
4017+189322057+189492312+189131440+187959325+186696227+186354726+187121440
4007+188273613+189103400+189561390+189981976+190531998+191031486+191159452
3997+190804089+190215635+189756764+189545213+189499785+189665339+190221456
3987+191129834+191989497+192299194+191794839+190655704+189528779+189195138
3977+189933096+191217697+192202958+192456797+192144603+191718012+191603597
3967+191970033+192627749+193264788+193758640+194142703+194420413+194576547
3957+194633654+194623114+194689713+195153965+196118917+196964992+196700962
3947+195281068+194135395+194623095+196268954+197250469+196719673+195666729
3937+195352332+196156467+197853814+199791852+200780583+200081148+198577486
3927+197847313+198327577+199032410+199010779+198644178+199030261+200378855
3917+201369036+200494389+198054788+195845503+195065551+195501928+196671674
3907+198895501+202665407+207349310+211235595+213059733+212586576+209999140
3897+206240949+203269579+202726737+204452214+206288893+206321284+205673245
3887+206644055+209084207+210653110+210490090+209747652+208538721+206504447
3878+205221829+206382026+209248989+211998985+214238164+216018526+216307106
3868+215224581+214596741+214762239+213871838+211021345+207944998+206823251
3858+208800915+214470592+223082720+229108201+226249593+217975991+210646224
3848+206931643+207180414+210541670+215347865+220031712+223982064+226802369
3838+227338233+225107648+221674633+218816869+216887149+215499096+214716995
3828+214835945+215903413+218456107+223293426+228798615+230693355+228547585
3818+226360739+225032381+222007301+217188455+213610727+213476004+216738471
3808+221195343+224201437+226240485+229650933+233596730+234602850+232830494
3798+231423748+231018182+230451635+229817680+230070821+231372848+233421133
3788+236329466+240296362+244899159+249555610+254416524+259763761+264923851
3778+269186561+273434601+279507475+288758662+301439485+316032438+329535814
3768+340181224+348445572+355108258+361156840+368247439+376822916+384781936
3758+390073297+394199834+401115735+414006255+432716269+451820042+465228853
3748+474718473+485754925+499710121+511643640+517989211+522369072+528285593
3738+535647879+542766940+548615410+552515393+553771735+553141544+552803386
3728+554254918+556904436+558889536+559040878+556897899+552005292+545274334
3718+539412680+536926218+538654726+543498747+548255768+549461209+546999646
3708+543215528+540384775+540445848+543740283+547785402+549884862+550616155
3698+552119835+555177361+559497435+564970692+571720269+578839917+583249378
3688+582443939+578472930+575299098+574975739+577267341+580892076+585366429
3678+591189376+596421060+595865823+589605196+583530687+580046497+576066417
3668+569211221+561466303+555290362+551316709+549116000+548496827+549589671
3658+551334337+551338230+549728049+550696948+557417659+567129168+571347626
3648+566151308+557728311+551506501+548434542+548147908+549637119+551276019
3638+552194275+552352447+551230774+549093194+548933737+554009011+562419375
3628+567120355+566326447+564738190+566103383+571691550+580442790+588138423
3618+590502997+588927814+588065268+590162415+594577642+599959969+604584746
3608+606120854+604219228+601806619+601925165+604958453+608981721+612383465
3598+615859722+620773593+626262641+629649439+630291454+630631229+632473251
3588+634397462+634317036+633165285+632851806+633409356+634086113+634766102
3578+635488764+635979549+636339154+637086349+638225540+639186617+639379126
3568+638496125+637019878+636036913+635793503+635276791+633467600+630779375
3558+629319654+631269572+636315357+640924121+641513842+638245811+633987912
3548+630962997+629814698+629954471+629961155+628865226+627073736+625316107
3538+623504713+621165589+618423379+616283522+616061523+618262232+621763169
3528+624424953+624872623+623661600+622367726+621733569+621259016+620351410
3518+618957792+617307545+615940002+615474263+615620757+614956926+612733154
3508+610166486+608869344+609113635+610103027+611004537+611407440+611245376
3498+610643903+609726051+608555167+607681604+608161885+610168653+612288312
3488+613094412+612390920+610572658+608109333+605646962+603736155+602199019
3478+600513516+599085378+599275500+601266403+602662554+600907348+596878278
3468+593929016+593701618+595028177+596320802+596833695+595970818+593590821
3458+590802962+589129504+589053081+589713275+589940269+589595464+589449741
3448+589548897+588788372+586784872+584913471+584456619+585049755+585762575
3438+586249394+586239662+585304585+583713354+582647429+583037221+584288789
3428+584740535+583773105+582550586+582218818+582453891+582288154+581327737
3418+579700369+577795218+576292713+575742875+576019667+576487903+576508432
3408+575707620+574296191+573204338+573256083+574134714+574618080+573821014
3398+571975430+570223933+569659442+570270757+570800359+569962970+567808680
3388+565509733+564161947+563991693+564325041+564635362+565493721+567417969
3378+569241666+569232668+567610368+566197838+565764747+565296291+563842188
3368+561997412+561255726+562421432+564820122+566898025+567722378+567854292
3358+568355396+569130905+569006556+567493695+565548844+564448765+564747408
3348+566259571+568364136+570336457+571778917+572616674+572631438+571447920
3338+569248129+566992517+565390856+564171239+562926135+561950184+561593847
3328+561688266+562194915+563286548+564401391+564576235+563963158+563744501
3318+564532240+565838122+566964827+567705044+568124253+568210188+568051355
3308+567903869+567659101+566796078+565374367+564454310+564911015+566231661
3298+566915873+566015979+564124709+562651840+562260726+562465868+562644238
3288+562865723+563465065+564191841+564444432+564463602+565447044+567780402
3278+570082728+570992097+570915049+570927976+571065179+570642187+569439977
3268+568015034+567145474+567011503+566964974+566388364+565527471+565013403
3258+564798014+564226142+563233555+562737702+563386842+564636353+565648514
3248+566382047+567139157+567708826+567569824+566549694+564996803+563426211
3238+562160064+561447721+561633730+562599214+563294664+562666604+560967623
3228+559416421+558770256+558798790+558901729+558776388+558329085+557318797
3218+555827824+554757822+554780334+555142914+554632041+553292959+552015611
3208+551015789+549810385+548283421+547009856+546567584+546844265+547012023
3198+546426195+545590788+545531956+546149624+546231115+545193063+543622251
3188+542108398+540687568+539372063+538331037+537663497+537409034+537469336
3178+537459787+537095004+536624674+536474068+536695956+536861694+536139508
3168+533865938+530549468+527724371+526409123+526360500+526880628+527450884
3158+527563444+526978645+526110113+525362257+524557369+523584062+522776089
3148+522074837+520791503+518783266+516971101+516192470+516172639+516043846
3138+515510167+515002673+514785228+514500283+513756210+512632554+511434053
3128+510438272+509881383+509729417+509548476+508873922+507607188+506091866
3118+504947938+504606731+504880145+505164575+504995790+504258070+503090638
3108+501806129+500833410+500593783+501123570+501670836+501163746+499437957
3098+497418262+495886414+494826144+494000543+493345930+492755733+492124587
3088+491669609+491848126+492832891+494127132+494809801+494297570+492843651
3078+491213859+490091157+489800337+490176432+490603059+490531556+489979993
3068+489241318+488348034+487212222+485991687+484938651+484135636+483579261
3058+483257849+483063614+482854101+482609407+482325270+481902866+481349356
3048+480832387+480402087+479898265+479232746+478602188+478283383+478275304
3038+478252314+477849889+476937030+475632102+474183876+472923421+472180266
3028+471973214+471789188+471077690+470030384+469371952+469356344+469491930
3018+469240001+468555091+467721668+466912556+465959080+464665721+463371994
3008+462711542+462673092+462479738+461575510+460197500+458886843+457969688
2998+457571559+457649084+457870239+457737811+456997998+455860937+454746866
2988+453931584+453472566+453268011+453070838+452653392+452111266+451782693
2978+451744132+451589963+450825472+449395975+447794203+446631803+446026034
2968+445463196+444479753+443414342+443092196+443734175+444594884+444820629
2958+444307406+443476516+442600162+441616866+440378006+438976603+437829663
2948+437281331+437121433+436809166+436256390+435966084+436238505+436687681
2938+436718603+436139900+435178896+434199494+433525234+433251931+433095742
2928+432636356+431760076+430680195+429596568+428582130+427671255+426768533
2918+425627542+424225993+423049821+422667887+423082211+423714679+423934621
2908+423505387+422720770+422168472+422138798+422291095+422109015+421535600
2898+420862920+420169636+419284505+418240541+417342739+416733592+416251584
2888+415799874+415491903+415323889+415048163+414452383+413530233+412444183
2878+411480608+410856477+410476490+410122173+409837191+409815157+410016296
2868+410132125+409822575+408952941+407784077+406867767+406535521+406548044
2858+406365781+405699637+404751524+403948986+403479868+403158456+402775825
2848+402410417+402229035+402100316+401620696+400566632+399221821+398132392
2838+397554093+397237860+396792723+396198743+395828157+395923567+396202489
2828+396082584+395210159+393719883+392129386+391014727+390564486+390365917
2818+389802969+388744315+387679381+387120950+387070233+387141809+386991239
2808+386508717+385846393+385357518+385236438+385158729+384600224+383552955
2798+382542997+381905682+381474611+381074976+380870972+380958046+380949489
2788+380377102+379370744+378530563+378164017+377981203+377527546+376656774
2778+375551444+374490292+373685991+373191828+372829615+372288481+371421234
2768+370411057+369590781+369118468+368794743+368200542+367160213+366048896
2758+365415988+365352308+365459874+365332954+364815765+363947857+362943592
2748+362127943+361662718+361367124+360952175+360408984+359991538+359758338
2738+359361678+358457119+357148629+355874917+355011343+354659229+354636056
2728+354603298+354336238+353896868+353482212+353173654+352898441+352540232
2718+352030203+351391309+350691416+349893101+348855857+347642409+346673657
2708+346304503+346337261+346234874+345756281+345122271+344589547+344126012
2698+343569344+342945690+342496771+342378114+342412709+342226259+341630993
2688+340812994+340093563+339584710+339193228+338866968+338588157+338193480
2678+337565676+336956419+336689359+336590717+336189760+335426407+334663164
2668+334068486+333503297+332991396+332808802+333002707+333158235+332821766
2658+332026793+331232812+330758222+330465712+330081428+329592480+329148372
2648+328761590+328322513+327783106+327160664+326468886+325764182+325159294
2638+324698954+324313789+323971738+323745993+323639015+323517677+323330163
2628+323157999+322971953+322600596+322003127+321338929+320758684+320306092
2618+319973222+319738737+319565802+319354600+318941047+318314381+317792124
2608+317727526+318045375+318266236+317977509+317171555+316155244+315238383
2598+314538012+314030371+313675319+313425263+313181523+312845274+312435761
2588+312096574+311924300+311842919+311729440+311581221+311436380+311225508
2578+310858558+310386797+309927595+309474085+308948192+308434491+308131405
2568+308006064+307764565+307277893+306771868+306507837+306503247+306577265
2558+306504239+306197314+305815160+305549478+305371713+305168701+304964109
2548+304835225+304781589+304752411+304657571+304394642+303994420+303637422
2538+303431178+303283546+303066027+302810315+302652437+302628217+302635452
2528+302586113+302467970+302268355+301964571+301577569+301162804+300789372
2518+300534303+300444089+300524442+300755402+301047838+301249290+301258067
2508+301060802+300702188+300334614+300155031+300135182+299994160+299559362
2498+298954584+298379664+297928633+297634379+297484672+297393357+297298112
2488+297251087+297307697+297399325+297412013+297319541+297173690+297033403
2478+296933549+296859054+296743739+296532096+296227027+295887234+295599591
2468+295414316+295299240+295201774+295102416+294970832+294779847+294587099
2458+294482379+294461850+294436566+294315632+294052649+293691575+293362506
2448+293180628+293167003+293251121+293322733+293326699+293296457+293252865
2438+293155674+293007381+292888816+292848217+292840009+292781397+292619663
2428+292375409+292143972+292021386+292027372+292107541+292191071+292240263
2418+292253392+292242926+292243917+292310719+292461124+292638888+292747299
2408+292716432+292579689+292466688+292456460+292504826+292582627+292732958
2398+292924678+293046529+293102020+293191186+293263791+293111513+292655561
2388+292038775+291320446+290225802+288344521+285463584+281563013+276657166
2378+270884055+264605010+258147392+251582062+244984580+238695766+233078200
2368+228279203+224424611+221654104+219839478+218811599+218948379+221010564
2358+225414627+232035723+240663349+251319942+263541196+275274107+283498040
2348+286175468+283592531+278441219+273946061+271184405+269175526+266938790
2338+264343091+261702387+259183552+256707190+254414816+252844867+252384802
2328+252808436+253490812+253947774+254248932+254956354+256521089+258800223
2318+261233104+263318995+264946032+266440936+268226090+270353663+272525507
2308+274502087+276225746+277649643+278765385+279745357+280789671+281837473
2298+282610686+282970530+283129161+283443743+284031535+284662533+285051518
2288+285181265+285277337+285527154+285911200+286261348+286384559+286152203
2278+285590596+284926674+284470557+284379939+284529591+284639507+284540351
2268+284293692+284076688+284025035+284177716+284462000+284708843+284777903
2258+284692482+284595548+284585779+284645879+284704785+284716390+284682915
2248+284646209+284678178+284844925+285130017+285412519+285579193+285637180
2238+285661455+285681011+285685840+285691533+285715569+285722051+285667203
2228+285589035+285584958+285699428+285887347+286087054+286280188+286473983
2218+286647285+286722992+286633256+286436854+286293041+286286247+286370934
2208+286491500+286623139+286712177+286727730+286749746+286862655+287000500
2198+287024977+286922755+286818806+286825160+286976905+287277494+287675880
2188+288015158+288143143+288075221+287944997+287838973+287772227+287761044
2178+287846336+288080050+288451518+288785765+288858149+288679888+288488958
2168+288433761+288490427+288671405+289034003+289484722+289804757+289889461
2158+289840085+289834118+289962580+290175636+290371139+290510306+290606799
2148+290647912+290609462+290525106+290482560+290560581+290781919+291093195
2138+291375312+291518243+291524946+291521108+291618887+291787709+291904970
2128+291909836+291878785+291972818+292294744+292750090+293103562+293236780
2118+293279711+293436762+293767319+294176006+294530874+294739303+294773732
2108+294706527+294702689+294880931+295170888+295408991+295569054+295753760
2098+295966688+296073996+296026310+295973390+296099299+296412889+296738947
2088+296902939+296906961+296903913+297015371+297218916+297415612+297556230
2078+297673913+297816808+297969030+298050613+298023033+297982288+298089394
2068+298400193+298792722+299050894+299015106+298707760+298332271+298117856
2058+298155168+298378232+298673992+298987783+299308406+299576053+299712649
2048+299776458+299922401+300161256+300342014+300389755+300359678+300284540
2038+300179545+300134943+300220291+300376920+300538030+300752115+301071966
2028+301413595+301637999+301719454+301758125+301899734+302296064+303002476
2018+303815168+304381660+304597912+304715008+304972850+305348228+305710110
2008+306031100+306388483+306847446+307370659+307858304+308280873+308680434
1998+309080069+309578529+310406628+311566751+312557906+312847845+312477406
1988+311852688+311254080+310827967+310677691+310731528+310773431+310683236
1978+310496162+310290285+310129175+310042652+310070196+310356058+310984523
1968+311631790+311727384+311153932+310415478+309974125+309836151+309847572
1958+309972949+310154441+310214816+310055616+309794506+309647755+309751318
1948+310139054+310874460+312012512+313208956+313634041+312832421+311416108
1938+310334024+309882901+309774417+309748967+309800565+309960683+310134206
1928+310292782+310725579+311688529+312807044+313478697+313851486+314401838
1918+314700664+313882408+312259777+311095137+311034468+311664291+312209355
1908+312252322+311912401+311533699+311286177+311110818+310980814+311081512
1898+311635903+312494520+313135617+313440577+314033088+315183443+315981574
1888+315525825+314320677+313434774+313164556+313206569+313348031+313548363
1878+313766286+313954829+314176350+314829163+316604347+319699075+322852158
1868+323877687+322147049+319403113+317490580+316817605+316854734+317082682
1858+317289000+317443426+317593225+317796714+318157311+318878505+320189272
1848+322326411+325334580+328241059+328988694+326936131+324137328+322614735
1838+322548778+323014443+323490061+324589993+327123462+330465639+332630579
1828+332805166+332149856+331347759+329922338+328018950+326711598+326544024
1818+327055118+327617809+328243446+329414917+331179561+332693781+333072447
1808+332525400+332119155+332769654+334712595+337356898+339469652+340118646
1798+339739981+339880378+341826147+345279158+347834368+347144390+344308899
1788+342291224+342335330+343632583+345062704+346349233+347453646+348095148
1778+348544434+349981570+353482727+358610811+362722731+363184430+360642331
1768+357376467+354843292+354086623+355629194+358276435+359871523+360154521
1758+360470718+361108584+361802344+363523727+367367192+372226527+375150707
1748+374910346+373184850+371945659+372002178+373263293+374919857+375964850
1738+376941976+379988742+385624614+389968449+388894554+384696479+381014050
1728+378698063+377727548+378067542+379323994+381646408+386360314+394255214
1718+402946336+407063765+404680829+399692775+395878616+394638654+396221953
1708+400321864+405632432+410274579+414278052+419768202+427082710+432607601
1698+433922004+432592104+429393299+425227357+422915336+423964111+427462881
1688+432545868+440091445+449813347+456186829+454847564+450364470+448006287
1678+449314887+453594307+458585740+462342499+465663963+469711432+472543140
1668+471779456+469746724+470245405+473437122+476214000+476532070+476245987
1658+478340269+484513971+495068598+506476921+510038747+506496348+505197003
1648+508118869+510279696+507021471+501164370+497530932+497638865+501419348
1638+508351041+515784976+518053295+513444457+507729664+505418708+506565684
1628+509094085+511577095+514190219+516519831+517018365+516310025+517315355
1618+521015081+524307606+523779767+521212585+520021208+520900941+522598490
1608+523833678+524383956+524755460+525283814+525863399+526368836+526939240
1598+527717797+528588679+529320045+529832424+530241791+530693979+531179218
1588+531531331+531696775+531934088+532541730+533574934+535259078+538378668
1578+543269329+547806885+548448534+546240884+545668571+548072072+550683654
1568+550719203+549369398+549131240+551274439+557192833+568600605+582860283
1558+588705117+583185184+576305676+572781457+572193279+573259057+575082791
1548+577965546+583325838+591947000+602921938+614710616+624801084+627976202
1538+623985215+620379761+621480024+625734985+629315614+631598990+635602096
1528+642941539+651930863+660254153+668048906+675954199+682235026+685558583
1518+687401413+688753532+689347659+690182552+693482532+700648343+711378844
1508+722707512+727349328+721523664+713333169+709684013+711190154+716037260
1498+721191896+723444864+722611000+722128735+724914721+730615302+735714117
1488+736729767+734230452+731402600+730509169+731934957+734848009+738459633
1478+742792083+748178891+754446276+760173225+762443747+759996874+756121422
1468+754712454+756500785+759217730+760464890+761287002+764808358+772247104
1458+780382072+781987221+775510507+767752552+762903096+760927250+760463862
1448+759908736+758290586+756072506+754310983+753474548+753842600+756022854
1438+759655044+761952448+760585860+757838802+756845701+757323632+757175927
1428+756173498+756123846+757702334+759730696+761526886+763648381+765347325
1418+764029066+759666428+755497769+753442745+752746818+751893269+750689370
1408+750300018+751300685+752500324+752602564+752420338+753697245+756690210
1398+760188355+762900966+763752237+762242498+759910205+759392024+761444991
1388+764077909+764833183+764147980+764793301+768256999+773797167+780195952
1378+786985191+793929848+800118275+804308235+806472697+808095989+810317374
1368+812894619+815297790+817625015+819740780+820599029+819495535+817215464
1358+815063121+813580777+812431230+811094683+809538523+808180455+807452284
1348+807480341+807887174+807984420+807489743+806901198+806998517+808126544
1338+809881309+811476910+812573133+813509973+814643581+815892137+817094200
1328+818416792+820180004+822435469+824838861+827105123+829573296+832779777
1318+836402124+839416315+841435496+843132751+845277382+847845959+850172670
1308+851882191+853509742+855879274+858939297+861728735+863579498+864864117
1298+866319799+867983928+869170934+869313351+868388484+866566146+863772962
1288+859795563+854798769+849646336+845479219+842916077+841743100+841118491
1278+839964317+837718767+835021654+833205780+833035599+834286946+836206971
1268+837907163+838719947+838791854+839032913+839980255+841006041+841264874
1258+841163589+841941264+843864888+845868645+847110076+847931233+849049932
1248+850719203+852881755+855372257+857703521+859179769+859542018+859329604
1238+859532984+860930347+863512953+866430266+868703285+870063704+871046081
1228+872417223+874520723+876919708+878740503+879683953+880440696+881783193
1218+883757643+886179250+889318965+893477782+898085666+901784693+903834796
1208+905017836+906531836+908564164+910627560+912739654+915428394+918851474
1198+922489466+925522681+927494487+928833532+930476949+932904505+935709955
1188+938005596+939340528+940344206+941897942+943737099+945084811+946481073
1178+949162688+952729728+955389382+956454316+956889354+957622005+958839272
1168+960578907+963001615+966183416+969864082+973338210+975793603+976875871
1158+976998090+977197283+978353073+980405893+982469290+983779910+984456447
1148+985235959+986576473+988140491+989257280+989925297+990918251+992752047
1138+995258340+998193868+1001356352+1004137050+1005636433+1005486378+1004740725
1128+1005677859+1009704101+1015143938+1018467423+1018583692+1017975242
1120+1018593167+1019242161+1018273665+1016786400+1017406749+1020477863
1111+1023183276+1023242990+1022291754+1023683535+1027973532+1032275942
1103+1033764822+1032547996+1030861318+1030824080+1032936614+1035823445
1094+1037657388+1038016185+1037859519+1038116663+1038684128+1038748690
1085+1038350965+1039196213+1042871958+1048062217+1051422425+1051928488
1077+1051471122+1051428889+1051789229+1052715932+1054524902+1056710959
1068+1058393083+1059320080+1059892760+1060459124+1060753139+1060473960
1060+1060512374+1062506656+1066899260+1071477691+1072405202+1068495156
1051+1063587308+1062282343+1064465021+1065979020+1064597596+1062860899
1043+1063886611+1066568080+1066773957+1062954620+1058263886+1056630679
1034+1058503623+1061228573+1062717894+1063341034+1064246584+1065527164
1025+1067010095+1069247345+1072104062+1073741823+1072753423+1070310369
1017+1068238893+1066620522+1065062527+1064006113+1063047239+1060170176
1008+1054893615+1050113935+1048755941+1050448641+1052765143+1054762656
1000+1057163036+1059077478+1058217467+1055022885+1052343694+1050933550
991+1049119879+1046370104+1044023635+1043083711+1043394032+1044072258
983+1043515737+1040471431+1035779155+1031334255+1027802617+1024854015
974+1022129800+1018733748+1013744445+1008037768+1003910240+1002197635
965+1000997408+998206501+994203762+990542414+987257931+983229485+978499383
955+974632671+972922490+972747608+971637797+967723784+961973699+957143340
945+954933706+954649312+954372778+953176885+951887271+951676766+952654223
935+954129662+955411344+956112633+956422293+956795706+956798571+955243293
925+952096747+948999117+947525000+947971422+949498349+950469121+949482704
915+946903183+944456751+943065116+942179544+941253575+940618170+940704693
905+941334516+941970803+942268344+942286045+942076349+941199958+939398847
895+937535598+936626302+936379661+936093357+936168642+936854213+936558876
885+933673073+929196736+925862455+925529365+928044766+931586319+933896504
875+933799919+931587421+928337900+925648793+925243061+927286480+929475695
865+929272389+926789158+924270746+923398909+924391202+926713506+929083038
855+929696262+927971537+925246807+923002727+921691959+921256114+921232317
845+920959822+920695406+921418289+923078232+924569389+925753604+927593496
835+929900008+930970525+930145842+928875692+928472458+928604959+928653436
825+928921010+929799531+931071443+932572590+934297755+935643851+936285720
815+937164828+938926057+940823092+942090231+942750976+942491628+940960147
805+939514602+939969103+941604661+941604808+938958521+936157845+936385169
795+940143397+944656458+946353272+944329390+941197901+940266717+942128130
785+943953700+942426038+937790098+934121478+935081600+940067084+944887748
776+946181989+944402766+942134961+941240942+942240360+944707211+947400358
766+948827468+948134846+945421574+941818470+939349783+939607147+942229783
756+945628920+949053616+952499981+954917547+954628673+952001630+949540141
746+948728606+948823648+949108776+950211022+952813680+956381896+959254919
736+960128078+959553194+959164944+959547759+959725432+958805779+957088841
726+955150086+953030575+950671179+948437014+946796609+945808575+945308316
716+945498695+946822169+949151083+951434753+952120250+950076978+945901415
706+942032940+940673403+941601062+942401507+941217659+939184890+938673760
696+938890434+936224170+929925422+923434385+919708548+918343209+916982937
686+914536578+912757061+913945683+917543498+920212334+919553571+915880838
676+910195608+902983745+894093357+882232479+867543235+857647627+862874830
666+878145862+890340785+894738457+893928244+891491433+888682752+885689567
656+883533110+883034393+882736778+880025784+874657044+869126571+865196326
646+862277545+859431992+856915857+855684635+856221545+857521736+857714098
636+856637633+856258123+857763309+860566776+863962093+866888733+866990460
626+863187869+858011125+854341623+852550795+852769305+855966311+861459986
616+865628058+865242819+862137404+861676954+866634894+873774631+876192638
606+870423236+859627659+848608872+840005889+835445600
##END=
