##TITLE=<SNM>
##JCAMP-DX=4.24
##DATA TYPE=INFRARED SPECTRUM
##DATE=3/5/2025
##SAMPLING PROCEDURE=Instrument type and / or accessory
##ORIGIN=Admin
##XUNITS=1/CM
##YUNITS=ABSORBANCE
##RESOLUTION=4
##FIRSTX=4497.3318
##LASTX=599.83466
##DELTAX=-1.4281778
##MAXY=1.7186855
##MINY=0.17871603
##XFACTOR=1
##YFACTOR=1.6006506e-09
##NPOINTS=2730
##FIRSTY=0.19844304
##XYDATA=(X++(Y..Y))
4497+123976487+123926505+123913257+123631535+123276967+123016879+122927285
4487+123132242+123744636+124918705+126653044+128271397+128713400+127662662
4477+125917384+124590584+124310435+125031293+126204981+127128822+127356829
4467+126934534+126332865+126089060+126377950+126911018+127269255+127290276
4457+127062995+126652476+126029303+125301509+124783122+124643834+124683111
4447+124629060+124454443+124216047+123831483+123269426+122746691+122474567
4437+122363217+122203625+121958834+121672782+121374406+121151994+121068320
4427+120968840+120601080+119963876+119342443+118988592+118850942+118618495
4417+118074051+117414347+117124274+117427780+117927474+117992090+117520493
4407+117058614+117108010+117572244+117928544+117772993+117144848+116369287
4397+115668482+115130378+114967500+115380932+116151335+116713318+116707797
4387+116288016+115835279+115475767+115054915+114601117+114414985+114511747
4377+114519939+114347556+114303932+114449876+114565844+114760970+115359213
4367+116185556+116581543+116162208+115155672+114013748+113016874+112249804
4357+111746340+111652120+112203536+113354053+114582564+115419417+115903415
4347+116127745+115816316+114858347+113761648+113136379+113160752+113716097
4337+114498993+114900658+114387615+113200335+112193464+111864729+111999073
4327+112278300+112679109+113160016+113471985+113508897+113557483+114010992
4317+114907221+115810097+116167394+115826696+115150775+114674820+114752601
4307+115349783+116051854+116466850+116666603+117021991+117615970+118051634
4297+117906816+117313097+116960195+117393354+118412700+119340386+119723106
4287+119558525+119058310+118437547+117834705+117260052+116624813+115970834
4277+115684504+116166602+117164044+117933339+118289750+118809897+119682582
4267+120186195+119788635+119002909+118592056+118579060+118585819+118593955
4257+118795439+119116122+119434346+119966436+120986118+122386062+123725756
4247+124479104+124268506+123230689+122071915+121458675+121522249+122076123
4237+122878904+123548216+123650647+123007793+121749287+120277297+119303632
4227+119457787+120587665+121759574+122175585+121950185+121838472+122252723
4217+122799858+123047722+123332991+124154242+125122116+125393756+124926395
4207+124495274+124638835+125111476+125269941+124796286+124089336+123873990
4197+124395524+125174705+125570040+125407004+125045779+124892005+124917811
4187+124825462+124553756+124286482+124102956+124007748+124149391+124698602
4177+125625692+126700504+127609962+128148820+128396414+128574727+128725065
4167+128700479+128372060+127710820+126857452+126190440+126069398+126466036
4157+127077303+127713566+128313774+128757322+128975182+129116685+129345539
4147+129574617+129569189+129229050+128677661+128135284+127791077+127810869
4137+128344290+129316941+130278848+130786343+130922298+131075941+131302337
4127+131336624+131116027+130806693+130419355+129876121+129409374+129488151
4117+130307046+131565366+132732733+133390742+133371360+132775146+131910458
4107+131108784+130586813+130523695+131075782+132114102+133138717+133697042
4097+133764507+133575600+133231058+132688448+132068578+131711412+131890182
4087+132601088+133565173+134307462+134417639+133927543+133261946+132755047
4077+132468931+132396159+132458234+132421425+132176009+131963689+132073233
4067+132453617+132804434+132988677+133216516+133728284+134405220+134892755
4057+135036605+134963852+134850826+134842503+135061712+135488681+135918376
4047+136194150+136424056+136765321+137025781+136819810+136163215+135526654
4037+135238908+135204249+135238191+135390689+135899534+136874251+137970056
4027+138551561+138395246+138006819+137975437+138306862+138678030+138987289
4017+139298206+139485270+139331152+138888870+138434839+138122973+137952796
4007+137997621+138396587+139167958+140167521+141138710+141757583+141777794
3997+141227364+140422451+139732193+139333116+139206098+139294045+139610798
3987+140252414+141256326+142348062+142971348+142825395+142298741+142103420
3977+142497423+143055589+143189915+142766810+142150106+141727206+141572707
3967+141611704+141857408+142280345+142639262+142730215+142705238+142875358
3957+143259633+143537846+143425025+142998057+142658774+142752446+143187141
3947+143542156+143590966+143518771+143609799+143902394+144208777+144367354
3937+144398020+144488219+144876907+145637069+146414072+146616655+146182779
3927+145763240+145894335+146380372+146741448+146948229+147287521+147781992
3917+148030256+147587899+146557112+145625953+145344073+145598295+146074622
3907+146968905+148602330+150421814+151279586+151000144+150432566+149983330
3897+149467466+149033460+149117701+149650955+149868666+149285783+148592742
3887+148747818+149740074+150855699+151835750+152763352+153096239+152426555
3878+151624761+151671150+152430447+153271983+153994610+154504152+154543485
3868+154247538+153955193+153606862+153114439+152765112+152727716+152872366
3858+153419081+155130426+158225890+160580769+159753141+157300662+155528396
3848+155002291+155456881+156531199+157929291+159520423+161223343+162497955
3838+162516034+161443139+160404466+159902836+159676487+159683953+160179941
3828+160999693+161764594+162748993+164403578+165933417+165944570+165108191
3818+165134258+165802340+165767542+164968978+164376004+164649627+165944421
3808+167718409+169035788+170041487+171614503+173342205+173897625+173562671
3798+173502644+173607654+173347884+173174933+173828437+175293315+177077525
3788+178927180+180852689+182763489+184545167+186333864+188369057+190812245
3778+193833754+197490409+201575689+205984472+210809611+215773200+220363201
3768+224792204+229676439+235114269+241145204+248251900+256604628+265449695
3758+273897397+281980933+290400689+299946347+311082188+323075372+334269452
3748+344323834+354309102+364634314+374076470+382100351+390307255+400329054
3738+412563595+425874493+437813217+446730395+453443134+459493265+465064853
3728+469460734+472480530+474679941+476757957+479236279+482358553+485958216
3718+489762091+494038847+499654264+507201763+516090193+524939225+532940727
3708+539992069+546313104+552299521+558085078+563803457+570093548+576584537
3698+581408130+584263968+587263842+591689215+596426826+599673512+600623969
3688+600349527+600824159+602548454+604467949+605720441+606842898+608906690
3678+611519961+612355800+610309101+607989859+607792461+609395808+611110904
3668+612023341+612644839+613930026+616436314+619944223+623648225+626701089
3658+628651752+629971086+631841762+634642712+637991280+642047962+647039460
3648+651500842+653644396+653938798+654301717+655840679+657843550+658860438
3638+658684974+658704636+660323361+663496465+666802433+668579568+668131151
3628+666814647+666910870+669085406+672649283+676935201+681556928+686145439
3618+690559008+694322330+696143406+695685232+694677355+695457933+698740665
3608+703013549+706020573+707046995+707022194+706584948+705545494+704571205
3598+705187713+707308553+709303082+710680208+712229523+713745323+713975825
3588+712781312+711846197+712417201+713667571+714085080+713401172+712414818
3578+711221273+708976283+705906030+704187805+705598744+709248119+712690899
3568+714503037+714514059+712847074+710755801+710442483+712119224+713172532
3558+712090328+711031360+712673769+716698575+720543002+722761106+724232221
3548+725705273+726020900+724293961+722341064+722484281+724069567+724122146
3538+721013389+716307504+712720391+711565648+712868225+716485501+721543804
3528+725725977+726876102+724900416+721102760+716842834+713627875+713167989
3518+716293280+721837088+727212434+730545213+731695190+731077788+728544577
3508+724317719+720234524+718423056+719031596+719799215+718531790+716025019
3498+714785076+715566026+716989179+717875438+717953935+717340033+717040939
3488+718362135+720666259+721371840+719290919+716607194+716240476+718003833
3478+718981101+717765065+716191397+716000218+716299982+715694720+714839368
3468+715595220+718835948+723456857+727071600+728113513+726989677+724604152
3458+721224602+717494421+714876681+714192921+714785374+715438971+715566994
3448+715561483+716388310+718535812+720930200+721658347+720086988+717897929
3438+717588334+719895884+723019909+724552689+724145308+723286457+723012312
3428+723260092+724007678+725406626+726888465+727606186+727910493+729005134
3418+730917293+732137202+731786199+730883034+730318808+729038648+725788313
3408+721736919+719782979+721479308+725150430+727088879+725309435+721751367
3398+719914354+721353891+724708492+727216828+727348500+726426866+727009413
3388+729588054+731621385+730252227+725837243+721797393+721190269+723828862
3378+726699223+727503335+726772805+725849234+724938324+724200718+724567063
3368+726201280+727670086+727630390+726430515+725307722+724645560+723988686
3358+723292340+723001811+723352740+724629101+727277972+730834923+733750714
3348+735140576+735382696+734543879+732388855+730109978+729648007+731311268
3338+733939882+736693391+738560120+737488492+732896405+727558596+724475533
3328+723755131+724173013+725513722+727889565+730402816+731382988+729831589
3318+726726332+724614653+725252834+727728400+729761582+730214989+729111187
3308+726653718+723493424+721143200+721326559+724465255+728647130+730771544
3298+729690979+727477343+726620055+727402644+728515979+728682059+727523890
3288+725867480+724898032+724726813+724649731+724587916+725162197+726904850
3278+730110947+734349944+737743198+738126300+735143928+730215957+725152366
3268+721533750+720406190+721784062+724721972+727646700+728675729+726993997
3258+724284205+723499308+725851021+729610099+731833267+730738775+726931661
3248+723286606+722836178+725618658+728071881+726953780+723373146+721241657
3238+722527402+725353748+726589595+725393295+723384764+722162249+722173122
3228+723448590+725870012+728670590+730585877+730745999+729202196+726824044
3218+724814098+723789911+723358176+722625933+720994472+719039862+718252507
3208+719205943+720803145+721740047+721913649+722073772+722598228+722788141
3198+721598320+719204155+717141779+716444614+716403280+715824009+714827676
3188+714640519+716084823+718527396+720131524+719405016+716708257+713982379
3178+712719423+712471345+711602439+709197177+705931426+703402460+702873163
3168+704297805+706413431+707899665+708331102+708146551+707948595+707740138
3158+706618760+704014575+701060354+699345555+699055250+699424797+699810283
3148+699461141+697799890+695749281+695129794+696221829+697400627+697273944
3138+695959973+694362622+693175929+692628087+692632779+692845853+692671059
3128+691570162+689622925+687558166+686067315+685471734+685609141+685715865
3118+685383480+685307664+685984200+686455928+685477692+683466704+682178948
3108+682543952+683732284+684316246+683856360+683085389+682604724+682051148
3098+680881212+679369880+678219456+677483787+676554780+675174972+673671236
3088+672248530+670978797+670302262+670718580+672150148+674009206+675424316
3078+675422826+673845807+671727202+669886763+668140386+666487104+665739742
3068+666300245+667178014+666879367+665093816+663034642+661775038+660753159
3058+658781569+656122644+654325773+654315719+655730158+657585268+658876823
3048+659054149+658379029+657584375+657050832+656467540+655313244+653559866
3038+651651878+649951006+648786656+648715755+649823206+651126006+651494884
3028+650536682+648051061+644018956+639744359+637331576+637371420+638319047
3018+638573976+638121389+637719966+637671333+637839573+638054659+638202269
3008+638222452+637958511+637038366+635173201+632594635+630049583+628283321
2998+627565973+627650428+627906252+627501924+626060376+624300780+623392030
2988+623459095+623293536+621894029+619918715+619076955+620228235+622477321
2978+624101037+623992526+622124009+619245270+616492394+614699991+613800290
2968+613156226+612412923+611689877+610994834+610015407+608777735+607909313
2958+607899818+608559336+609250133+609274487+608190272+606208032+604108195
2948+602516206+601532272+601057863+600975791+600963801+600508234+599228968
2938+597191131+595008850+593461546+592850400+592943420+593452684+594166010
2928+594690616+594510236+593453354+591933904+590528104+589371946+588166746
2918+586683417+585018107+583379460+581774438+580074571+578400697+577099907
2908+576204339+575345971+574433944+573881373+573860445+573803062+572912931
2898+571009969+568779688+567125289+566243536+565503696+564310933+562916230
2888+562138482+562255483+562440220+561610153+559681349+557621989+556443414
2878+556412097+556980866+557364825+557291355+556841932+555807095+554040536
2868+552071291+550499969+549315659+548384455+547821829+547493653+546957094
2858+546108855+545264452+544574808+543812067+542726400+541395113+540185705
2848+539398350+539030292+538837810+538450351+537599021+536464275+535589411
2838+535323720+535530017+535765322+535584905+534798518+533500596+531794362
2828+529682720+527335177+525148166+523395646+522063763+521089176+520522752
2818+520383558+520520332+520635397+520354103+519378399+517755652+515950291
2808+514457205+513398573+512697609+512407490+512432626+512201640+511258668
2798+509982008+509038106+508327200+507161918+505366537+503573353+502439314
2788+501939025+501410099+500230295+498505703+496935833+495970333+495429231
2778+494977462+494488717+493835417+492798793+491404648+490073845+489214025
2768+488719470+488071496+486978456+485673645+484462263+483273485+481923840
2758+480598957+479714300+479322484+478937260+478080009+476826400+475575435
2748+474412760+473033287+471271531+469392253+467826890+466843366+466397295
2738+466110601+465495917+464354655+462891397+461425532+460117407+458943189
2728+457810006+456737075+455905481+455380094+454930187+454292714+453413903
2718+452385693+451385301+450555644+449698766+448403674+446728607+445316626
2708+444600842+444326437+443984333+443337253+442450584+441474694+440466296
2698+439333039+437963434+436467519+435222102+434515702+434175274+433733001
2688+432919617+431824640+430713279+429868355+429382923+428964371+428224494
2678+427232852+426441028+426008363+425517420+424470667+422886163+421263527
2668+420079478+419476078+419281473+419086012+418504693+417591102+416689055
2658+415839661+414842993+413805586+413003708+412362250+411632465+410868048
2648+410293022+409914985+409549421+409058888+408417952+407664372+406870500
2638+406104147+405369967+404626254+403885781+403224625+402648669+402064632
2628+401423695+400802234+400313228+399956788+399535666+398802976+397792865
2618+396845722+396187582+395695559+395167267+394568149+393941437+393303480
2608+392660794+391978858+391206994+390450211+389954204+389806594+389802237
2598+389657456+389214923+388467710+387589271+386884844+386516340+386338827
2588+386100468+385657451+384967323+384105083+383272558+382600007+382040361
2578+381583118+381357644+381398978+381562414+381728308+381800810+381535864
2568+380759382+379739030+378986082+378712161+378732381+378793265+378763996
2558+378612811+378395156+378217272+378106675+377937951+377548593+376965710
2548+376450824+376208145+376171392+376237824+376490259+376951783+377342668
2538+377339615+376931824+376366778+375895497+375653154+375661123+375848875
2528+376066195+376125329+375941113+375613049+375257205+374852728+374371393
2518+373905995+373538384+373220299+372879090+372537396+372289132+372190191
2508+372156900+372025265+371766611+371529258+371399038+371285946+371122435
2498+370993853+370957360+370867878+370537021+370032449+369674743+369684388
2488+369947286+370175852+370157195+369788504+369055181+368121817+367351665
2478+367073052+367291377+367667516+367809578+367570586+367076962+366577827
2468+366295230+366286591+366387580+366358274+366096008+365682706+365297854
2458+365105781+365120677+365159404+364992318+364546247+363954055+363457303
2448+363260539+363380966+363587561+363554568+363189787+362802365+362777379
2438+363058785+363185914+362902870+362444734+362129107+361973937+361823496
2428+361595676+361324101+361109723+361036178+361059228+361056212+361006909
2418+360999685+361047163+361024746+360814353+360422984+359976503+359674505
2408+359693794+360020518+360413526+360647081+360729414+360769481+360757528
2398+360654640+360578601+360689569+360939695+361087008+360942302+360492991
2388+359758811+358623953+356900292+354464942+351195355+346862258+341307538
2378+334725317+327609851+320432869+313455555+306782809+300465888+294550949
2368+289148755+284507329+280868623+278233846+276567903+276277914+278117106
2358+282516766+289283444+298088909+308996705+321666034+333918338+342376411
2348+344788114+341577996+335762687+330691313+327281265+324461659+321329666
2338+317749702+314008647+310482082+307385893+304920660+303465055+303181787
2328+303613317+304075624+304354739+304870426+306264422+308834535+312240617
2318+315724638+318672453+320997765+323007897+325028604+327251996+329754188
2308+332416799+334925917+337019833+338654497+339895222+340801142+341432322
2298+341868451+342241312+342755082+343551001+344540856+345476119+346171423
2288+346621590+346944925+347226443+347399263+347325086+347010948+346670260
2278+346506116+346462510+346259639+345717569+345014669+344551655+344531844
2268+344734902+344782156+344585429+344388814+344398458+344584461+344824198
2258+345015935+345094395+345113014+345205177+345356251+345384514+345212252
2248+344981825+344890965+345037235+345377365+345747396+345967323+345997597
2238+346002885+346211453+346659014+347120241+347371707+347442794+347514849
2228+347681228+347895010+348083396+348251636+348457523+348710256+348976134
2218+349255975+349526508+349688157+349742859+349900710+350343355+351002017
2208+351661758+352169346+352512008+352785706+353096901+353488531+353959179
2198+354470230+354926206+355264437+355559137+355942723+356467366+357096237
2188+357759777+358401421+359014950+359613882+360167235+360644214+361088572
2178+361538627+361926533+362194459+362470130+362972244+363746380+364644480
2168+365579855+366640052+367908146+369336624+370868772+372558472+374524254
2158+376877792+379705665+383018038+386667525+390363075+393833001+397007446
2148+399999649+402898757+405682801+408366341+411089910+413965299+416916875
2138+419790662+422631196+425742671+429340509+433216700+436963638+440477579
2128+443969550+447554727+451141207+454623906+457870741+460578746+462367312
2118+463001621+462501033+461123199+459192533+456863646+454170425+451313842
2108+448670892+446497249+444837041+443690080+443031680+442656658+442130265
2098+440911846+438576666+435030737+430504413+425369735+420060897+414978017
2088+410200710+405462801+400625988+395968065+391839440+388291873+385186654
2078+382449455+380111035+378226134+376803168+375763266+374971181+374320005
2068+373760917+373250983+372706232+372037256+371258986+370541303+370081268
2058+369897425+369811555+369662939+369460924+369279986+369114054+368931254
2048+368802188+368885414+369312531+370119399+371280137+372814854+374847329
2038+377529341+380931048+384994395+389539562+394331168+399143106+403681607
2028+407489503+410105009+411299671+411061126+409510024+406944491+403762264
2018+400266569+396676588+393229042+390086622+387223447+384526167+381942723
2008+379474530+377104570+374819587+372681580+370808260+369248520+367900736
1998+366616555+365389273+364339763+363495472+362721150+361891530+360984753
1988+360018135+359080004+358356363+357944029+357725071+357521753+357240533
1978+356871023+356496560+356218282+355962608+355571760+355136749+354900140
1968+354780868+354418544+353785763+353297874+353205375+353314296+353382850
1958+353405267+353389106+353195917+352755171+352216377+351791010+351559317
1948+351469872+351457770+351508264+351577713+351532096+351304201+351048266
1938+350963215+351030802+351055937+350934803+350787378+350786522+350915216
1928+351008645+351031174+351121103+351326544+351521409+351640980+351743309
1918+351791718+351635431+351266368+350902778+350790506+350955321+351122853
1908+351004400+350672947+350450079+350479087+350631873+350755763+350835080
1898+350940872+351092951+351199563+351220156+351303754+351547587+351731840
1888+351566541+351089079+350570133+350226391+350149942+350313118+350575347
1878+350767568+350811546+350821637+351095856+351846793+352844318+353411672
1868+353026932+351989711+351103303+350831095+351060629+351401206+351544124
1858+351462685+351354733+351380017+351521521+351747331+352119522+352666396
1848+353352129+354135574+354796284+354922259+354512607+354125669+354117142
1838+354323104+354457979+354552526+354910418+355658040+356478723+356953840
1828+357132730+357345171+357607958+357723805+357717139+357776050+357960265
1818+358227408+358595392+359126142+359787149+360425740+360924428+361344432
1808+361827332+362413454+363082617+363885947+364890696+366012744+367050263
1798+367969700+369024870+370460534+372103650+373312127+373694001+373767955
1788+374260834+375327770+376762169+378475441+380476338+382526202+384244724
1778+385625463+387134598+389186064+391612327+393669043+394875323+395584367
1768+396244146+397051908+398351878+400417419+402851801+404890456+406442936
1758+407979738+409625684+411311698+413309579+415831246+418399832+420234015
1748+421277156+422140328+423341208+425104044+427353205+429665297+431659491
1738+433634209+436264536+439567786+442449207+443995728+444904218+446102082
1728+447789474+449860229+452118215+454343022+456672802+459700158+463831613
1718+468524353+472286335+474295312+475363924+476611724+478545779+481204816
1708+484504640+488257871+492082077+495879063+500129232+505047186+509777685
1698+513568973+516801062+519735435+522426459+525415980+529102630+533286851
1688+537885082+543473874+550260307+556606888+560839443+563975570+567500608
1678+571878950+577114504+582852061+588410207+593656225+599080427+604631050
1668+609534444+613785656+618332163+623665392+629276378+634482664+639355746
1658+644365863+649975062+656728949+664434559+670733773+674480041+677901223
1648+682358359+687121590+690591181+692505872+693897894+695670784+698327773
1638+701945272+705751865+708020166+708085109+707502934+707585155+708280682
1628+708925193+709087028+708646580+707394423+705426556+703594756+702500711
1618+701601866+699807229+697004790+694073880+691234277+688080313+684613329
1608+681446332+679026920+677128167+675369949+673866437+673048993+673056366
1598+673485569+673620816+673010043+671950479+671081871+670492249+669716288
1588+668498018+667054310+665697440+664573009+663756534+663430405+663827285
1578+664932800+666231951+667065555+667617196+668634457+670484876+673031045
1568+675853071+678694536+681746617+685573691+690940173+698587916+708113856
1558+716248445+721388820+726794700+734769241+744739205+755008039+764548651
1548+773100824+780755940+788020506+795537543+803107906+808644788+809596213
1538+807638922+806578242+807358224+809061330+810698600+812146851+814015293
1528+816705125+819982346+823401294+826838786+830238072+833531156+837046997
1518+840897605+844405029+847004895+848917725+850621874+852688867+855829723
1508+859725761+861967400+861179523+859876500+859904503+860938297+862291815
1498+863760622+865440640+867341703+869497695+871887986+873986185+875245790
1488+876297757+878075487+880041343+881183723+881663122+882345169+883624509
1478+885417508+887423953+888901249+889080958+888232980+887488970+887445550
1468+888022587+889097492+890471714+891717243+892596948+893300146+893957169
1458+894225430+893616145+892546677+892048361+892584510+893859233+894907327
1448+894833597+894018537+893706261+894206438+894739385+894997815+895727452
1438+897389820+898785417+898301028+896744788+896272687+897683924+900098718
1428+902288969+903677416+904005630+903397388+902735896+902585679+902182692
1418+900673744+898823846+897746185+897354519+897042839+896635160+896469526
1408+896675525+896585112+895421060+893602218+892391693+892220400+892352221
1398+891965023+891127322+890614484+890787788+891000118+890312784+888140631
1388+884366062+880084911+877666468+878469388+881403054+884586882+887395577
1378+890230414+893180538+895791650+897790498+899526746+901537213+903907173
1368+906251439+908188026+909686622+910957622+912193543+913474224+914752522
1358+915796445+916251938+916104029+916056216+916858243+918347530+919807771
1348+920947023+921894352+922765492+923835929+925517214+927613402+929225127
1338+929964147+930640236+932113362+934164790+936023550+937504794+939025956
1328+940694208+942109243+943153017+944266501+945648469+946741993+946921404
1318+946250901+945406870+945203775+946167563+948130663+950209722+951595041
1308+952142287+951838576+950290677+947410038+944283109+942634146+943147730
1298+944641038+945383559+944972082+944115762+943107438+941619864+939558456
1288+937281293+935190020+933414151+931710971+929647403+926999798+923970134
1278+921131052+918940951+917012109+914446130+911259769+908567553+907111035
1268+906583674+906213605+905226954+903135309+899946639+895925110+891483613
1258+887366234+884024666+881028218+878076902+875920761+875284443+875830869
1248+876836810+877821377+878247228+877744444+876724427+875920389+875557842
1238+875443746+875442629+875584058+875909069+876408576+877211273+878731989
1228+881262444+884333144+886955502+888616604+889660750+890817728+892596427
1218+894879474+897004484+898478652+899485859+900397588+901251376+902136592
1208+903544328+905900510+909067135+912480050+915489532+917601136+918811363
1198+919687493+920754951+921976201+923243848+924894822+927163272+929468066
1188+930947969+931692054+932823933+935379858+939390216+943761631+946876793
1178+947882436+947679118+948216534+950701111+954698809+958689952+961064008
1168+961091862+959735514+959306162+961617584+966187551+970500280+972494585
1158+972636908+973021500+974894261+977493680+979199691+979628298+980090269
1148+981934879+985141348+988611982+991133500+991923909+991225179+990427025
1138+990901658+993008719+996200442+999665937+1002595357+1004153311+1004077048
1128+1003283734+1003158467+1004247597+1006216655+1008398937+1009773233
1120+1009599929+1008729087+1009228445+1012059111+1015906665+1018935584
1111+1020874853+1022317294+1022931643+1022071525+1020475962+1019588511
1103+1019851857+1021106099+1023462281+1026201118+1027560893+1027350648
1094+1027788937+1030645669+1035184505+1039376955+1041707071+1041488336
1085+1039129175+1036634767+1036285030+1038481462+1041350184+1042658570
1077+1042725226+1043781587+1046533085+1049932818+1053519112+1057034506
1068+1058284131+1055075949+1049104799+1044503552+1043617964+1046225278
1060+1051029470+1056248789+1059984854+1061642083+1062395179+1063205994
1051+1063233699+1061063036+1057272083+1054574654+1055019422+1058436284
1043+1063798968+1069794025+1073741823+1073216622+1069230841+1065605894
1034+1065195906+1067477017+1069691248+1069630551+1066800481+1061995171
1025+1057074276+1054415202+1055154744+1057994346+1060621172+1062134515
1017+1063056224+1063641751+1063945909+1064459641+1064983651+1064055611
1008+1061076665+1057889038+1056334883+1055581116+1053886500+1051265185
1000+1048400931+1045351531+1042658049+1041508370+1042251859+1044188670
991+1046636010+1048559638+1047965919+1043872372+1037942631+1032785872
983+1029736620+1028296860+1026668080+1023466601+1019527963+1016730066
974+1015204510+1013482487+1010790941+1007491080+1004055822+1000811221+997632532
964+994031268+990223037+986859648+983557105+979635001+975988381+973908876
954+972715256+970631282+967347508+964081235+961751715+960291399+959354199
944+958858862+958673195+958325394+957622792+957082695+957083515+957202378
934+956854726+955818101+954053106+951850716+950037311+949368968+949895733
924+951119887+952462309+953622339+954554252+954991795+954503757+953294051
914+952119498+951350538+950939582+950859223+950675790+949291439+946306236
904+943166572+941821023+942538669+943645822+943275827+941172415+938618352
894+936685489+935174380+933607713+932628583+933345336+935317373+936360775
884+934863221+931535730+928365754+926565606+926306803+927754086+931009337
874+934799843+936467573+934643146+931296216+929446840+929375418+928687935
864+926100432+923359360+922672770+924021745+925979260+927815007+929377355
854+930178190+929988054+929242852+928199003+926567765+924441564+922914294
844+923147850+925170381+927908623+930065955+930832755+930345983+929643232
834+929552446+929529508+928381170+926101176+924049003+923452678+924235862
824+925085703+925052561+925123164+927183082+931457456+936131912+939297196
814+940369048+940017970+939338456+939143851+940031301+942364322+945730764
804+948446291+948212437+944396237+939520325+937504645+939916386+944466989
794+947973445+949718184+950383399+949891116+948394381+947208358+947237478
784+947902470+948218917+947903662+947187058+946096737+944605216+943531055
774+943900379+944773977+943864705+941063681+938702733+938032229+938055242
764+937606155+936744399+936727567+939209836+944241328+948946170+949967974
754+947418752+944558296+944035105+945701272+947232786+946606447+944306345
744+942538445+942646435+943894123+944539752+943807285+942567491+942256407
734+943760216+946487063+947932037+946089885+942362236+939449722+937517306
724+935551748+934736092+936800404+940398987+942060312+940627850+938469103
714+937768437+938502840+939917354+941503012+942213583+940740904+937367461
704+934018148+932005298+930663994+928550229+925597871+923206983+922391700
694+922787388+923372542+923366286+922215416+919249205+914412392+908622144
684+902776783+897378425+892822385+889565124+887841016+886813179+884854473
674+881150060+875263366+866010378+854283239+847912454+855453547+870348577
664+880111201+881015706+876663208+872454522+870855383+871276840+872860935
654+874758199+874364670+869202995+861108250+855119301+854221499+856453754
644+856882956+852670174+846540764+843733335+846483343+852841244+858740897
634+860360442+856906937+851220210+846204283+842327907+839900750+840302769
624+842606371+842909561+839103415+833360458+829096511+827422451+827193215
614+826638521+824279137+820089293+815416103+810979968+806931405+804493672
604+804228837+805069814+807386375+813285209
##END=
