##TITLE=<SNM>
##JCAMP-DX=4.24
##DATA TYPE=INFRARED SPECTRUM
##DATE=2/5/2025
##SAMPLING PROCEDURE=Instrument type and / or accessory
##ORIGIN=Admin
##XUNITS=1/CM
##YUNITS=ABSORBANCE
##RESOLUTION=4
##FIRSTX=4497.3318
##LASTX=599.83466
##DELTAX=-1.4281778
##MAXY=1.697771
##MINY=0.26697242
##XFACTOR=1
##YFACTOR=1.5811724e-09
##NPOINTS=2730
##FIRSTY=0.28643796
##XYDATA=(X++(Y..Y))
4497+181155423+180790069+180924042+181775870+182745141+182862264+181980788
4487+180978118+180743853+181487642+182855950+184176439+184719419+184272734
4477+183479770+183210598+183595310+183986901+183795534+183016461+181977037
4467+180975460+180343196+180519239+181650981+183217233+184341078+184498140
4457+183768713+182635369+181730785+181459332+181695105+181941414+181861912
4447+181684343+181931594+182542277+182550193+181189840+179119248+177863144
4437+178145378+179223761+179779633+179254748+178273056+177779194+178023750
4427+178593363+179104471+179504958+179829186+179869257+179195564+177681881
4417+175929635+174805337+174551414+174671590+174654457+174399139+173952134
4407+173346558+172826422+172771762+173248529+173961105+174599024+174959101
4397+175020056+175077807+175374460+175634377+175437149+174827521+174153546
4387+173654369+173396638+173209343+172774363+172090398+171504407+171128893
4377+170883395+171055799+171959139+173098044+173485036+172860029+171987280
4367+171676246+171902161+171941441+171304936+170389363+169910373+169862555
4357+169645442+169202357+169213855+170011381+171121316+172032949+172644461
4347+172808573+172169504+170759844+169344869+168844599+169506813+170704581
4337+171441962+171129251+170041519+169071193+168909041+169461389+170195924
4327+170850599+171457003+171903725+171961250+171665201+171322823+171140183
4317+171107764+171244357+171553714+171690571+171265957+170640422+170636181
4307+171263790+171616214+171199593+170552438+170440385+171065733+172054869
4297+172807932+172956758+172666853+172456921+172761226+173627906+174661544
4287+175232872+174900087+173752568+172422976+171679733+171842751+172613136
4277+173417164+173783084+173595073+173276952+173424986+173982366+174205586
4267+173648488+172780414+172473206+173037560+173854877+174066825+173565745
4257+172941133+172586918+172416737+172349128+172555893+173181900+173964573
4247+174268690+173766629+172993380+172769915+173218353+173850315+174340181
4237+174648802+174719804+174559763+174332699+174060266+173574716+173001994
4227+172862667+173375981+173975204+173879662+173044157+172209557+172005355
4217+172317294+172686116+173023009+173583933+174378764+174974726+174888100
4207+174085598+173180317+172949445+173459403+173999820+174102806+174126442
4197+174517581+175012781+175013742+174459792+173918584+173829997+173998840
4187+174061246+174149720+174590090+175079881+174864577+173873970+173059556
4177+173360996+174775350+176578617+178094280+179089128+179657365+179881075
4167+179636010+178788159+177523876+176326485+175650850+175707301+176367046
4157+177127874+177449614+177316828+177177294+177228543+177179631+176884656
4147+176734851+177094211+177677037+177856038+177423584+176773735+176398881
4137+176360091+176366650+176367762+176757468+177808465+179201991+180295020
4127+180597760+179980216+178792494+177778327+177482033+177762193+178161229
4117+178571197+179152986+179736414+179860191+179449073+178915291+178586163
4107+178479632+178524152+178644385+178801447+179110182+179649581+180171074
4097+180288800+179866995+179033997+178042372+177292966+177260170+178136802
4087+179529442+180681955+181176100+181236075+181197813+181028952+180605695
4077+180148701+180060114+180430011+180899615+181038772+180799682+180493586
4067+180376331+180492926+180846199+181405879+181938398+181988214+181159683
4057+179639497+178378285+178283743+179190268+180134829+180648481+181113618
4047+181853449+182609264+182967738+182801158+182310368+181893634+181810192
4037+181868716+181709939+181360059+181187616+181412268+181894011+182289729
4027+182340601+182171362+182232563+182728008+183311342+183631272+183888796
4017+184473468+185289691+185864355+185951849+185670218+185220179+184773796
4007+184502947+184473657+184560773+184610099+184608667+184643932+184757568
3997+184899608+185007571+185041328+184979261+184910917+184992869+185163766
3987+185182030+185080721+185219595+185772093+186485556+187049891+187495237
3977+188092896+188922502+189714656+190173874+190218639+189854359+189171374
3967+188513608+188316644+188763215+189672285+190577038+190964143+190645024
3957+189833833+188888443+188271144+188659701+190493333+193049513+194523201
3947+194014204+192966317+193248042+194491328+194740954+193395322+191769039
3937+191147518+192032123+194499490+197855193+200234124+199996259+197809637
3927+196068625+196169010+197133588+197407830+197448109+198909809+201738723
3917+203478152+202007857+198173540+194447996+192182098+191443567+192719367
3907+197193601+204804201+212784773+217523731+218179593+216066856+211773471
3897+206055951+201464519+200656212+203720974+207253643+207702250+206541934
3887+207505889+210493864+212328684+212614084+213265347+212941308+209329947
3878+205179847+204871621+208779164+214526389+220433956+224730017+224789747
3868+221705779+219764806+220015337+219233870+215212258+210266384+208233319
3858+211509030+221000478+234752929+243183277+236845461+222702286+210916724
3848+205078575+205262892+209944079+216773703+223866673+230357688+234883283
3838+235105598+231084024+226136134+222463422+219592420+216901871+215235818
3828+215203738+216269531+219052399+225661422+234796242+239447084+236708246
3818+232078231+228588630+224043885+217865148+213003394+212131550+215860844
3808+221881840+226319999+229064680+233123366+237739885+238419025+235097286
3798+231498798+228067853+223512044+219003544+216827495+217405043+219665494
3788+222797884+226352172+229541465+232212789+235602476+240178546+243831977
3778+244541952+243779899+244795706+249523373+257573948+266255185+272582201
3768+276530870+279883841+283307813+287565367+294581381+304723865+314976198
3758+322661154+329847801+340801458+357821723+379269403+398378317+409730539
3748+417223319+426303460+435912407+440617984+441181509+444140344+453375380
3738+469316470+488908993+504996949+511502759+509709311+505476410+503528105
3728+505701119+511035323+516521896+519755651+520773569+520914969+521658645
3718+524578050+531372200+543458976+560019080+575102990+581204543+579717794
3708+577698845+578812739+583651874+590805989+596635298+598552052+598087405
3698+597745460+598413819+600623097+605256636+612556560+620672312+625285759
3688+623695910+618339201+612452744+607337934+604200154+605202240+612238025
3678+624411728+634937982+635409565+629549458+626343749+625558041+621050973
3668+612124822+603782024+598862294+597278815+598189600+601303254+607079977
3658+615317602+624015764+631496594+639039284+648719365+659833270+666990777
3648+663584824+651586485+639493527+633116262+632881337+635726517+638870027
3638+641800627+644837758+647690176+650621831+655852973+665396743+675745409
3628+678584482+673677757+669076750+669924016+676562744+686525775+695138668
3618+698101235+696315552+694600664+696042328+699690820+702491217+702362220
3608+699313554+695004845+691735806+691031636+692984917+697027790+702912287
3598+710168408+716641573+719529727+719176360+719651110+723914432+730042750
3588+732435647+728074465+721026655+716705808+716030589+716644891+716623479
3578+716466963+717405379+718669116+718489530+717958613+721001624+729305859
3568+738231407+740606059+736096202+729954464+725086039+721493488+718670021
3558+716618880+715783903+716217940+717089709+717680941+718512601+720414087
3548+723429730+727055454+730333314+731730647+730408858+727466270+724888283
3538+723891663+724101783+724174010+723472478+722893912+723815667+726388000
3528+729396858+731571644+731854217+729264242+724576533+720876924+720670498
3518+723279171+725750175+726238043+725825267+726528457+728435748+729780156
3508+729669554+729364967+730353595+732210599+733026879+731959767+730194666
3498+729042813+728163429+726346308+723813707+722588571+724051496+726588621
3488+726555523+722851919+719016226+718682235+721305760+723961929+725089959
3478+724675298+722779164+720034785+718104046+717726930+717277815+715084181
3468+712611970+713311089+718311603+724661727+728149934+727309679+724439770
3458+723190584+725218052+728765291+730726488+730367543+729768244+730364301
3448+730933819+729539652+726454421+724248347+724926582+727574987+729307819
3438+728743502+727354990+726736843+726228694+724568013+722684245+722471787
3428+723586246+724378400+725350894+728563841+733350089+735318071+731680737
3418+725563276+722253148+723254969+725751608+726566304+724950180+721658372
3408+717675965+714833951+715345493+719102475+723067241+724795549+725045025
3398+725630527+726922385+728524787+730197004+731197619+730401168+727782770
3388+724754762+722995618+723277512+724601413+724721061+722844002+720976368
3378+721377684+724026466+727349336+729832403+730317859+728683867+726704198
3368+726597442+728586534+731093501+732870815+733620523+733495974+733288417
3358+734306071+737074049+740558411+742854956+742493371+739268512+734174812
3348+729199027+726414010+726581835+728574019+730333390+730578040+729728286
3338+729249465+729782191+730357666+730360305+731075860+733615321+736683136
3328+738149379+737553247+735645201+733196965+731593734+732610559+736048252
3318+739097370+738953370+735474964+731191512+728886674+729468255+731800914
3308+734143223+735626429+736174762+735753692+734453691+732684067+730894087
3298+729486123+729077192+730199793+732558613+734936055+735923326+734915096
3288+732745135+731247680+731761408+734046343+736856767+739181358+740441627
3278+740241609+738697034+737047662+737076914+739097672+741330661+741898068
3268+740705879+739136650+738528530+739162811+740328839+740850182+740075443
3258+738372542+736559944+735544326+736240504+738516920+740327784+739482025
3248+736405464+733451794+732033350+731806568+732018272+732820604+734662680
3238+736788687+737646960+736967066+736244877+736681176+737514947+737238180
3228+736014325+735459358+736162623+737127427+737440836+736772779+734760766
3218+731963310+730517952+731660984+734085924+735866103+736063331+734263173
3208+731317796+730106230+732667556+737149668+739668774+738857998+736559718
3198+734794467+733870677+732921253+731507635+730228292+729567397+728898510
3188+727399774+725538321+724687738+725445663+727079203+728454144+728934473
3178+728639913+728358094+728775846+729557596+729818832+729338579+728701509
3168+728573944+728929120+728622798+726450727+723024569+720323917+719241726
3158+718989914+718822692+718635340+717862336+715758797+713097425+711640908
3148+711605850+711327726+709803732+708215956+708207361+709693885+711063247
3138+711195260+710585406+710028554+709320312+708116437+707105945+707357833
3128+709024093+710955737+711116625+708063059+702816990+698248327+696146521
3118+695782373+695581451+695287343+695683382+696658213+696735265+694993989
3108+692506398+691248014+692166526+694304294+695503947+694480186+692182133
3098+690297685+688990748+687248115+684767083+682369285+680972630+681101853
3088+682994820+686229405+689212026+689979376+688220307+685755862+684373984
3078+684234431+684623912+685003817+684895552+683795117+681743221+679365704
3068+677294961+675946407+675455674+675437504+675117008+674055400+672590138
3058+671324516+670674478+671090496+672681363+674290551+674184096+672088171
3048+669543960+667907857+667033751+666206539+665440547+665291495+665791652
3038+666141249+665626843+664354435+662681013+660593909+658111068+656099960
3028+655854858+657346282+658580238+657650492+654837656+651637224+648994927
3018+647343217+647212184+648815265+651269231+652821346+652227853+649906428
3008+647440022+646042764+645666854+645363775+644326066+642655735+641196881
2998+640616732+640891388+641425849+641336508+640128864+638292592+636568430
2988+634972060+633363023+632236086+631965350+632020764+631841480+631724394
2978+632152400+632800817+632640306+631017133+628543602+626656479+626196016
2968+626617463+626686749+625854561+624562703+623263154+621997683+620867052
2958+620022048+619259109+618294192+617375415+616935309+616755534+616206409
2948+615163536+614190590+613793570+613659220+612891908+611277669+609866350
2938+609618157+609869253+609023834+606684993+604120200+602495858+601645425
2928+600741124+599404294+597871630+596492391+595387055+594298682+592708531
2918+590486662+588408530+587489678+587712540+588084943+588060931+587877764
2908+587356798+585881584+583885856+582686467+582515740+582309616+581556704
2898+580812914+580338768+579572323+578093980+576236636+574574862+573389986
2888+572667344+572206052+571728287+571162689+570727634+570476764+570085587
2878+569364077+568515793+567702792+566864196+565950735+564873407+563432233
2868+561649151+559813559+558101196+556574714+555438655+554850665+554632780
2858+554542157+554504310+554263166+553271447+551387678+549330279+548000309
2848+547579164+547567214+547446208+546928523+545738897+543703927+541190175
2838+539038648+537817960+537310076+536843921+536005551+534963695+534167508
2828+533747569+533357901+532651318+531616059+530378219+529095596+528123479
2818+527813087+527958934+527734489+526444855+524372679+522625673+521917545
2808+521764082+521236030+520142002+518896850+517599902+515922145+513802622
2798+511813491+510655116+510392598+510435459+510226055+509579560+508486739
2788+507142859+505984823+505243899+504744684+504271329+503635540+502507360
2778+500862247+499341270+498522879+498126010+497452186+496330527+495171774
2768+494282024+493508228+492533699+491275503+489878057+488448907+487016479
2758+485707770+484714656+484004416+483295119+482378868+481223245+479877593
2748+478593048+477734548+477196921+476300121+474644982+472696337+471218974
2738+470481669+470183753+469881239+469294870+468357472+467231365+466256119
2728+465599107+464997584+464147604+463174733+462354306+461644029+460865484
2718+460052559+459319965+458608519+457716206+456503322+455112246+453938641
2708+453182110+452527699+451568474+450420654+449525476+448907140+448099267
2698+446861842+445476006+444212344+443010392+441822274+440820716+440104370
2688+439504392+438821408+438116559+437637022+437441942+437251236+436770342
2678+436007893+435149581+434287840+433362692+432261880+430995805+429786653
2668+428843148+428091593+427315837+426478598+425718335+425088087+424465492
2658+423724455+422866558+421947292+421001864+420093906+419292893+418556040
2648+417762039+416904293+416169513+415750668+415553440+415205690+414485046
2638+413550135+412607195+411685441+410875306+410343898+409980768+409468397
2628+408763586+408093418+407480586+406713727+405822544+405159010+404885937
2618+404753849+404519339+404188891+403719947+402937330+401877154+400815131
2608+399933750+399268482+398834407+398529028+398102341+397437224+396711303
2598+396154790+395746726+395253392+394536781+393695245+392895816+392250565
2588+391863610+391738345+391610969+391155030+390370980+389535400+388795456
2578+388065614+387311684+386681022+386290675+386075541+385898933+385648553
2568+385213611+384558220+383824382+383214453+382783130+382458149+382240037
2558+382218814+382313092+382160422+381497152+380565219+379874695+379613157
2548+379505194+379182098+378530363+377748048+377135254+376788182+376542929
2538+376242752+375935262+375770113+375805925+375920334+375889083+375609187
2528+375207531+374861364+374592626+374311825+373957289+373523214+373038965
2518+372574356+372216239+371992058+371830416+371622784+371342472+371100159
2508+371039883+371149353+371186711+370886873+370279432+369671161+369237048
2498+368812510+368196776+367437569+366698755+366089467+365735572+365774852
2488+366143712+366523957+366626114+366443324+366129501+365740435+365278088
2478+364893358+364779288+364881332+364945153+364814421+364518654+364184211
2468+363983138+364003155+364078699+363923088+363484791+363030963+362839351
2458+362884851+362868792+362526471+361864256+361116396+360563614+360399635
2448+360652427+361129062+361465013+361376954+360947892+360521093+360229435
2438+359880780+359408745+359055755+358934938+358820491+358554693+358291308
2428+358198462+358223982+358254592+358296925+358416046+358596159+358719427
2418+358657906+358375635+357978239+357678438+357645944+357853614+358138901
2408+358415103+358695716+358913488+358903914+358613161+358178822+357774263
2398+357498890+357405403+357461533+357473030+357249829+356888697+356669643
2388+356622975+356391669+355556993+353950407+351644211+348768120+345362469
2378+341415119+337077195+332720349+328598426+324583864+320514490+316679476
2368+313607815+311429486+309775590+308357015+307406121+307522716+309354313
2358+313364484+319420010+326771428+334957899+343915338+352577991+358775632
2348+361005229+359669190+356755252+354079706+351736341+348922148+345455277
2338+341763849+338183437+334719695+331368930+328496307+326650197+325945988
2328+325915040+326031786+326136808+326371808+326998851+328298739+330316029
2318+332581286+334384686+335482182+336286851+337304505+338667384+340247319
2308+341892658+343442850+344712016+345597582+346189153+346716753+347352315
2298+348072959+348735173+349245357+349643998+350063974+350604429+351227439
2288+351790549+352166986+352319921+352325349+352353923+352544554+352830218
2278+352961929+352788639+352454949+352232993+352212335+352266919+352279472
2268+352274572+352335414+352471800+352614406+352721200+352809221+352847219
2258+352750829+352558351+352445714+352500600+352655306+352852082+353109624
2248+353452323+353869472+354278781+354532252+354592039+354637651+354853992
2238+355210940+355563326+355857924+356147433+356469248+356774929+356979357
2228+357085133+357230416+357544352+357968211+358322596+358543347+358689345
2218+358738388+358632197+358523179+358655154+358975386+359193686+359240619
2208+359345000+359670132+360164597+360722769+361250218+361640264+361857773
2198+361981945+362108793+362300480+362592176+362938757+363223479+363407023
2188+363579107+363833898+364207847+364720180+365331504+365884851+366229773
2178+366415466+366648996+367031427+367428145+367678525+367852381+368149995
2168+368570348+368872335+368930727+368948029+369180843+369595014+369970810
2158+370246221+370529661+370818303+370961851+370929319+370884686+370951975
2148+371098652+371316990+371726562+372356018+372965872+373274907+373286782
2138+373227448+373242488+373310191+373382682+373479109+373674829+374045650
2128+374574795+375117059+375501978+375671235+375714963+375802042+376038852
2118+376347284+376546284+376582171+376589258+376695260+376883743+377083987
2108+377265834+377390195+377396528+377320796+377309864+377428872+377566389
2098+377625723+377699344+377934269+378295439+378586682+378708140+378780819
2088+378932434+379058265+378964928+378711759+378585023+378725857+378992296
2078+379189298+379246521+379194387+379118579+379076095+378989883+378793786
2068+378688764+378956597+379486271+379802318+379613534+379093247+378636592
2058+378501789+378595427+378547628+378135078+377591117+377327016+377445647
2048+377705715+377889259+378059873+378405437+378867219+379110361+378953845
2038+378584571+378217218+377857745+377540378+377471092+377752835+378192490
2028+378531796+378739880+378950453+379200607+379430442+379713656+380195832
2018+380737832+380950440+380710087+380325470+380102005+380072112+380181394
2008+380389101+380523980+380359472+379930675+379551523+379438208+379474698
1998+379454719+379490794+379964149+380910331+381686841+381612164+380730292
1988+379542589+378406191+377562280+377209742+377225009+377219430+376997737
1978+376654548+376304499+375986680+375721598+375575222+375742029+376352109
1968+377031589+377024690+376055702+374703039+373698729+373263448+373208637
1958+373294736+373343590+373235741+372947325+372563198+372243456+372128595
1948+372313270+373021926+374480064+376120615+376446162+374724375+372186648
1938+370457774+369801252+369512346+369118794+368671601+368330900+368107021
1928+368066459+368628212+370086727+371785632+372759182+373226882+373890943
1918+374019262+372285224+369331855+367267369+367122351+368166129+369023950
1908+368909956+368000302+366919694+366075746+365518064+365191235+365171369
1898+365635714+366422365+366872498+366825529+367245128+368654034+369701092
1888+368841801+366672707+364828557+363905785+363623664+363716398+363957165
1878+364072856+363994673+364006095+364892491+367771522+372827412+377789363
1868+378984380+375575637+370611500+367092005+365703794+365654940+365976905
1858+366064060+365778358+365369653+365185995+365510261+366542579+368401619
1848+371369425+375681866+380000677+381015165+377512294+372701506+369780820
1838+368996658+368948972+369040499+370457774+374469886+379827801+383037770
1828+382784299+381260946+379762774+377419975+374282421+371982257+371356533
1818+371688639+372101604+372768191+374492429+377262479+379634983+380138495
1808+379048841+377996505+378480302+381094177+385081070+388347244+389107281
1798+388042808+387885839+390867895+396470611+400536818+398923748+393492664
1788+389356342+388679614+390230636+392273522+394327641+396085655+396820435
1778+397016343+398905729+404459251+412931423+419719052+420229010+415672787
1768+410044324+405754841+404441609+406932555+411308891+414012370+414479957
1758+414781981+415402088+416117191+418710332+425032787+433373247+438882815
1748+439196111+436727443+434681165+434569885+436392472+438840444+440215763
1738+441330750+445627169+454214089+461415438+460662827+455086574+450082064
1728+446931166+445831182+447103476+450278237+455267744+463786848+477291765
1718+492600459+500992489+498514397+491400542+486182482+485316141+489182519
1708+497239163+507336016+516166192+523389668+532631602+545570280+557348359
1698+563049538+563794798+560627388+555354328+552957661+556241854+563840674
1688+573969193+587808553+605451941+618260453+618241153+612563308+610123026
1678+613550240+621788015+631306529+638948813+645842746+653864408+660085082
1668+660551538+658583706+660259240+666441313+672609664+674862331+675395661
1658+679184459+689611609+707625780+727573102+734596938+729701823+728348971
1648+733444254+736796678+731111520+721191916+714540748+713367935+717640606
1638+726408205+734587589+732475455+719235619+705826150+698510619+696116666
1628+695122006+693716380+692095204+688906006+682045773+674150395+670348252
1618+670978236+669913989+662311964+652391983+645610310+642436718+640417845
1608+637474051+633726945+630437512+628011743+625715951+622862290+619739927
1598+617239557+615717561+614570193+613066066+611145618+609114720+607134788
1588+605301155+603771130+602581127+601528830+600656269+601097017+604694845
1578+611534382+616967011+614861399+608352045+605624629+608525034+611954321
1568+610828101+606993803+604716596+606213335+613811627+630278885+651137519
1558+657402826+645024883+631159362+622832698+619277014+618833930+619981524
1548+622511260+628221071+638746458+653574070+670447922+683721533+683422600
1538+671549262+662511756+662260094+666819409+669262744+668951145+671228993
1528+678463401+687961182+696945159+706273833+716147674+722604479+723760630
1518+722882981+721406183+718352391+715298900+716086078+723340088+737251826
1508+753798774+760743296+750223941+735357577+727847834+728691557+734858627
1498+741412613+743277157+740579219+739172311+743353228+751636277+757588326
1488+756117409+749630221+743679529+741126648+741834135+744448085+748267267
1478+753801413+761648389+771240637+779541101+781068563+774519854+766779484
1468+764313530+767558821+772111275+773593199+773713677+777874012+788480823
1458+800953158+803926808+794461672+783069643+776458283+774901795+776231048
1448+776986486+774471150+769343146+764214690+760925445+760613319+764072348
1438+769990093+773635494+771748861+767992406+766830675+767905855+768215644
1428+766780841+765511977+765726395+767029562+769556056+774085063+778379446
1418+777129808+769984288+762522344+758158750+756295111+755250164+754567254
1408+754938339+756449892+757748084+757991603+758715150+761636100+765949558
1398+769477421+771277353+771214852+769000711+765970291+765007975+767288160
1388+770530133+771149939+769097893+768280633+771463423+777811436+785075775
1378+792419352+800334559+808366625+814323725+816752962+816950793+817066823
1368+818218074+821042068+825759030+830711971+832526378+829535539+823828291
1358+818518439+815006484+813022065+811803564+810794052+809464723+807292501
1348+804376828+801599577+800015722+800410103+803089644+807385460+811351734
1338+812868641+811720707+809850434+809271642+810463002+812743639+815445874
1328+818285852+821011157+823297977+825083358+826823428+829146360+832128982
1318+835287193+838364358+841391838+843961909+845563331+846702217+848550627
1308+851438932+854646752+857577277+860258251+862744787+864832870+866357995
1298+867215665+867303573+866773938+865895308+864449196+861790312+857744725
1288+853055206+848775826+845410434+842666205+839990358+837237384+834713001
1278+832742530+831376183+830384615+829494601+828724160+828313796+828295626
1268+828463677+828707649+829022942+829336125+829640411+830215282+831465071
1258+833378394+835206071+836080252+836149312+836533364+837988222+840345760
1248+843098132+845745104+847806498+849103484+849935143+850815658+852143630
1238+854022724+856328543+858992855+861886438+864387826+865745879+866061927
1228+866321278+867370221+869288143+871628718+873943357+876167148+878644863
1218+881719916+885237979+888494729+890803186+892185441+893472550+895636931
1208+898855533+902181343+904660490+906808737+909947045+914026861+917357270
1198+918964723+919901707+921424947+923381093+925211484+927104827+929367974
1188+931788088+934053873+936085035+937966919+939999891+942522012+945502296
1178+948663674+951882200+954984546+957472815+959113894+960339407+961603973
1168+962906915+964158740+965575374+967559943+970305001+973430568+976222219
1158+978304799+979614978+980010640+979634655+979151989+979114519+979888353
1148+982155269+986077211+990051024+991966608+992053838+992907965+996102592
1138+1000120434+1002344979+1002329222+1001858544+1002511221+1004424920
1130+1006619082+1007655886+1007149245+1006863280+1008863455+1012700053
1121+1015779102+1016643558+1016398682+1016821561+1018510137+1020808115
1113+1022732294+1024021137+1025314051+1027205435+1029220614+1030226959
1104+1029885957+1028937588+1028435019+1029435710+1032565951+1036646445
1095+1038607265+1036747245+1033488007+1032673084+1035009211+1037944712
1087+1039422489+1040154027+1041975597+1045417211+1049352422+1052021711
1078+1052561750+1052294784+1053045472+1053951997+1052595451+1049595414
1070+1048486006+1050691251+1053676209+1054961584+1056161539+1060618319
1061+1067970340+1073295874+1072904056+1069043408+1066256281+1066199435
1053+1067647507+1069170219+1070330517+1071433969+1072594191+1072895688
1044+1071348096+1068847764+1067669145+1068797627+1071112870+1073010511
1035+1073741823+1073047529+1070640307+1066975907+1064094915+1064056088
1027+1065911584+1066194685+1063559927+1060549334+1059876754+1061628132
1018+1064587307+1067732475+1069314974+1067360713+1062222908+1056619325
1010+1053033484+1052101627+1052646643+1052998125+1052769081+1052728670
1001+1053124107+1053299697+1052735984+1051387731+1049733232+1048724776
993+1048580172+1047974616+1045576215+1042067501+1039318824+1038097005
984+1037695312+1036973650+1034675145+1029886861+1023264795+1016853000
975+1012110103+1008704527+1005594718+1002532481+999650359+996466287+992474833
965+988052205+983786396+979402822+974476645+969610104+965762197+963023548
955+960828632+958736628+956388664+953453918+950480871+948708533+948142558
945+947313537+945841640+945115756+945534037+945646598+944735323+943910600
935+943972648+944074730+943047727+940856807+938496856+937231235+937797737
925+939600157+940836225+940305685+938751685+937445200+936442247+935222540
915+933886199+932908654+932782371+933935506+935812565+936589037+935079444
905+932255675+930082247+929696989+930870179+932606856+934082296+934991837
895+935020185+933793617+931930430+930984474+931703271+933205928+934022434
885+933224475+930883146+928283672+926928559+926730049+926175911+924590698
875+922963341+922123840+921568420+920657371+919954558+920598112+922603565
865+924414505+924351099+922362006+919973858+918656215+918720450+919441433
855+919558820+918231979+916239569+915261421+915595638+915993863+915893968
845+916078077+916868573+917483855+917468399+917365940+917610364+917678595
835+916783002+915257726+914764355+916606657+920148770+923249457+924114214
825+922635306+920227933+918670163+919144762+921688973+925060924+927684524
815+929179717+930483111+932315387+934174351+935076353+934754500+933653386
805+932480648+931925379+932288471+933278758+933862375+933161673+931672812
795+930603966+930345896+930529252+931109551+932329410+933905274+935196303
785+935975791+936562725+937401623+938476877+939310196+939698319+940019342
776+940512412+940476977+939047979+936734244+934876109+933623982+931695279
766+928805844+926836805+927420573+930083604+933190624+935061425+934547999
756+932381732+931185321+932850224+937040264+942192394+945967772+945777480
746+941842570+938327825+938857310+942503993+945452612+945486765+943793439
736+942738013+943177478+944175003+944601501+944393642+944128636+943851190
726+943053155+941911178+941594301+942785510+944638293+945743780+945118018
716+942595218+939867275+939773636+943174689+947509332+949012291+945974859
706+940108532+934878145+932192948+931326155+931080676+930850124+929322813
696+925446785+921033884+918979877+919278132+919470007+918186668+915804627
686+912315591+907028885+900695197+895470388+892298154+890122312+887757913
676+885665607+885087570+885277258+883017052+876414814+869423247+868343620
666+870805577+871003484+869194655+869206266+872433990+876003998+876751142
656+874561429+871002805+867500500+865171686+863177919+858579551+850886980
646+844254358+842682867+845646037+849973895+853522341+854429243+850635997
636+843596856+838428216+837558105+837642621+834548795+829284707+826633513
626+828295400+831019273+831978121+832716972+836647057+843846935+848526200
616+844006014+831654835+819490481+812729691+811071197+812936645+818063895
606+825336075+830833806+830170046+822357299+810713683
##END=
