##TITLE=<SNM>
##JCAMP-DX=4.24
##DATA TYPE=INFRARED SPECTRUM
##DATE=3/5/2025
##SAMPLING PROCEDURE=Instrument type and / or accessory
##ORIGIN=Admin
##XUNITS=1/CM
##YUNITS=ABSORBANCE
##RESOLUTION=4
##FIRSTX=4497.3318
##LASTX=599.83466
##DELTAX=-1.4281778
##MAXY=1.71243
##MINY=0.18141119
##XFACTOR=1
##YFACTOR=1.5948247e-09
##NPOINTS=2730
##FIRSTY=0.20510621
##XYDATA=(X++(Y..Y))
4497+128607371+127964355+126549504+125489032+125544775+126372371+127009389
4487+126928661+126452211+126195930+126393852+126815793+127015593+126650479
4477+125900658+125436625+125647544+126167469+126424891+126321337+126178999
4467+126296512+126701391+127263559+127890233+128427519+128607193+128476245
4457+128520037+128880816+128944323+128218253+127063375+126140644+125729841
4447+125798179+126129834+126251785+125780455+124954447+124394999+124303695
4437+124303564+124073846+123693222+123291482+122826692+122287967+121729528
4427+121182357+120820158+120948164+121487075+121773919+121273652+120216301
4417+119199145+118514149+118245908+118649124+119832257+121220852+121894617
4407+121483552+120401086+119278919+118490202+118119995+118085565+118220475
4397+118330886+118285047+118115987+117929146+117721264+117503926+117439129
4387+117529938+117431636+116907365+116179034+115582465+115212156+114986110
4377+114796839+114594376+114449366+114490412+114831111+115565338+116577635
4367+117360700+117380256+116629734+115545521+114521376+113827550+113749925
4357+114340832+115230441+116083180+116930780+117749724+118246309+118350265
4347+118268659+117910693+117010284+115841558+115152442+115403668+116367594
4337+117284383+117417378+116760393+116019673+115679851+115513146+115237925
4327+115100987+115389335+115775799+115700799+115285240+115259985+115942000
4317+116939208+117907292+118825650+119457211+119352321+118604687+117961101
4307+117945338+118323122+118599389+118677061+118846561+119369457+120200557
4297+120936017+121041962+120352603+119306660+118578824+118563090+119130788
4287+119689162+119695861+119258373+118870872+118650479+118421088+118342089
4277+118702606+119303315+119749876+120096191+120581274+121035413+121138919
4267+121049129+121245229+121824439+122313026+122239353+121743104+121478507
4257+121912977+122857404+123759102+124287017+124514380+124720459+125070324
4247+125335295+125066933+124235375+123380525+122960126+122955949+123195702
4237+123577391+123922725+124025288+123875961+123640562+123549258+123824189
4227+124415807+124849455+124633126+123814500+123017214+122935020+123704490
4217+124771857+125577571+126151763+126719901+127137226+127143953+126779204
4207+126279451+125958699+126157435+126849308+127474300+127578620+127336895
4197+127123426+126939192+126583328+126071727+125615617+125392197+125507458
4187+126002268+126744773+127467087+128005494+128374803+128629001+128848562
4177+129195354+129760950+130376179+130717943+130686998+130620276+130899085
4167+131388887+131651316+131617203+131530001+131401930+131110050+130788570
4157+130622771+130547622+130494626+130580632+130821422+131017149+131121244
4147+131360931+131777920+131991549+131685691+131061250+130535176+130266197
4137+130211809+130402639+130947914+131846772+132880167+133750668+134335296
4127+134643107+134570013+134010285+133167356+132443351+132095672+132185827
4117+132653980+133301061+133875412+134270341+134566556+134841282+134941088
4107+134604416+133949963+133582598+133928707+134715294+135372223+135735179
4097+136081465+136563185+136868352+136623899+135971315+135422715+135263138
4087+135424210+135792258+136302643+136858980+137330796+137525075+137297627
4077+136882404+136760641+137019987+137288246+137314698+137112076+136688724
4067+136190746+136014267+136296458+136663114+136799350+136845787+137047933
4057+137437246+137928319+138408133+138754841+138944195+139037891+139023605
4047+138836801+138525132+138171436+137667301+136881124+136116812+136020882
4037+136827409+138033975+139024773+139662977+140130654+140540308+140871066
4027+141114454+141381938+141885895+142660364+143322488+143366888+142691226
4017+141689487+140865320+140451069+140348356+140359008+140443893+140731288
4007+141286719+141929781+142343444+142419397+142390180+142444540+142416304
3997+142141896+141841402+141814325+142075623+142534489+143135068+143714660
3987+144125585+144394742+144416559+143893036+143016845+142697561+143557606
3977+145062154+146107956+146238195+145868381+145511732+145275530+145080710
3967+144960142+145029554+145336991+145796147+146243941+146562272+146696734
3957+146599749+146311569+146074703+146209174+146823272+147611270+148016131
3947+147887799+147807857+148267890+148878943+148967061+148595939+148308497
3937+148318205+148589184+149193574+150082771+150828640+151073186+151109625
3927+151535556+152416260+153136854+153197465+152910537+152960488+153491915
3917+153799623+152976456+151034495+149036856+148012973+148205542+149489761
3907+152009231+155748161+159641249+162096370+162679402+161944876+160009082
3897+157118368+154689838+154217256+155555070+156742201+156378517+155874662
3887+157076043+159187512+160018051+159657619+159648593+159461107+157971818
3878+156610674+157308489+159757463+162568738+165054095+166396692+165624325
3868+163941066+163558751+164402651+164474110+162896917+161002309+160614836
3858+162988389+168700263+176363404+180330165+176187672+168540229+162571597
3848+159538022+159130742+160740487+163677768+167382725+171454936+175113008
3838+176996329+176462930+174436168+172069828+169916873+168408766+167915657
3828+168167855+168762360+170529000+174699448+179875494+182142924+181029615
3818+179599171+178208380+175164602+171328332+169268476+170148479+173298622
3808+176557187+178075964+179028790+181429645+184186934+184641698+183306109
3798+182179737+180977423+178918930+176990891+176528914+177553441+179401930
3788+181782062+184654779+187752898+190937108+194389848+197690944+199735608
3778+200602456+202025762+205285186+210330648+216469648+222627260+227886911
3768+232606006+237552297+242511518+247470964+253680620+261989112+271131246
3758+279186793+286627372+295950862+308966117+324680058+338719485+348242214
3748+356160039+365736512+376130014+383729339+388650607+394944466+405013899
3738+418743946+434612857+450097417+462016890+468421562+470752154+472469143
3728+475468502+478717406+480720305+482598711+486412109+491712609+496428023
3718+500092635+504381240+511258653+521160951+531738556+539292509+543453595
3708+547141304+552618134+560592729+570151861+578667554+584377484+588548063
3698+592787745+596703024+599484718+602268430+607461705+615297755+621549194
3688+621829498+617637915+613240515+611393838+612695007+616301802+621497731
3678+627199476+629444669+625516572+621015758+621902451+626501259+628776202
3668+626641896+623079651+620919782+621340275+624362170+629482192+635926929
3658+641963768+645266639+646449445+649164800+654880374+660366547+660525984
3648+656021022+652819957+653579392+656814169+660160992+662322916+663770253
3638+665989135+669835646+675132483+681688220+689469443+696665318+698365452
3628+692422122+684394979+678695252+675666480+675540605+678880327+684331668
3618+689260823+693477334+698448646+703909854+708481640+712448644+716455114
3608+718622943+717721861+716563348+717721413+720030963+720768797+719357637
3598+717289596+715505894+714129268+714016997+716374611+720576845+723794803
3588+723077600+718771990+714790261+714175238+716678011+720172461+722917416
3578+724153816+723226871+720073046+716802914+716757692+721093500+726770579
3568+728284666+723281885+715832242+711192211+710814288+713316762+716902030
3558+720489390+723742779+726141877+726473906+724709190+723526011+725172775
3548+727686984+727194547+723800932+721775796+723615708+726697401+726993850
3538+724463196+722176892+721444590+721010082+720350883+720505685+721879247
3528+723464269+724388448+725016179+726392057+728868071+730884686+729896149
3518+725789293+722017306+721873790+725046078+728913667+731566459+732227377
3508+730684138+727984480+726047919+724983589+723071471+720478477+719519690
3498+720799966+722258142+722504660+722924517+725123367+727927672+728485886
3488+726202198+723969937+724384786+726689029+728516757+729020033+728724780
3478+727721368+725582541+722437686+719514308+718285533+719218382+721640503
3468+724525236+726773644+726923886+723889508+718731178+714888031+715675721
3458+721469929+729293235+735012322+736208134+733377891+728975932+725669846
3448+724981869+726840169+729850852+731764988+730908904+727783483+724642366
3438+723608457+725165150+728104524+730593245+731344533+730449804+729336813
3428+729508957+731024688+732399595+732335985+731348569+731199523+732356092
3418+732766232+730839987+728454866+728118203+728681127+727519699+725359046
3408+724544222+724647748+723888761+722853507+723455823+725342003+725970630
3398+724388299+722996873+724424327+727815625+729779393+728610117+725908067
3388+724317737+725146613+727756275+730452794+732393316+734170739+735625028
3378+734753471+730556843+725349179+722577912+723513005+726522342+728618862
3368+728074775+726337043+726587746+730155747+735202031+739143546+740848314
3358+740256388+737942427+735385537+734330998+735426648+738025771+740550819
3348+740967537+738631077+735602903+734182175+733774652+732444743+730981035
3338+732350860+737260356+743067719+746510967+745677755+740863189+735203078
3328+732566432+733474092+735075259+735348537+735138496+735986507+737761239
3318+738784085+737725211+735288813+733396504+732925145+732981281+732241055
3308+730760082+729849208+730227206+731105266+731176500+730199475+728944612
3298+728497024+729894131+733218081+737228065+740427336+742163872+742735541
3288+742464955+740785750+737442067+734324644+733764112+735380977+737027592
3278+738024949+738932459+739485442+739341403+738971477+738319529+736636363
3268+734143008+732425607+732752927+734762964+737122745+739030079+740373069
3258+740648215+739116188+736509367+735182971+736548833+739103780+739819937
3248+737261178+732793963+729190532+728598008+731155870+735049771+738290751
3238+740343618+741414452+740920072+738038104+733525667+730116804+730085111
3228+732497365+734304836+734069157+733123974+733066717+733868609+734752574
3218+735303165+735189549+734143157+732495571+730698041+728506068+725550923
3208+722556460+721199791+722652660+726517484+731290191+735724965+738965423
3198+739487833+735945770+729660619+724272291+722408759+723807884+726292942
3188+727629503+727261820+726809896+727721966+728669915+727237751+723660108
3178+720540667+719606920+720229343+720650920+720045091+719150138+718753228
3168+718501777+718091563+718296296+719314807+719533967+717704370+714921518
3158+712768264+711201181+709621615+708477678+708093700+707688419+707162719
3148+707615091+709028194+709547615+708148565+706001291+704500509+703989684
3138+704457529+705596383+706343037+705892608+704794118+704025189+703544712
3128+702792228+701975162+701540206+700833692+699001105+697064395+696948462
3118+698385335+699007982+697830259+696080792+694231612+691461990+688389341
3108+686987076+687483699+688174367+688195072+688040120+687897576+687769758
3098+688200827+689091071+689226289+688222504+687305277+687364776+687759667
3088+687501564+686518708+685285522+683908821+682116000+679951834+677952112
3078+676641488+676246970+676551566+676802195+676502457+676198235+676467027
3068+676714068+676014206+674555208+673359172+672740860+671660982+669102970
3058+665958115+664467947+665459549+667319717+668283363+668570767+669305910
3048+670280319+669949187+667529608+664217020+661901937+661193629+661161338
3038+660712554+659703163+658815909+658714850+659254827+659424429+658366078
3028+656634924+655737504+656008315+655952852+654614945+653280850+653375032
3018+654104419+653661390+651679533+649230055+647289832+646112109+645488191
3008+645097037+644757459+644451367+644155143+643732071+643007244+641975204
2998+640871930+639898791+638894557+637466953+635474482+633405618+632205845
2988+632324693+632936876+632883880+632355863+632394134+632845161+632424033
2978+630885205+629352804+628414647+627555574+626435518+625300663+624270268
2968+623405102+623046239+623159407+622942788+621784574+619959388+618065023
2958+616542826+615768254+615764928+615793107+614964157+613429963+612369743
2948+612486312+612987569+612408686+610178443+607063337+604377545+603157627
2938+603590826+604813921+605596715+605337603+604240719+602884798+601937036
2928+601803425+602144274+602014250+600802630+598931399+597300294+595960369
2918+593915686+590792247+587977253+587141724+588258864+589799599+590330082
2908+589402278+587441686+585288358+583572976+582424554+581764383+581494395
2898+581305433+580722776+579566917+578228748+577309913+576890729+576346305
2888+575216047+573992541+573412126+573243645+572520985+570825262+568781289
2878+567298185+566616487+566184147+565436260+564482331+563758663+563282147
2868+562682223+561744851+560502023+559053303+557752284+557190892+557396074
2858+557454639+556558079+554981353+553440507+552064030+550716331+549771559
2848+549731270+550354553+550734756+550106092+548353934+545964553+543719883
2838+542236442+541502085+540951531+540144183+539165812+538212145+537171733
2828+535917543+534687049+533854548+533499235+533342527+532924576+531841334
2818+530095940+528242537+526910124+526158686+525512381+524616382+523606318
2808+522772284+522129081+521472910+520727153+520006026+519307884+518396748
2798+517128207+515705947+514432174+513340261+512246816+511073391+509920783
2788+508782191+507473174+506119906+505376504+505631618+506279380+506310176
2778+505339093+503649760+501650113+499690643+498108087+497086325+496458669
2768+495782876+494761750+493570161+492617167+492085114+491794943+491283371
2758+490092044+488329683+486676678+485534161+484655129+483814294+483201663
2748+482898524+482486403+481447187+479745521+477860014+476280821+475087327
2738+474065079+473060135+472061956+471057797+469977134+468806624+467674460
2728+466671235+465629104+464350547+463001241+461876552+460851276+459562292
2718+458100677+457029134+456630430+456483177+455920178+454738905+453335669
2708+452228694+451569533+451099483+450501988+449735451+448978184+448293832
2698+447507301+446503815+445479997+444651233+443793505+442492859+440899316
2688+439682649+439125331+438836507+438406185+437733718+436768503+435528440
2678+434224768+432975138+431723116+430579179+429718946+428968854+428064446
2668+427150881+426529691+426192430+425956489+425671440+425105264+424090640
2658+422894866+422044164+421742931+421708136+421493199+420815164+419673395
2648+418284734+416914574+415750343+414841599+414095842+413412238+412825059
2638+412405202+412076798+411683738+411171717+410569999+409898541+409199539
2628+408568520+408069094+407642884+407134974+406397215+405390963+404270609
2618+403342842+402811910+402564944+402339618+402034461+401660648+401084830
2608+400100516+398785258+397612244+397056346+397037174+396916867+396263312
2598+395397062+394890423+394807827+394746796+394371189+393674280+392894065
2588+392249105+391696870+391089471+390551102+390343154+390334371+390054927
2578+389358504+388610281+388163589+388010357+387971264+387901113+387664948
2568+387203756+386668600+386301291+386168091+386140583+386102275+386010298
2558+385771592+385291787+384720267+384410962+384502266+384726882+384778869
2548+384693097+384692050+384785372+384706028+384236576+383482260+382786884
2538+382435084+382446408+382595306+382606929+382395543+382135645+382023561
2528+381997624+381862294+381670753+381727710+382120995+382476569+382342136
2518+381687048+380868001+380208503+379801802+379652157+379757626+380006610
2508+380191311+380208167+380093990+379850799+379434529+378909017+378402078
2498+377965814+377660470+377605157+377730210+377719147+377444562+377171958
2488+377074001+376887169+376365581+375727760+375307267+375080371+374864649
2478+374696729+374698261+374772672+374668848+374246487+373610422+373059794
2468+372877971+373115294+373588783+374015143+374123116+373855482+373494676
2458+373328923+373241431+372935825+372428999+371968255+371645009+371406116
2448+371250529+371172679+371084739+370928404+370724941+370482385+370168670
2438+369775834+369378812+369135845+369140741+369237203+369119887+368663889
2428+368043110+367541778+367329794+367342725+367351359+367276312+367352667
2418+367770132+368278191+368423239+368105113+367658422+367438851+367533668
2408+367808814+368036869+368006521+367694039+367324637+367142066+367163443
2398+367259419+367358497+367427377+367352816+367003110+366399037+365754638
2388+365305256+365019272+364490395+363254332+361220525+358618001+355526030
2378+351730535+347178444+342352815+337927684+334107858+330548453+326978247
2368+323666219+321095874+319393573+318356973+317941563+318421069+320157455
2358+323479126+328557514+335210086+343030066+351430834+359228352+364797869
2348+367003521+365996447+363411040+361178965+359586281+357484865+354212491
2338+350221942+346201568+342320151+338499876+335110971+332858938+331897385
2328+331589051+331305795+331012972+331052738+331719598+333020879+334680873
2318+336385529+337969879+339351662+340492124+341494339+342539572+343682164
2308+344841910+345950080+346984101+347920650+348718058+349293988+349565172
2298+349592343+349606021+349830825+350343892+351045884+351675931+352011585
2288+352176329+352514898+353055473+353430108+353432873+353248023+353012941
2278+352601606+352007549+351547291+351469217+351627009+351710016+351609593
2268+351388303+351055788+350633502+350357534+350494471+350933464+351261680
2258+351289860+351204797+351173628+351138496+351054816+351006978+351031346
2248+351073167+351104075+351120968+351120295+351155987+351279022+351436889
2238+351584665+351774636+351993945+352117690+352146243+352281947+352677885
2228+353250975+353785308+354149777+354391474+354621173+354868588+355126317
2218+355444966+355826889+356095756+356079947+355925892+356021980+356531572
2208+357179633+357629315+357901695+358257904+358816979+359455734+359992572
2198+360369150+360690378+361108702+361664675+362266655+362804389+363238149
2188+363601198+363941262+364253258+364491479+364681151+364981225+365538356
2178+366260829+366885906+367329570+367770655+368348940+369043607+369833390
2168+370704124+371611298+372664492+374095459+375894148+377825663+379864627
2158+382226015+384996273+388079648+391401393+394867139+398237283+401275025
2148+403944261+406345826+408588740+410822309+413220548+415796051+418383812
2138+420914018+423534817+426384083+429417714+432558831+435882594+439490735
2128+443213501+446657159+449661750+452459141+455179841+457453177+458683410
2118+458573531+457329357+455423070+453155564+450535774+447600511+444554136
2108+441521963+438486576+435478920+432577219+429798552+427147630+424607819
2098+422016283+419123589+415801619+412111855+408258766+404526022+401125119
2088+398063944+395233029+392602960+390252224+388217221+386409824+384714063
2078+383130610+381793899+380813959+380118246+379526693+378949754+378389633
2068+377815871+377193036+376552487+375940267+375415315+375084071+374962270
2058+374870181+374612526+374159368+373620513+373179054+372988971+373023280
2048+373138615+373318309+373682217+374250822+374855156+375334400+375792603
2038+376576107+377914612+379672638+381545700+383374587+385178582+387000255
2028+388750694+390133151+390783380+390561118+389667548+388473306+387222555
2018+385847162+384125277+382059179+379939337+378032041+376418427+375092368
2008+374011144+373097953+372300957+371566412+370769379+369823373+368810095
1998+367901613+367256803+366974295+366935575+366766496+366204021+365382246
1988+364559350+363824394+363207652+362765184+362452888+362147881+361832521
1978+361605437+361521047+361493914+361372038+361128286+360932672+360912228
1968+360893130+360576911+359969475+359394927+359056321+358848373+358664531
1958+358593484+358644761+358562090+358144326+357556099+357148837+357126824
1948+357486547+358144064+358950291+359523792+359315695+358215261+356875261
1938+356036518+355828496+355933404+356091234+356231012+356331585+356386038
1928+356506942+356938199+357731233+358467571+358735467+358769440+358944461
1918+358941396+358263511+357245860+356655989+356725616+357100625+357348862
1908+357306442+357088366+356860723+356669294+356501747+356359839+356266255
1898+356308899+356502943+356624707+356611701+356918390+357789050+358514513
1888+358236041+357152201+356109472+355588706+355568300+355802260+356014505
1878+356088020+356059578+355975973+356109397+357136354+359412941+361907268
1868+362658706+361113748+358792200+357192378+356568572+356499841+356624147
1858+356782013+356949224+357166403+357434037+357759413+358256783+359124042
1848+360633046+362863215+364959586+365270050+363465307+361239100+360036710
1838+359906051+360197006+360581358+361517833+363572495+366171020+367714520
1828+367655133+367018508+366353366+365257193+363852836+362999592+363096016
1818+363734884+364428168+365200983+366340547+367735524+368746223+368911416
1808+368561298+368475189+369237427+370943989+373094066+374782689+375488268
1798+375760163+376793212+379353391+382905321+385383540+385049231+383028318
1788+381799132+382398234+384280041+386585743+388898956+390940163+392453577
1778+393782477+395950979+399816550+404950700+409111823+410238904+409096612
1768+407619787+406846560+407418604+409617266+412483126+414518017+415744886
1758+417148235+418752691+420351953+422839478+427070191+432082839+435585249
1748+436641731+436410125+436333360+437221959+439229791+441680727+443616203
1738+445494797+449076327+454615646+458925031+459057820+457096406+455848383
1728+455886878+457127240+459427597+462347461+465955975+471290523+478875721
1718+486771420+491103042+490801660+488828959+487870023+488882479+491999303
1708+496945725+502692804+507839250+512581124+518722797+526489444+532865151
1698+535890859+536964234+536845871+536118727+536735768+539783974+544686743
1688+551051051+559723078+570340860+578270308+579999406+579294013+580451405
1678+584691872+591348705+598434327+604218594+609386567+615296073+621016879
1668+624613995+626981961+630547719+635726456+640786493+644552351+648176413
1658+653487079+661632846+673011895+685269825+691828477+692543587+694292157
1648+699109414+703880777+705180787+704442056+704912293+707787758+713074655
1638+720269333+726953262+728685388+725201254+721643568+720776346+721574875
1628+722139144+721973653+721730125+721273941+719906882+718383153+718107110
1618+718441381+716540326+711262175+705230120+700538738+697046157+693937330
1608+690737536+687460752+684395652+681853861+680003559+678847961+678359038
1598+678447688+678698616+678509355+677716732+676690896+675694585+674573970
1588+673080139+671218551+669324746+667899609+667417487+668324250+670943106
1578+674862047+678117229+678600921+677768905+678743838+681948267+685001033
1568+686064392+686601304+688871687+693791199+701989514+714400153+729215124
1558+738719653+740893835+743046043+748685075+756867319+765849661+774614637
1548+783050051+791771001+801119307+810478377+819188039+826061678+827736621
1538+824250469+821063681+821019579+822699830+823649947+823958953+825481113
1528+828714245+832876041+837782173+843832242+849946221+853893939+855790360
1518+857440338+858628974+858273549+857325750+858186170+862545000+870246617
1508+878268677+880760387+876410826+871939052+871342641+874144928+878538740
1498+881917032+882278885+881010418+881387071+884396484+888138796+889914873
1488+889190270+887852064+887180756+886933566+886680770+886651917+887519288
1478+889799164+893542971+898233008+902486594+904314098+903402626+902111735
1468+902465291+904362160+906253125+907088354+908099465+911308976+916785582
1458+921251675+919783932+913035720+906680681+903742054+904385482+907018390
1448+908660296+907447367+904601801+902353842+901749732+903040773+906237278
1438+910390553+912879273+911818904+909349095+908737585+910493779+912468087
1428+912704065+911661336+910828349+911046837+912742560+915907896+918960288
1418+919293139+916855471+914213294+912854457+912258869+911383425+910256605
1408+909795637+909959483+909279131+907260124+905701637+905929617+906778301
1398+906635533+905696330+904583637+902948235+900957109+899624883+898787860
1388+896743812+892698398+888614415+887161546+888944724+892511903+896176254
1378+899558208+903203423+906980269+909755348+910947572+911321982+911827127
1368+912920684+914997919+918320150+922279454+925247232+925848950+924473744
1358+922763520+922140200+923279428+926173504+929966421+933006854+933949944
1348+933060821+931961210+932159739+934107437+937174405+940076554+941629435
1338+941669425+941144697+941044536+941440548+941635042+941119806+940323819
1328+940309767+941642143+943664887+945195045+945899466+946418363+947205231
1318+948126196+949130878+950170393+950576347+949847334+948792720+948695474
1308+949744481+951057722+951792939+951811551+951480419+951105934+950920635
1298+951390199+952623683+953512432+952548188+949614495+946023622+943040595
1288+941106277+939851714+938393986+936188783+933547054+930851731+927831331
1278+924181108+920286609+916861301+914413019+913112336+912571388+911812551
1268+910003659+907279932+904508591+902234470+900207615+897920040+895209020
1258+892341105+889771806+887737177+885911767+883809640+881744813+880811963
1248+881537314+883063510+884069687+884114610+883742891+883661565+884176202
1238+885197254+886437167+887479223+887936379+887878375+887894969+888459613
1228+889513553+890838753+892437006+894321841+896255636+897817412+898643970
1218+898911492+899544903+901207065+903305753+904934054+906426390+908920118
1208+912577517+916113452+918299893+919544739+921319397+924072574+926725142
1198+928512879+930153365+932473231+934911796+936338204+936782503+937494773
1188+939442396+942251111+944803218+946720045+948703098+951177093+953373252
1178+954462250+954935626+955805912+957130140+958549148+960574658+963817582
1168+967376314+969641017+970502408+971169754+972211362+973327343+974381134
1158+975400019+976280994+977198520+978405768+979498802+980134381+981090178
1148+983021282+984929588+985595365+985749644+987090765+989815389+992751548
1138+995532233+998568704+1000913984+1000759705+998625961+997521715+999247188
1128+1002582126+1005311310+1006659681+1007489828+1008791333+1010400872
1120+1011319147+1011217789+1011060370+1012116329+1014627923+1017408010
1111+1019225871+1020555107+1022543468+1024647313+1025702226+1026539398
1103+1028510716+1030786481+1032222980+1034019987+1037372790+1040816784
1094+1042253508+1041752101+1040789352+1039913385+1038756442+1037645917
1085+1037896396+1040355143+1044538167+1049542443+1054841598+1059366667
1077+1060932704+1058520226+1054294670+1051346925+1050249854+1049462164
1068+1048766788+1049944735+1053732793+1058048793+1059918080+1058605513
1060+1056037410+1054890558+1056296037+1059044580+1061497422+1063530855
1051+1065552852+1067075535+1067603626+1067926910+1069236188+1070865013
1043+1071193229+1070377061+1069689607+1069276104+1068322324+1066689463
1034+1065162595+1064411381+1064649826+1066229168+1069389271+1072833341
1025+1073741823+1071076549+1067607962+1066207117+1066419924+1066472546
1017+1066348689+1066709346+1066570914+1064400618+1060589687+1057300046
1008+1056590692+1059164475+1063729011+1067477452+1068344225+1066492952
1000+1063270061+1059700490+1056477823+1054297137+1053294099+1052688195
991+1051550836+1049770498+1047987843+1047085191+1047344565+1047544814
983+1045992232+1042609979+1038589232+1034421082+1029919335+1025596233
974+1022194695+1019132735+1015276358+1010847415+1006957625+1003977663
965+1001337130+998388488+995010944+991714874+989129953+986906661+983619636
955+978667908+973422871+969611790+967717911+967474682+968527352+969875500
945+969868324+967594577+963823711+960342642+958524781+958294259+958409520
935+957947206+956990736+955792981+954428314+953346642+953191915+954054726
925+955419318+956519826+956472735+954919481+952893971+952118913+953080914
915+954392211+954388623+953049446+951650918+950582626+948822395+946260048
905+944851579+946003813+948165738+948604655+946750243+944213908+942319131
895+941105978+940198393+939442620+938635795+937373308+935935539+935901080
885+938594758+942842888+945416970+944340082+941004919+938429118+938134164
875+938939868+938660985+936785643+934526920+932626463+930693491+928522597
865+926647404+925477380+924873943+924704864+925308301+927145148+930107843
855+933294258+935502302+936150737+935708754+935073101+934814400+935155473
845+936105963+937254759+937746822+936966756+935249655+933679283+933010441
835+932791132+932041339+930846648+930260702+930660751+931537017+932689700
825+933938881+934264706+933014328+931311803+930956154+932234636+933957194
815+935391152+936935512+938820421+940414115+941467831+942605041+944024348
805+945179049+945752886+945356499+942696906+937388631+932023026+930136546
795+932502307+936437394+938586162+938364162+938109497+939605047+941728925
785+942307022+941198441+940229712+940969713+943630503+947127195+949629071
776+950186090+949736558+949258921+947801343+944242237+940034173+937854159
766+938414841+940396474+942613263+944536892+945464584+944945911+943321197
756+940994006+938439358+936962421+937573109+939118814+939707301+939770538
746+941229685+944401076+947626583+949120713+948155198+945481104+942989169
736+942256194+943724760+946929114+950386040+952051117+951326290+949748069
726+948804680+948379217+947603636+945637401+942353366+939651689+939724269
716+941534431+941960493+940441921+939171287+938927310+938149263+935585271
706+931764175+928478421+927655824+929312753+930475153+928228315+923890190
696+921470536+922311297+923958360+923971590+922325499+919827285+916837158
686+914239380+913139096+912437142+909046292+902257717+895479307+892134652
676+892362109+893909683+893517258+888728779+881175237+877892024+882845770
666+887957683+886438363+880602072+875945971+875868906+879726554+883822646
656+884077012+879537517+873042177+867737266+864608706+863272294+862869180
646+862367848+861113733+858841706+855530388+851775518+848370542+845177400
636+842566990+843204587+848866417+856268819+859925994+858271905+853231900
626+846823042+841366469+839233547+839485596+837322475+829632519+819876465
616+814445604+815381743+819356521+821870805+821399746+820583203+823710791
606+831469814+838607984+838907722+833067843+826901093
##END=
