##TITLE=<SNM>
##JCAMP-DX=4.24
##DATA TYPE=INFRARED SPECTRUM
##DATE=2/5/2025
##SAMPLING PROCEDURE=Instrument type and / or accessory
##ORIGIN=Admin
##XUNITS=1/CM
##YUNITS=ABSORBANCE
##RESOLUTION=4
##FIRSTX=4497.3318
##LASTX=599.83466
##DELTAX=-1.4281778
##MAXY=1.7510653
##MINY=0.1881403
##XFACTOR=1
##YFACTOR=1.6308066e-09
##NPOINTS=2730
##FIRSTY=0.2092323
##XYDATA=(X++(Y..Y))
4497+128299886+127016708+126678071+126997757+127487589+127861405+128052100
4487+128110771+128106732+128217129+128747942+129667940+130222519+129608620
4477+128160414+127246027+127727672+129040418+130065814+130402788+130370616
4467+130222500+129856625+129182548+128510720+128380385+128885129+129411136
4457+129334328+128709465+127946930+127216166+126612538+126475442+127001723
4447+127848476+128544509+128915136+128847009+128291817+127744064+127930967
4437+128771571+129321243+128881858+127615950+126190669+125340745+125498537
4427+126407460+127293157+127577966+127199527+126309838+125079272+123849283
4417+123159901+123387283+124352565+125395569+125950431+125994838+125831409
4407+125565376+125069039+124399841+123890958+123781365+123925086+123874429
4397+123292017+122365797+121616484+121211154+120843478+120331735+119861776
4387+119660418+119827502+120298740+120744695+120857723+120775488+120781610
4377+120784963+120528516+120005616+119341289+118585177+117815552+117241365
4367+117117837+117528997+118181885+118569342+118468622+118138921+117973737
4357+118107854+118384833+118630498+118911516+119444202+120231846+120839074
4347+120647967+119559432+118299527+117671302+117686990+117850630+118009482
4337+118337319+118719898+118741644+118172957+117152632+116058167+115366410
4327+115428836+116145967+116935430+117261339+117177157+117108718+117236092
4317+117498314+118014599+118887759+119713186+119887470+119349357+118570686
4307+117950894+117630102+117747616+118422515+119424657+120196366+120356625
4297+119983677+119340567+118627401+118121752+118224071+119088926+120324800
4287+121252774+121490956+121199019+120702005+120019641+119020451+118018409
4277+117793093+118725627+120178968+121066492+120883061+119980433+119123611
4267+118933528+119474848+120328464+121131166+121771151+122071549+121799988
4257+121076196+120375183+120128001+120464354+121153488+121862040+122579774
4247+123430859+124075741+123991651+123330275+122833983+122948811+123437903
4237+123748169+123626077+123379772+123348541+123359862+123234699+123372380
4227+124076326+124818174+124885087+124301853+123657792+123433883+123681833
4217+124061295+124222834+124213020+124330032+124659185+124941619+124769682
4207+123937266+122854295+122381258+122891539+123771259+124189254+124095670
4197+124115352+124608802+125220928+125456305+125391914+125454221+125694669
4187+125840062+125920534+126161960+126308613+125833008+124935022+124621064
4177+125546170+127265635+128827290+129749600+130244786+130705279+131163687
4167+131313667+131003657+130469418+129981733+129567512+129241210+129127249
4157+129119464+128844487+128268618+127992132+128591046+129843595+130886754
4147+131065544+130448895+129614943+129147717+129250009+129610274+129686616
4137+129301662+128873251+128859143+129109770+129108947+128845446+128940246
4127+129677315+130428455+130409084+129610347+128676571+128186382+128231749
4117+128458847+128497708+128424400+128611065+129143925+129733847+130151714
4107+130409440+130594763+130818700+131196289+131661250+131991024+132147199
4097+132318157+132524797+132523235+132237941+131934099+131813952+131776901
4087+131709476+131750165+132135832+132869264+133610390+133979784+133986737
4077+133968051+134068132+134078092+133864800+133620167+133523056+133447984
4067+133214462+132873211+132569369+132363497+132342335+132639361+133150163
4057+133454928+133201012+132458022+131675047+131337497+131556966+131974951
4047+132219822+132302551+132338086+132217839+131949522+131906303+132244620
4037+132458890+132028596+131215048+130770373+131069857+131791584+132304141
4027+132302030+132130751+132352230+132968523+133419192+133410548+133291645
4017+133460922+133798600+133897575+133597123+133086129+132606485+132270415
4007+132165473+132411961+133026033+133871671+134728430+135259370+135125957
3997+134396298+133601472+133185277+133196251+133590471+134365387+135304902
3987+136030567+136353826+136284091+135803999+134956899+134112411+133870227
3977+134556630+135835322+136920896+137260602+136918511+136311530+135849411
3967+135835376+136350939+137163802+137984934+138736175+139353865+139586154
3957+139285190+138684312+138210991+138231879+138962369+140200061+141158509
3947+141148448+140465500+140006734+140131678+140418031+140426337+140222420
3937+140158605+140645276+142037580+144117530+145675832+145561113+144349152
3927+143744783+144370414+145195713+145343033+145501483+146679801+148382399
3917+148867690+147198114+144391594+142177728+141408816+141984091+143768805
3907+147034868+151711509+156496007+159536990+160181992+158831920+155705210
3897+151590851+148626146+148687530+151341439+153595025+153144575+151837667
3887+152550313+154823388+156134700+156362255+157072643+157458840+156026880
3878+154449179+155150613+157890705+161085579+164045222+166012372+165731016
3868+164126196+163393605+163444920+162426312+160028247+157996753+158006493
3858+161175691+168366687+178285440+183890604+179090491+169469796+161952726
3848+158608842+159128224+162213322+166247748+170239778+173900434+176420518
3838+176378231+173917356+171068768+169062108+167564104+166247767+165497028
3828+165490267+166155297+168382312+173216983+178743018+180541932+178599672
3818+176942971+176044354+173394411+169325573+166756970+167409501+171002943
3808+175327789+177892975+179582991+182923038+186858818+187698864+185667973
3798+183784685+182287850+180192997+178476410+178756778+181167014+184899745
3788+189359970+193976753+197923260+201249948+205363138+211061521+217081884
3778+222152424+227399279+234895461+245583885+259057740+273495763+286199125
3768+295918246+303285063+308995799+314108518+320372974+328210654+335850456
3758+342074927+348882651+359722809+376329221+396467783+413954629+425618861
3748+435745141+448884059+464267646+476167657+482409782+487942670+497369142
3738+511613089+528027801+541138832+546722341+546323407+544889217+545432886
3728+547671852+549631363+549849160+548549727+546398990+543596911+541057401
3718+540498308+542704709+547080706+552231765+555452332+553677760+547438742
3708+540958681+538215044+540354377+544748868+546701471+544773758+542456101
3698+543006898+546836228+553167606+561448335+571062926+580001759+584627240
3688+583642349+580563154+578829261+578972680+580109213+581693913+584496650
3678+589414488+594246509+594890871+592503150+590797254+588369145+581341177
3668+571377724+563545015+559472230+557458334+555657592+554486703+555580145
3658+558601446+560863000+561428598+562924008+567767505+575147626+580298940
3648+579011897+573436466+568601740+567032940+567636732+567514110+565405843
3638+563234932+563388109+565765232+569004439+573518117+580509610+587286412
3628+588096708+584352573+582895175+586619828+593764535+600487099+604067530
3618+605872109+609372022+615235205+621177005+625199535+627093733+626556460
3608+622988748+618428726+616762084+619380102+623964100+627507543+629557952
3598+631326932+633010387+633964029+634689530+636757190+640780085+645389887
3588+648135681+648367841+647988534+648280854+649066589+650327755+652415371
3578+655125273+657591758+658778144+658186779+656867499+657117934+660531336
3568+665721319+668447376+666176064+660912397+656340095+654293121+653895539
3558+653183269+651385561+649493556+648773537+649787265+652279993+654948229
3548+655963565+654676376+652197318+649734342+647614855+646038343+645131338
3538+644562633+644371042+645437182+648141456+651467650+654034865+655070011
3528+654459859+652554258+649810803+646680512+643844003+641795275+640128413
3518+638176029+636481463+636423131+637931735+639085665+638631213+637617558
3508+637789266+639482736+641487531+642060111+640245298+636827803+633606212
3498+631813256+631501930+632215297+633759573+635884396+637540439+637468437
3488+635741342+633591958+631595057+629411390+627332326+626467353+627129917
3478+628309870+628744659+627604252+624579661+620489588+617430714+617190659
3468+619499544+622229329+623323100+622152649+619255250+615848062+613436547
3458+612859033+613663371+614659190+615063059+614826805+614140192+613166558
3448+612338317+612100747+612105133+611580762+610496714+609410618+608470427
3438+607581624+607283602+608618159+611795123+615350701+617355204+617196654
3428+615364955+612276001+608638773+606055988+605656725+606743917+607572085
3418+606938176+604824866+602135284+600025666+599143478+599333826+599810281
3408+599467560+597617660+594787766+592289374+590960921+590795755+591646693
3398+593494547+595682417+596829074+596373891+595571600+595909899+597039890
3388+597333855+596091329+594195633+592853364+592545766+593011257+593587199
3378+593597506+592767693+591378130+590229828+590387866+592055715+593706166
3368+593589172+592144201+591346222+591687555+591557111+589937653+588266369
3358+588623308+590811179+592292298+591200172+588420716+586081057+585149126
3348+585144009+585399744+585857778+586633644+587382500+587600516+587315688
3338+587026146+587341821+588683103+590627300+591755098+591244360+590210164
3328+590035130+590031621+588465452+585580589+583790629+584563243+586355139
3318+586467016+584419933+582067518+580854086+580705440+581344905+582889473
3308+585004172+586878414+588056175+588522323+588394657+587991885+587668205
3298+587548836+587881250+588979736+590158959+589840433+587706362+585435891
3288+584581188+585192035+586771763+588985657+591011834+591523120+590010350
3278+587600297+586065341+586141253+587085026+587931359+588688914+589641313
3268+590188344+589657285+588706896+588420680+588503281+587997148+587281040
3258+587433815+587992616+587434363+585920241+585460306+587026146+589159448
3248+589791530+588487090+586313802+584200675+582319708+580680331+579528959
3238+579230096+580002672+581440810+582451394+582269745+581220564+579953331
3228+578636135+577443535+576825489+576607509+575756608+573805466+571891715
3218+571531815+572667362+573667201+573346372+572299750+571842300+572337249
3208+573048314+573335042+573442277+573654043+573240526+571528197+569519125
3198+568758792+568985324+568611024+567350918+566590402+567044599+567606068
3188+566888607+564802014+562139845+559639991+557900140+557173470+556967551
3178+556685246+556377428+556191101+555831639+555127958+554202533+552926199
3168+551332399+550253979+550187130+550001241+548258540+545440269+543314861
3158+542511985+542287390+542207530+542442140+542604199+541782975+539787828
3148+537449960+535732331+534964287+534747294+534389113+533549870+532430917
3138+531424901+530798119+530548159+530436246+530282702+530148311+530077077
3128+529927700+529594810+529131842+528614963+528076521+527501931+526760494
3118+525715371+524452194+523170451+521917947+520635071+519335053+518120305
3108+517060123+516093068+515209126+514706027+514874591+515360586+515403421
3098+514841332+514176612+513650486+513084303+512495496+512126130+512146707
3088+512691399+513578959+513948070+513094354+511558703+510451592+509985627
3078+509472915+508553228+507676376+507313187+507298714+507193087+506814547
3068+506049463+504624154+502640265+500948257+500404880+500955823+501738889
3058+501926021+501340978+500390882+499568818+499065609+498738786+498333638
3048+497750679+497099957+496461736+495711088+494724955+493655855+492763507
3038+491941954+490698478+488865317+487058033+485978480+485548114+485258461
3028+485015519+484977033+484881018+484261656+483172636+482137710+481459138
3018+480895257+480054955+478990898+478172051+477786749+477380359+476456578
3008+475210872+474279709+473918493+473778437+473368684+472590296+471879013
2998+471618965+471406724+470457396+468871673+467738356+467716609+468202713
2988+468118431+467004522+465259920+463829202+463505888+464038080+464276893
2978+463621383+462694423+462145856+461648897+460653444+459359968+458323726
2968+457673114+457161060+456616660+456088743+455680452+455334734+454829441
2958+454036105+453019745+451879338+450771422+450047127+449937151+450060395
2948+449643442+448383811+446887341+446045686+446080883+446366515+446162571
2938+445338460+444282225+443321384+442441718+441501088+440497667+439555904
2928+438776456+438139916+437484479+436671516+435841009+435280747+434940401
2918+434430795+433683767+433199052+433332456+433666479+433476825+432655675
2908+431728349+431039324+430483703+430061780+430033308+430319086+430329027
2898+429659008+428522401+427289963+426058804+424859662+423855473+423124051
2888+422501874+421748339+420753946+419666754+418894616+418746957+419008942
2878+419149547+418897248+418276752+417298331+416056316+414898402+414082222
2868+413522362+413136658+413051060+413208660+413171526+412599129+411628493
2858+410585525+409622783+408783285+408136986+407711736+407468611+407374205
2848+407357063+407291567+407133126+406901660+406492310+405734901+404664960
2838+403495350+402312034+401051452+399809621+398907733+398521884+398407594
2828+398122218+397471350+396639784+395900613+395272881+394546941+393681456
2818+392955590+392556473+392242296+391642195+390725322+389786154+389074578
2808+388537013+387924814+387147450+386401481+385863623+385405150+384813200
2798+384157142+383686096+383461319+383296957+382972766+382355779+381432364
2788+380358732+379367774+378567749+377941479+377450075+376940945+376139750
2778+374986953+373794170+372872107+372186810+371515913+370793446+370177921
2768+369822005+369660275+369460168+369022090+368292020+367367728+366441645
2758+365681348+365155223+364832274+364532608+363980350+363105947+362161297
2748+361376623+360707955+360033038+359336667+358605646+357767135+356801140
2738+355781784+354809575+353974317+353331051+352868193+352540566+352304385
2728+352056618+351621610+350932073+350152844+349480595+348903374+348286936
2718+347595498+346896093+346215292+345488986+344656579+343796211+343104627
2708+342675467+342386948+342089657+341768207+341421428+340941062+340252549
2698+339451244+338676292+337953532+337243418+336538165+335863796+335293739
2688+334950322+334857597+334824264+334621014+334219741+333704617+333019393
2678+332028910+330854256+329906024+329441155+329283774+329136919+328919452
2668+328632504+328217927+327729995+327341989+327059866+326684725+326090874
2658+325380687+324782487+324427813+324202378+323902346+323525999+323214673
2648+322949838+322549185+321923281+321175594+320512958+320106933+319927111
2638+319691551+319129754+318322273+317618811+317224701+317042284+316890897
2628+316666047+316284839+315669789+314835006+313950662+313313829+313124321
2618+313206155+313149431+312796658+312344472+311964177+311620323+311268793
2608+310994418+310896759+310918871+310826876+310410216+309691330+308893681
2598+308251694+307858864+307608538+307316693+306958694+306678033+306550367
2588+306487538+306341104+305995769+305473189+304988236+304734676+304643431
2578+304534478+304393362+304254658+303953785+303301473+302443280+301759463
2568+301426007+301304426+301221624+301110971+300919344+300633511+300385342
2558+300324378+300424925+300570665+300717136+300823421+300778593+300535194
2548+300156014+299647396+298972278+298277807+297818018+297583080+297284839
2538+296754071+296118463+295594768+295315624+295323171+295551220+295835993
2528+296062396+296263983+296495157+296678159+296694697+296561841+296362027
2518+296079867+295692354+295320722+295099874+295012265+294996147+295034085
2508+295008428+294713914+294157873+293615173+293259951+292959334+292548339
2498+292112654+291856445+291832468+291932412+292036449+292050119+291884606
2488+291535086+291137248+290843813+290664905+290491278+290239363+289909726
2478+289543430+289207250+288991921+288932529+288947696+288926297+288825202
2468+288627197+288299807+287881539+287516449+287310366+287213858+287113403
2458+286982940+286866714+286733163+286457948+286015648+285614046+285524939
2448+285786923+286139148+286244665+285964223+285443928+284957312+284664169
2438+284539427+284493338+284459713+284375833+284198861+283977757+283829386
2428+283816283+283890496+283952502+283912334+283722808+283449110+283275282
2418+283310387+283415795+283384856+283256879+283255819+283438876+283615500
2408+283624893+283518316+283432261+283399586+283340906+283200064+283033436
2398+282951401+282995297+283111249+283231587+283343739+283498104+283783517
2388+284252479+284807296+285218785+285351732+285328176+285391498+285664502
2378+286125917+286779672+287738375+289110742+290846536+292697916+294341387
2368+295597272+296518877+297184548+297517365+297493059+297332225+297270420
2358+297374530+297697132+298404870+299861081+302504573+306166381+309820824
2348+312447906+314001136+315478600+317612926+319588300+320103936+319041853
2338+317114542+314712237+311839874+308681842+305654089+303066681+300958378
2328+299092762+297061925+294653206+292165779+290170705+288981230+288463237
2318+288197122+287713321+286770846+285516514+284301766+283374641+282776422
2308+282408153+282131329+281856571+281557946+281233462+280887359+280485830
2298+279933627+279229726+278617144+278366416+278419541+278456748+278304447
2288+278077002+277925048+277841333+277735943+277555500+277305193+277047137
2278+276874022+276825905+276845989+276835499+276725833+276512021+276250785
2268+276013216+275844943+275786209+275858832+275977818+275974821+275791782
2258+275568229+275478245+275558215+275720713+275849530+275862560+275752455
2248+275571391+275372106+275212697+275186455+275347070+275638276+275976593
2238+276350290+276788113+277286498+277775471+278141749+278357023+278566359
2228+278933002+279453718+280058351+280787178+281709223+282757307+283785198
2218+284742074+285702842+286766259+287974026+289295224+290669748+292090378
2208+293600078+295169116+296668820+298037002+299376804+300864977+302635858
2198+304676636+306741738+308527604+310023050+311533116+313323149+315338946
2188+317251199+318751872+319840124+320754109+321644666+322463405+323121692
2178+323612291+324006328+324367873+324643271+324692137+324438595+323935788
2168+323329620+322728350+322010451+320922089+319458258+317869392+316255819
2158+314480150+312461831+310296329+308095849+305845406+303484859+301110076
2148+298860035+296675637+294727072+293974780+295468838+299116245+303837412
2138+308749750+313574023+318249978+322834123+327519801+332384387+337299302
2128+342133406+346864917+351573803+356443178+361666421+367291925+373171445
2118+379055790+384830597+390690089+396946321+403764790+411405543+420605264
2108+432352390+447460834+466590529+490071294+517144295+545859707+574068657
2098+599930894+621822318+639186907+652985611+664254016+673184442+679580549
2088+682838762+681984535+676403840+665930527+650815248+631970783+610161229
2078+585609463+559121724+532183991+505955970+481334249+459192427+439835908
2068+423051537+408659091+396320015+385432160+375772870+367519736+360589134
2058+354696748+349778581+345826518+342724699+340386465+338671979+337388043
2048+336627053+336784141+338248667+341356846+346484732+354146208+365212094
2038+380768192+401433209+426957365+456368893+488072164+520010044+550283620
2028+577577269+601137894+620847478+637016104+650017891+660603410+669801816
2018+677763105+683513753+686205965+685831702+682732185+677091111+668877487
2008+658028082+644673377+629204667+612159555+594040555+575138232+555468596
1998+535058182+514506578+494964243+477131568+460609219+444681379+429348705
1988+415157316+402541014+391610068+382126396+373628675+365822319+358721361
1978+352388777+346819998+342002012+337834784+334159910+330969970+328288649
1968+325819423+323108498+320117313+317262054+314872578+312950165+311388637
1958+310097611+308910932+307651191+306320363+305086956+304113285+303457045
1948+303125855+303221248+303828074+304515180+304334079+302924925+301134363
1938+299924713+299381428+299090697+298819630+298570986+298380565+298265343
1928+298307960+298734873+299636194+300598716+301167056+301581816+302192699
1918+302466982+301702008+300371618+299588497+299767259+300461657+300966346
1908+300881333+300371545+299901705+299716839+299739829+299873708+300193989
1898+300831297+301645631+302168156+302280198+302647407+303736811+304812928
1888+304831550+303946968+303106008+302800622+302906212+303140401+303337821
1878+303523747+303777106+304115880+304832720+306654020+309839208+313018183
1868+313859545+311831687+308890026+306944111+306351978+306502524+306765897
1858+306863776+306826605+306802702+306895135+307241548+308062114+309514103
1848+311757821+314848931+317774656+318350525+316038899+313204364+311922146
1838+312104782+312578496+312859194+313773654+316239481+319553432+321597664
1828+321565501+320768400+320017643+318828333+317202918+316062327+315908638
1818+316367367+316964653+317802909+319277924+321225118+322681822+322871842
1808+322184936+321740498+322421592+324444005+327194623+329392215+330099223
1798+329836288+330219470+332480585+336172344+338747819+337844542+334683294
1788+332346413+332150070+333377246+334972691+336550117+337850244+338553012
1778+339156512+341021324+345113041+350700388+354945611+355349626+352804085
1768+349616741+347218128+346703077+348530974+351321322+352942424+353364092
1758+353900378+354637356+355428353+357556064+362103513+367616847+370880104
1748+370751816+369127278+368116218+368584267+370327919+372270544+373322978
1738+374327203+377623866+383503825+387859903+386887658+383107413+379822153
1728+377671051+376866348+377656285+379626140+382745795+388245095+396881483
1718+406183140+410686620+408523750+403724952+400133045+399189235+401212525
1708+405912201+411866172+417108823+421827761+428345540+436871513+443341413
1698+445196466+444284345+441463516+437590838+435565172+437006343+441138740
1688+447244975+456185745+467305394+474391586+473006957+468512577+466691441
1678+469132196+474848341+481068427+485698660+490046952+495720116+500622458
1668+501807126+501374603+503483528+508729760+513978807+516571570+517979371
1658+521528772+529448614+542161734+555334388+558985797+554680889+553078792
1648+555912450+557712533+554145662+548524179+545475210+546201552+550597395
1638+558255179+566606630+569885165+566204297+561479073+560523019+563445528
1628+567880589+572035280+575956788+579376731+581082591+581906044+584657722
1618+590163162+595191342+596102660+594664559+594572857+596671365+599619970
1608+602060505+603769983+605175043+606519615+607709875+608637347+609478088
1598+610573394+612024104+613578650+614969273+616197326+617417411+618652188
1588+619714819+620471314+621133731+622072314+623482455+625727525+629663652
1578+635493831+640744194+641812746+640301291+641016485+645049249+649252405
1568+650826139+651295869+653280490+657807691+666066709+680118553+698402792
1558+710289828+711650701+711935199+716033532+723282331+732238854+741681773
1548+750734640+759853149+770173102+781873299+794005361+802871534+801411321
1538+791420530+783345500+780760888+780236042+777883736+774774571+774321069
1528+777022418+780827188+784611052+789289785+794407109+796702617+794933344
1518+791661389+788622032+786069437+784907685+786524474+791790334+800800730
1508+811233986+815372012+808210858+798241264+793325327+794087231+798126500
1498+801771696+801733612+798658144+796866357+799307331+805033345+809748701
1488+809490444+805053666+800271718+797921678+798446232+800647955+803413193
1478+806939019+812004736+818272847+823190758+823219267+818479788+813597476
1468+812022133+813490387+815241458+815164778+814903597+817724682+824754405
1458+833052166+835616968+829908498+822071403+817140042+815987207+817219207
1448+818565021+818717504+818189149+817899826+818251575+819864418+823513999
1438+828364514+831083335+829457846+826008335+823842138+823092295+822242380
1428+820607097+818992939+818318314+818978027+821291371+824979183+827600929
1418+825761335+819962662+813938772+809831083+807613717+806547870+806227041
1408+806855395+808309029+809273050+808683731+807699096+808286661+810683994
1398+813468019+815275814+815350082+813452960+810794885+809541759+810469012
1388+811930321+811584420+809589712+808619770+810642986+815453516+821594290
1378+827684480+833028263+837367820+840483711+842485729+844054785+845569749
1368+846598900+847038295+847871543+849796076+851859058+852637190+852322356
1358+852063003+851975796+851171788+849314358+847135954+845387807+844151275
1348+843247633+842680243+842613797+843247706+844711793+846804453+848763050
1338+849688841+849531022+849270280+849838985+851204170+852668477+853732789
1328+854430220+855161423+856534137+858992216+862225649+865312081+867783682
1318+870141324+872925275+875802792+878020523+879317580+880040669+880659008
1308+881473397+882653863+884291266+886242188+888026227+889168608+889702445
1298+890110407+890738761+891383708+891439774+890576044+889086153+887177628
1288+884493602+880968068+877498893+875038037+873400999+871602268+869153984
1278+866595322+864809895+864078400+863942364+863986369+864378176+865340443
1268+866510455+867288514+867549402+867674912+868075053+868797557+869441846
1258+869497254+868983153+868512692+868464374+868539666+868424536+868313792
1248+868466860+868786446+869036296+869110052+869096675+869217288+869552370
1238+869938988+870362446+871151178+872542093+874419625+876571787+878945217
1228+881680339+884741040+887324848+888346325+887960073+887683395+888641423
1218+890537960+892553354+894481251+896572302+898804068+900861860+902758470
1208+904957269+907661397+910398930+912598095+914344414+916313977+918915620
1198+921667920+923781925+925381463+927551753+931005505+935085490+938231497
1188+939505894+939572706+939736738+940324961+941096733+942648392+945984674
1178+951061575+956666538+961377800+963938070+963518998+960729199+957899634
1168+957439553+959860498+963647797+966954109+968984708+969864081+970398869
1158+972049722+975622478+980030748+983503066+985577086+986870123+987513169
1148+987042123+985876131+985604425+987046582+989313435+991579265+994224987
1138+997156817+998959714+999133762+999211538+1000507792+1002436346+1003744806
1128+1004430761+1005573873+1007635832+1010010578+1012075169+1013547077
1120+1013927700+1013196863+1012978957+1014991281+1018566742+1021630440
1111+1023734211+1025986591+1028326908+1029606568+1030314233+1032075173
1103+1034449773+1034858173+1032590808+1030455532+1031299087+1034777400
1094+1037536570+1036394043+1032111795+1028711551+1029089982+1032994457
1085+1038331807+1042965732+1045980235+1048088026+1050065556+1051106258
1077+1050398008+1049292029+1049624992+1051117807+1052082121+1051609394
1068+1050432510+1050222060+1051769845+1054169591+1056222777+1057632406
1060+1058586852+1059721046+1062096596+1065303421+1066541854+1063808487
1051+1059005632+1055810137+1055631339+1057178246+1059093277+1061416928
1043+1064145032+1065770520+1064680916+1061393975+1058365363+1057680797
1034+1059571121+1063090003+1067440160+1071811441+1073741823+1070577249
1025+1064224709+1060190556+1060682947+1062410554+1061666924+1058762945
1017+1056064519+1054522290+1053767915+1053570257+1053661338+1053653151
1008+1054117691+1055902387+1057848339+1057215672+1053563386+1049807811
1000+1048472597+1048724128+1047594832+1043632170+1038924050+1036956462
991+1038471718+1040486528+1040628192+1040867370+1043848687+1047710327
983+1048428226+1045732797+1042408064+1039537492+1036453399+1032808715
974+1028139922+1021927658+1015505602+1011460923+1010555892+1011372255
965+1012456815+1012815070+1011023795+1006079129+999101233+992833268+989166654
955+987369823+984978556+980969550+977146213+975252746+974534482+973482450
945+972203083+971514350+971295567+971109458+971163332+971706453+972419235
935+972746057+972181080+970256035+966819023+962316164+957945905+955521671
925+956300608+959569566+963195757+965784389+967213462+967351252+965967135
915+963681057+961657694+960390534+959561306+958783028+957764987+956492271
905+955527300+955283809+955131692+953824839+951079996+948188590+946560982
895+946192932+945933579+945096602+944515690+945615162+948212639+949827675
885+948412490+945512386+944763932+947376760+950700835+951449800+949250636
875+946026048+943192317+940898710+939068985+937992831+937908183+938444871
865+938880464+938931852+938910727+939124393+939662470+940444477+940818229
855+940109686+939040038+939132434+940646813+942453073+943664167+943999323
845+943009206+940776636+938873300+938833243+940199012+941240518+941036135
835+940027597+939285063+939687689+940925098+941529402+941016544+941077362
825+943039615+945464360+946284889+945951049+946172099+947109293+947993271
815+948843113+949736667+950146310+950039733+950311586+951660543+953726814
805+955688994+957322815+958359642+957375519+953565340+949121471+947261995
795+948475574+950455297+951138767+950606172+950509171+952464917+956182700
785+959655676+961375534+961356894+960025627+958060962+957091532+958331426
776+961031314+963345535+963907077+962302056+958904444+954753408+951068592
766+948739679+948193926+949308749+951786345+955709753+960652372+964355024
756+964229002+960550766+956248196+953531495+952911841+954449245+957330417
746+959437697+959233899+957455781+956201925+957010758+960046752+963504963
736+964355243+961949137+959588718+960230595+962713965+964288358+964859548
726+965870426+966966901+966707036+964899679+962565868+960622256+959499392
716+959075348+958151677+955598059+952385825+950682925+951208430+952909794
706+954593834+955640018+955569770+953854956+950500033+946610031+943563730
696+941491611+939405676+936753667+933778125+930711137+928116219+927223615
686+928136467+928916500+928011469+926000387+923492090+919207868+912498388
676+906459514+905137895+907876818+909301651+905725094+900307117+898798221
666+899777958+899312614+898228200+898756774+900113918+899755370+896710458
656+891991447+887317611+884398063+884150552+885279263+885221954+883291061
646+880812296+878384480+875805058+873833230+873081486+872718041+871920099
636+871348105+872030259+872919354+872152918+869629635+865891239+860841458
626+855211934+851270178+850247678+849670567+846117548+840715286+838301432
616+842051890+851655553+864030009+872475793+869910333+857446551+842852317
606+832274472+828608151+832985793+843262691+853083164
##END=
