##TITLE=<SNM>
##JCAMP-DX=4.24
##DATA TYPE=INFRARED SPECTRUM
##DATE=2/5/2025
##SAMPLING PROCEDURE=Instrument type and / or accessory
##ORIGIN=Admin
##XUNITS=1/CM
##YUNITS=ABSORBANCE
##RESOLUTION=4
##FIRSTX=4497.3318
##LASTX=599.83466
##DELTAX=-1.4281778
##MAXY=1.7666674
##MINY=0.19864462
##XFACTOR=1
##YFACTOR=1.6453372e-09
##NPOINTS=2730
##FIRSTY=0.21949419
##XYDATA=(X++(Y..Y))
4497+133403775+132854402+132341599+131890154+131604084+131517122+131538949
4487+131563238+131560186+131679290+132234034+133269158+134142812+134013864
4477+132843008+131496663+130804395+130860827+131192452+131313177+131161732
4467+131110019+131485424+132146601+132707168+132981937+132939443+132565052
4457+132159969+132286408+132911277+133130755+132337315+131151851+130613436
4447+130894689+131307797+131190251+130377449+129082228+127779880+127109420
4437+127466965+128666231+130141642+131258900+131438900+130626496+129666995
4427+129483100+129985896+130509304+130869711+131145439+130965530+129926231
4417+128426059+127455590+127592372+128483886+129331285+129642515+129383369
4407+128715979+127929087+127387385+127297236+127671219+128415798+129185971
4397+129439937+128972390+128134573+127356620+126768457+126348901+126139775
4387+126201287+126469335+126697435+126514356+125627561+124121720+122566674
4377+121714385+121971520+123065059+124208174+124821632+125109460+125556059
4367+125940964+125491694+124077134+122563396+121788142+121723315+121817893
4357+121766334+121721368+121909482+122263151+122506584+122496277+122327417
4347+122119659+121870693+121601404+121449597+121472954+121549111+121523879
4337+121307635+120946068+120731862+120976643+121516399+121840480+121796900
4327+121706850+121801220+121998291+122137727+122068960+121676112+121100846
4317+120797440+121096743+121686762+121836966+121350681+120960323+121445331
4307+122652866+123751577+124236684+124342837+124574622+125095513+125584895
4297+125562389+124867839+123924594+123444485+123705171+124257777+124526731
4287+124394523+123962414+123182777+122185853+121588688+121895055+122800787
4277+123569856+123872319+123800663+123418538+122884806+122708057+123293014
4267+124381898+125283673+125526951+125140877+124470707+123876223+123540739
4257+123449557+123506596+123689032+124101505+124820192+125730362+126598519
4247+127207448+127413875+127292273+127143998+127133556+127128493+127084052
4237+127211397+127625900+128174304+128598334+128668667+128312589+127728185
4227+127258682+127138193+127339901+127576758+127595460+127501181+127569767
4217+127888659+128483523+129380987+130214167+130342617+129629147+128562225
4207+127696713+127481365+128210485+129566448+130640688+130890813+130694013
4197+130661464+130810309+130725720+130266868+129761609+129556269+129677428
4187+130014605+130528603+131118596+131490885+131413741+131088582+131019027
4177+131452494+132194882+133023235+133960910+135021709+135928148+136224299
4167+135689552+134674597+133892596+133744837+134027503+134345209+134506670
4157+134466259+134215038+133844994+133557819+133542504+133814854+134121628
4147+134132587+133830631+133517173+133307666+132882223+131962662+130863199
4137+130298982+130648694+131532111+132180862+132239359+132057665+132069267
4127+132150831+131886704+131205385+130438381+129988187+130142185+130925790
4117+132019320+133031494+133794848+134240777+134207947+133664569+133022818
4107+132922761+133577915+134564242+135400357+135952565+136099246+135635674
4097+134796300+134247135+134308756+134682295+134993924+135187644+135417655
4087+135807424+136274310+136585359+136663744+136697860+136855109+137059544
4077+137168749+137211450+137256217+137160815+136713962+135993618+135320958
4067+134894473+134717154+134799759+135173127+135724013+136194249+136373878
4057+136242539+135885582+135385513+134947119+134912568+135340221+135824985
4047+136073561+136248761+136407985+136198859+135505758+134789036+134484200
4037+134560022+134769710+134914117+134896574+134835913+134938352+135098238
4027+134976128+134596910+134499787+135111931+136222270+137240051+137820226
4017+138059646+138095855+137811314+137167191+136564954+136469905+136791668
4007+137027946+136979375+136975653+137373555+138053805+138477138+138222466
3997+137460969+136806729+136703556+137096432+137627103+137939773+137963846
3987+138079852+138688691+139499754+139733442+139180346+138525744+138477536
3977+139051036+139828717+140516992+141033082+141282048+141154848+140729967
3967+140288765+140132910+140413538+141016943+141649665+142101317+142275467
3957+142061160+141581740+141413577+142130108+143728544+145545071+146593599
3947+146482864+146125663+146648627+147699356+147829173+146512543+144680329
3937+143529317+143911451+146152217+149420064+151690119+151567249+150056110
3927+149278166+149942766+150940432+151222781+151330808+152424845+154413004
3917+155562939+154200355+150824598+147606843+146032688+146161844+147959905
3907+152127481+158918645+166639070+172289411+174045757+171949372+166793051
3897+160408148+155779048+155082468+157710820+160246995+160124513+159476676
3887+161508543+165382938+167852510+168746396+169794970+169398671+165555955
3878+161336884+160841180+164119216+168911317+173747342+176955299+176479175
3868+173985658+173263430+174409941+174105422+170978830+167550762+166726938
3858+170037089+178257638+189870590+196551952+190582204+178663826+169258312
3848+164890060+165298205+169090565+174487176+180415337+186472934+191136268
3838+191676730+187930123+183137153+179532391+176983555+175129995+174317981
3828+174413401+174995469+177315969+183179610+190457223+193189943+190718922
3818+188082618+186090927+181717241+175557159+171567654+172222247+177300337
3808+183788178+188031467+190722635+194875322+199171230+199441968+196523786
3798+194054721+191900754+188695804+185804612+185339048+187378395+190890074
3788+195451575+200799896+205909612+210455935+216043495+223692427+231462212
3778+237157092+242104641+249258630+260147018+274623994+290690257+304838822
3768+315159615+322295673+326975689+330386948+334774581+340755850+346259038
3758+350178518+355187723+364883212+380530844+399633967+415982833+426237766
3748+434976806+446769586+459961430+468486987+471815143+476144270+485998286
3738+502532957+522666141+538135756+543151301+542174167+542705898+547164100
3728+554051789+560977915+565926224+568240728+568079231+565184923+560007011
3718+554589498+551153025+551053837+554139457+557057711+554879852+547794475
3708+540730834+537755343+540221817+546182002+551031594+552211416+552055135
3698+553280602+556366294+561700668+570426086+582042661+591695041+592161927
3688+583461142+574464605+571266575+573561517+578445090+584004828+590841764
3678+599203107+604367978+600828731+593537262+590301194+589848509+585556115
3668+576269042+567233924+562081262+560342250+559589502+558959525+559973357
3658+563188450+566453934+568548109+572015048+579130131+587178876+588513674
3648+580650263+571247085+565911951+563599438+561456647+559031724+558096938
3638+559646486+562776700+566509940+571708211+580093934+590490151+596345243
3628+592921993+586364579+583933715+586401349+591350890+596342598+599798705
3618+601597093+603168594+605479983+608032242+610289726+612445052+614614434
3608+616772006+618991235+620964270+621954265+621713867+621129317+621527518
3598+623470919+626140660+628330691+630386612+634066127+640403936+648077267
3588+653123967+651980155+646145313+640523556+638249190+638989947+640291055
3578+640196649+638906771+637856133+638083200+640122384+644413402+650303090
3568+654848199+654849431+650808955+645853184+641787277+638330844+634935851
3558+632652790+633148223+635815718+637792810+637669133+637302521+638498862
3548+640257509+640367782+637792375+633227559+628773450+626814544+627833013
3538+629423642+628833296+626261077+624223487+624677838+627809611+632023755
3528+634555546+633682707+630438126+627095009+624920917+624055106+624229138
3518+624641974+624160453+622688212+621477381+621096931+620014414+616980090
3508+613722685+612695521+613635669+614359907+613620671+611744651+609878919
3498+609415221+610456730+611063160+609490644+606608870+604871669+605435099
3488+607033915+607635164+606747943+605307763+603935000+602675227+601975695
3478+602443812+603636675+604148772+603224274+601768335+601259426+601748410
3468+601691426+600053920+597635772+595882849+595436214+596158387+597601973
3458+598956116+599120801+597639105+595370789+593437458+591988692+590888713
3448+590542498+590885598+590799669+589736641+588587830+588225421+588591815
3438+589163685+589047289+587326861+584533444+582697236+582881266+583669806
3428+583071237+581134139+579519456+579137847+579452763+579646067+579156649
3418+577678829+575856750+574937251+575046764+574827739+573371510+571645394
3408+571198288+572233023+573673131+574526118+574524306+573863428+572921288
3398+571970381+570946841+569740574+568544233+567598434+566963168+566778232
3388+567152705+567604049+567309529+566166513+564908552+564342116+564984808
3378+566695890+568061589+567243850+564155115+560538054+557882731+556603251
3368+556673059+557717430+558782233+559037411+558648521+558310746+558172434
3358+557882260+557548687+557813937+558726082+559485894+559689740+559700681
3348+559599573+558993940+557822595+556642303+556226569+556782572+557653490
3338+557919972+557211746+555965666+554848154+553996942+553062084+551929647
3328+551101366+551252394+552483838+554054180+554911804+554657495+553861709
3318+553317082+553291832+553664130+554152209+554065990+552763325+550626366
3308+548773023+548024694+548691622+550646254+553170365+555264432+556211245
3298+555737005+554172459+552645118+552280427+552875482+553039370+552031950
3288+550741928+550266348+550546704+551215081+552616318+554894560+557044452
3278+558024050+558028361+557719567+557101110+555985120+554775593+553946479
3268+553312916+552542163+551902984+551881321+552451089+553149824+553543098
3258+553444236+552974597+552384868+551652008+550402197+548442167+546311330
3248+545001166+544972801+545606510+545986597+545941857+545766268+545563545
3238+545501308+545810356+545973012+544983017+542930465+541337228+541459746
3228+542843305+543805623+543306061+542029225+541183338+540753911+539846331
3218+538407418+537474516+537644236+538183358+537973643+536775238+535165988
3208+533752652+532798086+532130506+531368447+530576321+530240719+530371098
3198+530421815+530146639+529600200+528556192+526834786+524928299+523687472
3188+523486053+523787203+523537096+522242039+520561134+519512235+519301252
3178+519119722+517909108+515443104+512738586+511077678+510670783+510574711
3168+509910500+508848631+508186413+508135297+507973184+507049809+505671322
3158+504590073+503998822+503427749+502422756+500983626+499442483+498086057
3148+496863706+495517859+494074781+493092973+493171838+494068550+494521669
3138+493471756+491387325+489728301+489146758+488846768+487864851+486345371
3128+485117767+484614256+484684282+484949821+484932722+484295717+483202622
3118+482048485+480927531+479799115+478850273+478258877+477932948+477720263
3108+477518917+477131693+476457991+475816638+475559829+475449955+474973759
3098+474123960+473301150+472591945+471747544+470763671+469933398+469453181
3088+469374425+469719735+470272804+470462014+469877827+468887108+468331793
3078+468426924+468378815+467447796+465841083+464177603+462779844+461865851
3068+461629366+461684285+461121109+459540877+457566321+456087777+455411720
3058+455274820+455295940+455193564+454829779+454270516+453661115+453000744
3048+452250242+451577010+451142076+450731051+449928999+448615104+447107107
3038+445920511+445465327+445743074+446140732+445775135+444396865+442759033
3028+441763532+441548275+441673908+441739441+441496036+440886962+440241480
3018+439842337+439307708+438084270+436415537+435141020+434647978+434502022
3008+434039665+433092127+432093003+431463533+431058160+430482305+429773209
2998+429284805+428998037+428496192+427535468+426167306+424559650+423144575
2988+422491920+422600816+422806474+422657475+422296877+421877919+421326625
2978+420718710+420214837+419626013+418564326+417022204+415485589+414453318
2968+413990344+413768856+413471800+413051284+412546070+411817883+410695879
2958+409367675+408409704+408245997+408642676+408956867+408857100+408520629
2948+408101562+407416847+406357550+405233626+404432878+403966644+403517509
2938+402759907+401642395+400541402+399959026+399873532+399738335+399270978
2928+398713671+398267905+397836449+397254907+396358194+395072918+393687475
2918+392664804+392113982+391770411+391428941+391127827+390990021+391010091
2908+390950209+390572766+389968691+389391532+388826834+388050865+387132634
2898+386503273+386302217+385981830+385013499+383724237+382792349+382209684
2888+381514463+380727626+380223571+379974044+379654418+379183874+378616134
2878+377852916+376883026+375979793+375381587+375031712+374778707+374586091
2868+374442780+374282913+374046572+373650037+372992311+372199569+371597377
2858+371215044+370733957+370132889+369769393+369604273+369064971+367946046
2848+366830743+366385086+366612914+366912941+366728331+366078901+365375565
2838+364826083+364321920+363766461+363128949+362337185+361439748+360647549
2828+359994641+359263664+358404591+357692634+357296607+356955064+356278319
2818+355258147+354305828+353773300+353573004+353332678+352821161+352099676
2808+351296935+350434312+349553033+348868499+348621543+348756016+348869259
2798+348567856+347807246+346808955+345740349+344643160+343655592+343069159
2788+342985983+343031447+342675813+341828441+340843699+339975352+339174785
2778+338412799+337782930+337229246+336533626+335642566+334752628+334061754
2768+333602621+333290023+333008508+332637658+332052566+331198601+330215706
2758+329369928+328770852+328269370+327697138+327051801+326377120+325637305
2748+324823841+324082866+323604605+323383008+323162860+322690504+322003579
2738+321393382+321045898+320803073+320359915+319635931+318828661+318115110
2728+317459122+316724777+315854945+314954429+314269243+313967332+313872419
2718+313607640+313042508+312347179+311637648+310907723+310273145+309942325
2708+309940043+310041296+309936203+309429939+308601007+307736971+307033164
2698+306474770+306060159+305893083+305915181+305767559+305123924+304071366
2688+303000532+302167180+301501665+300861127+300322242+300084071+300122199
2678+300136925+299907884+299516748+299127404+298747643+298291951+297700501
2668+296979831+296288595+295906352+295925878+296044900+295835964+295197727
2658+294417556+293794353+293325728+292844044+292341149+291988014+291887866
2648+291935196+291871546+291462115+290728386+289978644+289493790+289244589
2638+289001672+288634337+288216538+287880212+287628257+287324390+286875509
2628+286360913+285925816+285590884+285248690+284848841+284483371+284241179
2618+284080805+283904690+283647755+283274532+282817898+282407725+282141570
2608+281971903+281791152+281554539+281301117+281135635+281147318+281266231
2598+281267209+280981202+280439635+279802286+279230434+278845203+278727938
2588+278886573+279183630+279333716+279090600+278484478+277801774+277305418
2578+277041400+276886984+276674263+276300914+275835531+275474264+275296627
2568+275141542+274827043+274415040+274151366+274186705+274437464+274691973
2558+274799058+274770801+274739846+274809908+274938566+274978197+274838001
2548+274594759+274404389+274279263+274036637+273553250+272955858+272442023
2538+272053314+271742654+271504556+271340523+271235322+271188535+271167832
2528+271105450+271018489+271016750+271154664+271363962+271510534+271465849
2518+271207011+270876717+270656152+270586996+270592321+270623621+270692741
2508+270771352+270741719+270489692+270027189+269481674+268968835+268524844
2498+268171601+267978804+267979510+268048196+267974076+267674919+267257337
2488+266871218+266593470+266433857+266349793+266245805+266033464+265728474
2478+265457410+265315711+265234201+265065984+264793253+264548906+264437365
2468+264420484+264376342+264218666+263960481+263663479+263318730+262844182
2458+262265357+261813233+261698794+261819464+261847033+261615872+261261795
2448+260970970+260777014+260641020+260559764+260522378+260460467+260317518
2438+260146113+260065455+260101735+260146674+260108057+259984253+259754849
2428+259388763+259009256+258828703+258869712+258963520+259039396+259194355
2418+259459695+259697431+259770735+259698988+259624398+259671855+259830309
2408+259963133+259958659+259840054+259693609+259550080+259416712+259380613
2398+259565494+259950037+260328820+260550780+260772956+261423782+262962752
2388+265725956+269927730+275735836+283359085+293050081+304952356+318942014
2378+334686877+351868986+370224723+389285787+408219515+426035260+441885361
2368+455242977+465931722+473755356+478077311+478373063+475165614+469497704
2358+461402009+449940229+434756404+417032529+399790066+387028012+381617310
2348+384450395+394667545+409187050+423047198+432582277+437407851+438825317
2338+438197803+436405901+433915046+431113840+428229131+425056423+421168678
2328+416352704+410727759+404550143+397971392+390979154+383540569+375737548
2318+367806936+360101690+352900569+346174921+339632505+333071795+326611107
2308+320488881+314717436+309062966+303388625+297907027+293000669+288824544
2298+285183700+281826943+278748424+276078574+273773543+271614757+269491220
2288+267495018+265745030+264265761+263026691+261994130+261155308+260525711
2278+260098276+259786022+259449008+258977576+258361636+257704997+257151964
2268+256780046+256578392+256513583+256558033+256624798+256540934+256200532
2258+255741308+255421991+255317586+255289638+255223434+255103398+254894589
2248+254547123+254116735+253760902+253592612+253582939+253641572+253757297
2238+253971015+254237913+254447319+254566667+254663301+254826085+255115733
2228+255524167+255967289+256365127+256717682+257095107+257572191+258137377
2218+258691442+259214623+259864253+260793551+261947941+263132110+264203216
2208+265146606+266038011+266974608+268004398+269107492+270262752+271478347
2198+272698579+273786747+274733361+275761575+277056089+278495274+279788158
2188+280783188+281570026+282338569+283147124+283861545+284394200+284884451
2178+285484922+286082785+286396215+286309598+286012107+285761293+285569185
2168+285251715+284744563+284163075+283552769+282769898+281659016+280295527
2158+278961471+277815521+276703679+275405035+273913431+272433619+271253489
2148+270511247+270024907+269705082+270091310+271880641+274989609+278678054
2138+282467082+286419781+290725850+295458231+300592509+306020528+311597582
2128+317200502+322757052+328333382+334144640+340330552+346804862+353413028
2118+360093647+366852660+373786321+381190309+389522055+399348937+411457032
2108+426768193+445957390+469235678+496227027+525560631+554936583+582257737
2098+606364777+626623196+642895371+655722704+665568823+672452346+676301981
2088+676673156+672761647+664207145+651000738+633162423+611218281+586065422
2078+558665584+530508179+503238538+477646325+453948137+432549021+413817037
2068+397719546+383961919+372101395+361739992+352807504+345296141+338911926
2058+333389718+328733503+324930310+321932177+319854810+318790406+318729184
2048+319846732+322479775+326916894+333549803+342969573+355796617+372725793
2038+394494310+421264135+452106024+485231445+518496338+549899266+578185274
2028+602929898+624042065+641596944+655894780+667380360+676567955+683629712
2018+688121786+689748351+688901958+685873938+680346369+672017122+661039581
2008+647753331+632425723+615309329+596701167+576847288+555928317+534253735
1998+512460983+491521218+472309561+454885930+438492650+422624400+407672207
1988+394209063+382317638+371807019+362475424+354097272+346533490+339790380
1978+333827043+328495894+323683289+319337751+315487718+312309141+309851252
1968+307601122+304780607+301298561+297914291+295262808+293239890+291474885
1958+289900957+288605627+287490325+286347473+285126154+284014058+283274586
1948+283052174+283411504+284325750+285227968+284995612+283215193+280935611
1938+279362190+278638024+278303093+278113429+278044291+278003627+277877197
1928+277820503+278367829+279802992+281408130+282219927+282524646+283175145
1918+283691679+282842931+280938762+279621335+279765009+280818708+281684229
1908+281767441+281344824+281050756+281145416+281432927+281722792+282117588
1898+282839326+283808364+284599640+285184515+286231548+287865848+288822062
1888+288036275+286329541+285165822+284922417+285149049+285432611+285560327
1878+285481499+285344708+285447736+286399277+289109301+293720650+298209119
1868+299303320+296302578+291971603+288922898+287624997+287341797+287398509
1858+287512949+287655518+287885736+288219255+288727565+289656392+291321321
1848+294112203+298174614+302103693+302863324+299626441+295556930+293543268
1838+293620828+294260406+294715463+296018437+299396222+303875164+306575118
1828+306516829+305559728+304596540+302709960+300017922+298113482+297791483
1818+298382463+299057469+299913300+301577776+303963158+305836606+306102580
1808+305201739+304592012+305468474+308193749+311983067+314987612+315760575
1798+314994894+315018984+317676879+322513792+325995837+324596013+319961533
1788+316561867+316262673+317926262+320016670+322109324+323876050+324685855
1778+325114666+327201380+332496665+340041791+345757085+346043346+342279749
1768+337800971+334463904+333597042+335866626+339559111+341742439+342173099
1758+342581986+343163203+343755033+346105294+351797584+359072968+363562905
1748+363424592+361073571+359442152+359789816+361902287+364392960+365715659
1738+366780534+370732689+378247892+383831685+381865787+375699148+370250950
1728+366692576+365222943+365842850+367776289+371041193+377516336+388470838
1718+400686199+406461991+402911442+395587369+389794659+387553440+389462644
1708+395215795+402724405+409010627+414133366+421250767+430945169+438293514
1698+439788903+437179914+431502947+424692311+421038227+422370851+427267465
1688+434592842+445501843+459161696+467074592+463257634+455319125+451019413
1678+452255060+457694164+463965823+468592696+473106034+479153742+483841656
1668+483801408+482280406+484461526+490627295+496549515+499059243+500388897
1658+504830979+515084825+531612251+548801135+553588200+548397065+547409715
1648+552568535+555753416+550346988+541389213+535877692+535606900+540549413
1638+550293336+561185202+564935106+559174057+552449785+551063292+554841996
1628+560638546+566241937+571852790+577123623+580133421+581630876+585552456
1618+593527372+601186249+602690514+600041603+598728143+600288740+603018472
1608+605134238+606610754+608329805+610449629+612345429+613775430+615372870
1598+617857204+621228505+624786083+627750489+629921320+631703441+633529904
1588+635499316+637512055+639499942+641534707+643956224+647586979+653519632
1578+661751140+669036559+670910043+669589663+671254122+677316537+683781718
1568+686964787+688808059+692829552+700347834+712673070+732671275+759501199
1558+779517300+785025886+787817638+794459748+803168358+811164611+817332953
1548+822217213+827767533+835449776+844977826+855243012+862014233+856724454
1538+842120722+831073626+827254060+825491863+820288737+813482159+810310610
1528+811794298+815162194+818485532+822565711+827101619+828990174+827333395
1518+824541789+821253953+816838100+812891234+812552372+818051902+829639568
1508+843347493+847624310+836066349+821199614+813074829+812046217+815394985
1498+819177021+819194338+815231966+812038609+813511792+819021103+823673660
1488+822629108+816848099+811116140+808503130+808824313+810420448+812710536
1478+816571184+822503185+829375043+834207065+833412186+827400414+821495439
1468+819719475+821979496+825176113+826283482+826509100+829864679+838214067
1458+848060403+850767385+843928420+835313782+830108555+828726373+829778098
1448+830818158+829824975+827440988+825877384+826150748+828121899+831854740
1438+836694080+839481484+837680308+833892258+831550076+830652024+829477781
1428+827526047+825741825+824712126+824491507+825760880+829138629+832552243
1418+831737801+826215594+819784611+814845213+811399430+808960742+807550883
1408+807562910+808827791+809906613+809494357+808448211+808590725+810436388
1398+813377682+816583501+818456188+817195727+813690895+811205764+811379361
1388+812396743+811213154+807957778+806214853+808507767+814065694+820654117
1378+827241018+834131859+840720065+844713736+845057017+843824088+843319092
1368+843914364+845516875+848535404+852363592+854812569+854401979+851994156
1358+849366727+847629309+846907244+846679235+846490206+846234593+845915438
1348+845772778+846340519+847798993+849748336+851808387+853660353+854592675
1338+854119703+852924957+852251218+852731653+854204328+856130558+858026358
1328+859876948+862172760+865288303+868915725+872270072+874786575+876618182
1318+878482682+880919995+883690517+886100732+887916399+889751774+892387027
1308+895758111+898903504+900963555+901903703+902250317+902564545+903130328
1298+903739729+903790446+902862615+901149686+899330324+898112755+897604353
1288+897075738+895805205+893981713+892082943+889823574+886650432+883016779
1278+880393190+879868415+880967306+882056996+882090977+881602500+881627714
1268+882255372+882973959+884062128+886512699+890337337+893869919+895300354
1258+894433674+892647930+891634242+892203142+893765659+895039814+895417293
1248+895081040+893942226+891600190+888489646+885938076+884726955+884386354
1238+884153201+883922149+883968156+884440476+885425110+886848880+888131005
1228+888541450+888032107+887399014+887615068+889000583+890912830+892364494
1218+893028379+893503742+894636324+896729558+899350321+901876388+904120179
1208+906168926+907961916+909517695+911117598+912836975+914500709+916372817
1198+919198041+923157080+927247620+930137472+931507482+932160500+932957408
1188+934141504+935611934+937295809+939261961+941714850+944628105+947488614
1178+949767834+951332380+952488220+954179848+957511300+962039238+965252665
1168+965444375+964376710+965115004+968083758+970772988+971116922+970031506
1158+970163443+973247686+979073978+986017710+991838495+994459041+993436370
1148+990741560+989054424+989380896+990606508+991554118+992781759+995675523
1138+1000281710+1004512229+1005863836+1003982310+1000685127+997755498+996026123
1128+996197618+998727380+1002656713+1006006931+1007755217+1008743183+1010745851
1118+1014583966+1018596981+1020017564+1018539454+1016978386+1017683352
1110+1020050747+1022229113+1023830247+1025536438+1027230964+1028608075
1101+1030510178+1033690494+1037196050+1039410498+1040149154+1040557498
1093+1041492501+1042810128+1043561029+1043231659+1042623055+1042671164
1084+1042822735+1041578648+1039048016+1037731259+1039989830+1045768159
1075+1053070749+1059571794+1063488375+1064107557+1061788995+1057597455
1067+1053556400+1052322964+1054720282+1058259891+1059567809+1057896758
1058+1055827506+1057026020+1062712333+1069360385+1071725027+1069172007
1050+1065772957+1064228118+1063635092+1062668354+1061932234+1062402018
1041+1063330211+1063694865+1064768688+1068278447+1072561060+1073741823
1033+1070651856+1066309542+1064665153+1066788455+1069593031+1069086006
1024+1065172251+1060979769+1058386973+1057087315+1057048408+1059253219
1015+1063608647+1067340328+1066952054+1062350866+1057130352+1054767666
1007+1055711581+1057651722+1058006379+1056277003+1054223980+1053676092
998+1054412430+1054348092+1051853469+1048059551+1046255331+1048367620
990+1052498372+1054819397+1053436563+1049333344+1044511827+1040527648
981+1038075410+1037072228+1036977098+1037029554+1036430369+1034595285
973+1031463657+1027842031+1025088535+1023615352+1022174411+1019789265
964+1017066996+1014361898+1010653546+1005565838+1000742510+997764193+995995910
954+993851814+991072524+988278527+985266447+981469340+977363440+973864984
944+971028747+968492899+966573986+966130792+967504353+969803642+971487373
934+971868909+971627352+971569897+971490706+970802839+969953330+970157429
924+971452596+972061561+970595044+968026303+966165280+965250129+964518863
914+963920330+963946341+964817368+966265410+967325757+966886910+965144565
904+963361936+961831371+959705678+956988191+955028487+954781786+955570797
894+956333218+957149543+958148088+957780390+954413436+949552215+946718658
884+947241550+949334567+950784275+950888679+950008668+948914775+948241109
874+947652213+946315386+944569418+943778089+944203025+944791052+945040941
864+945282354+945498698+945376470+944629844+942986615+941225577+941336647
854+943799897+946054556+945520579+942895831+940834911+940807886+942620583
844+945384078+947763138+948671116+948476798+948435210+948602866+947432318
834+944121733+940400484+938965919+940484674+943223753+945497177+946604907
824+945808941+943237663+941247820+942323744+945983335+949280952+950543949
814+950913531+952019378+954074936+956277791+957998038+959208434+959778276
804+958986294+956530724+953560811+951954677+952846644+955753523+958749156
794+960105183+959876015+959169382+958353999+957087813+955799965+955625136
784+956843285+958492166+959528676+960016573+960975631+962707398+963669861
774+962182187+959022158+956830534+957224967+959479046+961481569+961593436
764+960143076+958922753+958886092+959229084+958925651+958033322+957195623
754+956861326+956876686+956673818+956347418+956517610+956899871+956581803
744+955901399+956106006+956963050+956871469+955928786+956664109+960613584
734+966168178+971002591+974612117+976833955+976253391+972074531+965701075
724+959399348+954921620+953345409+954908578+958670038+962514891+964432209
714+964951985+966228531+967124845+963279268+954654486+947737707+947715609
704+953321644+959286756+960997294+956974787+949303122+942338597+939634658
694+941449239+945061156+947510350+947642866+944652667+937564029+928157845
684+920472196+916537140+915564533+916757903+919975822+923900445+926431584
674+926951505+926013966+922886251+915884412+906864836+902028611+903152716
664+906982137+910459944+911375312+908936551+904230307+899069929+895157984
654+893893611+895838026+900220117+904193428+903259657+895822594+886066462
644+879326830+876103767+872898817+868362910+865789024+868925940+877851981
634+888653317+896114144+897890107+895835418+892556784+888170419+881137715
624+871267832+861427800+855454067+854301850+854554348+852825914+850896640
614+851366497+853128477+854921539+858311098+863939159+868374430+867407475
604+861792527+856336832+855513261+862083425
##END=
