##TITLE=<SNM>
##JCAMP-DX=4.24
##DATA TYPE=INFRARED SPECTRUM
##DATE=2/5/2025
##SAMPLING PROCEDURE=Instrument type and / or accessory
##ORIGIN=Admin
##XUNITS=1/CM
##YUNITS=ABSORBANCE
##RESOLUTION=4
##FIRSTX=4497.3318
##LASTX=599.83466
##DELTAX=-1.4281778
##MAXY=1.7967199
##MINY=0.22994506
##XFACTOR=1
##YFACTOR=1.6733258e-09
##NPOINTS=2730
##FIRSTY=0.25032917
##XYDATA=(X++(Y..Y))
4497+149599776+149488569+149676289+149664997+149199099+148331848+147260651
4487+146338286+145927653+146160976+147053518+148535321+150099602+150951608
4477+150906014+150632128+150640998+150581850+149932079+148820071+147712826
4467+146777851+146058843+145953683+146901846+148599233+149958474+150047418
4457+149035628+147981983+147524207+147186854+146391138+145615012+145837827
4447+147158599+148609874+149223401+148917582+148321357+147938820+147729470
4437+147522951+147426589+147512568+147461560+146923486+146049395+145338731
4427+145051906+145031834+145073848+145173212+145349025+145529924+145697438
4417+145861675+145892638+145726789+145653509+145934546+146217167+145857365
4407+144865068+144038727+144002189+144466208+144715426+144550566+144341135
4397+144345802+144466502+144627960+144930066+145294651+145363300+144956969
4387+144315186+143723583+143216936+142724412+142129630+141226642+140031139
4377+139089067+139007176+139608485+139994602+139639243+139039394+139034007
4367+139804851+140806926+141425467+141433125+140894660+139894953+138636295
4357+137767405+138052796+139413187+140778991+141178190+140566168+139535427
4347+138707162+138339737+138193978+137945561+137739523+137969516+138641389
4337+139294784+139430338+138981725+138504553+138584280+138988359+139050365
4327+138864756+139106094+139671880+139648219+138758723+137816018+137484036
4317+137492335+137417986+137422136+137743629+138146478+138376809+138639198
4307+139175242+139800532+140189864+140331438+140446786+140560263+140351946
4297+139543112+138383426+137585759+137717928+138713788+139977735+140892852
4287+141182108+140859520+140039261+138986747+138182250+138000051+138362205
4277+138863358+139139514+139094722+138932257+138949542+139190211+139407888
4267+139452627+139531910+139961501+140756025+141636785+142422029+143132417
4257+143666181+143814941+143692095+143609010+143504161+143081961+142426527
4247+141947877+141855486+142052734+142328561+142478942+142458371+142403845
4237+142402020+142435877+142572811+142886877+143228459+143359498+143265291
4227+143138829+143131767+143248709+143439279+143691721+143984966+144164814
4217+144015680+143643526+143618957+144328081+145301526+145722506+145467838
4207+145118623+145143602+145499353+145790969+145627996+145087233+144736371
4197+144918570+145289887+145341118+144992856+144486672+144103191+144059395
4187+144343050+144662290+144739586+144493876+143912773+143116816+142590870
4177+142928784+144181796+145721090+146872860+147493867+147806401+147886823
4167+147604487+147000960+146426028+146200292+146323495+146606232+146886805
4157+146966943+146589116+145779686+145084481+145163060+146099424+147209767
4147+147615930+147077945+146196267+145716780+145778599+145972170+145979534
4137+145908196+145994655+146216918+146363185+146377540+146448522+146751492
4127+147235601+147643224+147668149+147195448+146426705+145660776+145045219
4117+144726371+144972170+145775937+146639956+147180746+147616010+148219901
4107+148717377+148703716+148317715+148021798+147988333+148061889+148098534
4097+148097251+148106041+148133032+148151368+148113592+147874436+147237516
4087+146350949+145901837+146440846+147579321+148312506+148118766+147347182
4077+146611326+146269975+146415182+146903182+147367432+147499629+147352552
4067+147218005+147263020+147403053+147456368+147310742+146970246+146508231
4057+146032582+145714367+145731830+146084267+146557013+146928740+147106869
4047+147104936+147037952+147032413+147002759+146719799+146231514+145882629
4037+145765064+145606989+145437925+145798698+146889611+148014817+148377575
4027+148047935+147695613+147739835+148140227+148687919+149185163+149549943
4017+149875087+150167869+150094615+149336220+148169605+147332471+147257134
4007+147704277+148203667+148574610+148887598+149175901+149353131+149320654
3997+149141216+149104972+149420587+149850152+149949444+149650927+149342792
3987+149444275+150066725+150908365+151419928+151321919+150964022+150989348
3977+151674454+152651755+153212172+152979820+152322693+151853750+151631389
3967+151343665+151156907+151633883+152784655+153922444+154533460+154655941
3957+154451319+154091766+154021202+154775697+156454561+158404478+159513806
3947+159350967+158899852+159325160+160304616+160501758+159453359+157924386
3937+156850945+156942988+158581797+161162161+162933852+162612057+161089656
3927+160397194+161234934+162327681+162448309+162324137+163353978+165227632
3917+165900859+164032084+160706006+158047027+157092594+157662166+159737147
3907+164059352+170764744+177792057+181878686+181866664+179164887+175101946
3897+170576989+167335330+167154343+169696415+171921857+171495908+170576401
3887+172247660+175436101+176690992+176079015+176149615+176319275+174557985
3878+172402591+172771708+175824275+179944601+184084501+186909667+186694448
3868+184778227+184313077+185382582+185061000+181987417+178372261+177106256
3858+179920130+187585654+198437002+204527621+198767061+187506043+178730852
3848+174834667+175626849+179855586+185664749+191571068+196895526+200488456
3838+200424784+196847777+192527549+189193776+186517735+184284029+183239352
3828+183545866+184678543+187444473+193244072+199879542+201811845+198851660
3818+195934272+193735047+189468748+183938546+180852282+182076183+186812370
3808+192141512+195447768+198161762+202939553+207964746+208956081+206662854
3798+204570703+202736463+200159536+198142403+198397445+200833351+204544398
3788+209205425+214674199+220322626+226039140+233033539+242014136+251466507
3778+259743136+267877568+278017183+291077249+306462102+321622421+332716059
3768+338308793+340037739+339620837+338885061+340123442+343894901+348173418
3758+351193641+354499470+361308108+373303656+388599227+401522652+408937836
3748+415266168+425059231+436454610+443357251+445921248+450646089+461708238
3738+479451113+500414932+517638353+526445371+530033029+534603206+542550737
3728+552544201+562182565+569803564+575071831+577474182+576220876+572693132
3718+569749991+568768433+569746464+572018765+572965450+569569359+562974907
3708+556680236+552634001+551441392+552593358+554023128+553764202+552025425
3698+550202833+549476602+550910647+555789155+565063905+576716606+583682758
3688+580949207+573466879+568024464+566489578+568385513+573549091+581918939
3678+591502839+596678600+593865901+589633441+590140178+591041661+584356697
3668+571733587+560856949+554763285+552291795+551638729+552313025+554651651
3658+557580900+558630029+558148547+560104004+567022567+576488563+580680594
3648+574158415+562387668+553911208+551941325+554006600+555367836+554055791
3638+552242888+552218060+553901056+557091546+563317504+572740008+579622844
3628+577602985+570741166+566333382+566901137+572183937+580206628+587033005
3618+590235463+591648705+593458225+595194793+596118397+597370171+599569948
3608+600965131+600133607+598365193+598133874+600785675+605550482+610485769
3598+614216585+616324961+616939984+616490097+615575506+615204768+616536617
3588+619072296+620260880+619091103+617416514+616658511+616266472+615395551
3578+614420049+614228554+614893802+615874647+617345558+620301914+624742005
3568+628099234+626764322+620577973+613541934+609724773+610057967+611930108
3558+612277265+611152442+610634520+611048857+610568266+608523651+606690836
3548+606595159+607620174+608289482+607998748+606722894+604463061+601507488
3538+598377233+595613263+594063203+594630672+597112564+599915253+601277665
3528+600660433+598759654+596267931+593345201+590405657+588266862+587038277
3518+585848161+584169939+582605915+581905368+581900523+581614277+580243424
3508+578085465+576261768+575403778+575091529+574779351+574506676+574545966
3498+575032684+575888216+576502990+575923124+574247074+572941620+572948602
3488+573504922+573389334+572539785+571508324+570210349+568529063+567221222
3478+566902847+566763357+565169626+561658054+557819022+555603216+555174167
3468+555091528+554286042+552871803+551286585+549894502+549200615+549404720
3458+549892222+549725447+548541280+546783446+545185120+544251080+544254108
3448+545237411+546528760+546792173+545334370+542960444+540996367+539896051
3438+539155181+538194889+536869807+535198780+533304234+531879807+531826163
3428+533147718+534716016+535383258+534895721+533544209+531628184+529413126
3418+527255523+525611817+525013108+525569963+526355679+526298686+525734921
3408+525833091+526612716+526926853+526242976+525051186+523839948+522896005
3398+522567015+522754093+522593481+521302773+519134092+517108000+515841158
3388+515036848+514268942+513624212+513194522+512779330+512498391+512823286
3378+513707350+514365118+514035664+512615583+510775750+509576765+509575519
3368+510315320+510856466+510685595+510165928+510117698+510795235+511400961
3358+510947868+509499184+508095987+507458737+507182429+506453313+505289807
3348+504548865+504898195+506266947+507992224+509162713+509254008+508491623
3338+507476974+506947654+507501054+508621852+508518731+506208636+503088497
3328+501086235+500287446+499561181+498491213+497491703+496773238+496242315
3318+495993328+496150023+496447489+496580674+496870625+497942302+499591280
3308+500578929+500093066+498917056+498342925+498409856+498168064+497519523
3298+497493021+498409785+499068621+498265451+496331723+494730654+494532925
3288+495465575+496383408+496652378+496762552+497421780+498474436+499071577
3278+498713948+497761243+496848397+496240214+496056519+496517127+497428049
3268+498001147+497703894+496800559+495763576+494675941+493426126+492130146
3258+491194966+490912104+491058896+491204976+491202874+491053624+490598359
3248+489767690+488892032+488293964+487752462+486850053+485731392+484992767
3238+484859688+484945641+484733592+483967859+482772400+481660329+481167164
3228+481265085+481399267+481092575+480253784+479015617+477599739+476377316
3218+475713849+475503546+475135230+474283830+473383451+472821610+472232269
3208+471187628+470008483+469280116+468955186+468406488+467298728+466108114
3198+465478557+465293723+464963913+464364705+463706404+462812722+461381100
3188+459654540+458254371+457624922+457762595+458162185+458106653+457274167
3178+455972274+454656276+453414440+452060364+450538265+449041066+447708611
3168+446403691+444983076+443644174+442777563+442513936+442510374+442229186
3158+441437913+440314871+439094550+437932218+437076508+436656507+436221902
3148+435035384+433007582+430921576+429595106+429102047+428815872+428104104
3138+427025410+426228829+426100702+426276988+426153385+425595284+424909091
3128+424347784+423872856+423310587+422597608+421831376+421090007+420309634
3118+419383039+418261172+417016130+415915600+415230262+414880434+414563590
3108+414253122+414151105+414128985+413699152+412619104+411206895+410072455
3098+409639203+409744355+409707381+409022435+407842685+406581400+405477094
3088+404743704+404574186+404842088+405282001+405813137+406248135+406144194
3078+405383020+404375602+403426495+402445792+401338352+400246442+399462792
3068+399219255+399364480+399338868+398737168+397713970+396660530+395740810
3058+394865223+393969083+393195834+392746233+392647279+392759590+392850921
3048+392610269+391844643+390691894+389407313+388112936+387005638+386411774
3038+386296079+386170303+385773491+385321111+384852346+383934941+382368459
3028+380678518+379517860+378918047+378449318+377858837+377211863+376552278
3018+375758975+374774853+373813456+373231382+373140764+373177702+372816725
3008+371985485+371192930+370908714+370975610+370800001+370042425+368932313
2998+367876059+366966989+366065649+365214890+364624017+364236645+363719721
2988+363021168+362556143+362600739+362762456+362330843+361111127+359704154
2978+358888303+358854642+359117093+359008594+358172011+356795708+355501509
2968+354793588+354580720+354413874+354068284+353644401+353230669+352730985
2958+352011630+351112925+350283610+349777657+349629084+349645184+349564041
2948+349220731+348625798+347899568+347156560+346497190+346022690+345731991
2938+345437267+344901892+344106487+343271721+342524867+341724724+340810026
2928+340053448+339690974+339588743+339503468+339352045+339076093+338536942
2918+337641657+336442779+335184878+334255611+333889647+333924982+333984005
2908+333807185+333361538+332800515+332340050+332014692+331601566+330927484
2898+330155909+329588689+329282923+329041737+328663091+328038415+327188796
2888+326373301+325910520+325725935+325372223+324651301+323906049+323530645
2878+323458692+323309228+322867570+322242324+321628085+321125160+320791325
2868+320643998+320566702+320389775+320086645+319766168+319494775+319196418
2858+318713084+317973140+317128258+316450828+316053660+315805564+315546069
2848+315270865+315077303+315011085+314985794+314808404+314312211+313510608
2838+312602892+311809019+311217327+310787851+310438913+310092255+309668549
2828+309099548+308392161+307679894+307156950+306902941+306766301+306477027
2818+305934848+305346006+304985455+304871505+304776613+304501694+304042368
2808+303530894+303073919+302655129+302232171+301836856+301447453+300936370
2798+300320884+299806097+299424923+298959862+298290803+297496502+296679831
2788+295964092+295461362+295070819+294605598+294153236+293913136+293721160
2778+293174029+292194182+291121311+290274559+289681389+289196239+288691034
2768+288127589+287553405+287057728+286703412+286463935+286195375+285723047
2758+285033613+284331320+283807931+283414681+282928016+282182480+281241547
2748+280397556+279922059+279756976+279571072+279121097+278408064+277546797
2738+276683945+275996131+275597948+275445991+275395285+275322388+275140367
2728+274746761+274097400+273364972+272852215+272639294+272447389+271952531
2718+271169647+270450630+270061192+269810798+269292484+268490293+267830442
2708+267574189+267523447+267380342+267048395+266550652+265942486+265325718
2698+264781081+264314364+263929966+263675564+263558408+263473258+263276846
2688+262931862+262524222+262126519+261730491+261323634+260911772+260456454
2678+259938568+259474291+259186655+258968640+258588855+258054637+257644823
2668+257516412+257480328+257272020+256891825+256537989+256301522+256088797
2658+255807538+255466578+255068057+254575550+254067424+253742512+253647192
2648+253548416+253203486+252621982+251977287+251423709+251059508+250896597
2638+250822489+250713241+250574945+250498361+250532823+250626772+250625098
2628+250370127+249889179+249402764+249100311+249001126+249011064+248998507
2618+248867068+248632792+248355968+248019853+247615115+247249400+246984491
2608+246696962+246310658+246005551+245974081+246149030+246355451+246537721
2598+246693097+246783342+246803396+246756270+246557651+246163849+245757490
2588+245593654+245658715+245657201+245403512+245064120+244860407+244725049
2578+244506108+244291530+244235357+244293667+244375790+244489063+244583208
2568+244544275+244410128+244349823+244455491+244720846+245117052+245560919
2558+245898939+246010930+245890622+245597804+245198463+244796236+244513891
2548+244345174+244136955+243800270+243400680+243016976+242689411+242465126
2538+242313864+242087389+241705306+241286160+241021625+240992897+241113098
2528+241214331+241210021+241147881+241094486+241043104+240954569+240816754
2518+240638723+240425267+240194856+240012141+239944070+239968559+239995310
2508+239984820+239978764+240014884+240059676+240025766+239859240+239615293
2498+239420770+239370634+239463425+239581347+239550927+239308672+238964418
2488+238643781+238376609+238179646+238084628+238027956+237854591+237487629
2478+237022622+236632649+236411250+236314238+236234733+236093231+235836015
2468+235445633+235033824+234810538+234825445+234832498+234556083+234027707
2458+233538566+233311593+233296187+233244199+232959787+232502314+232123561
2448+231994027+232041189+232066141+231958229+231763064+231568434+231386039
2438+231180028+230960678+230778604+230648999+230534639+230397821+230250495
2428+230142208+230087798+230046728+230020422+230109883+230386974+230734096
2418+230910827+230809861+230585238+230482918+230601659+230864965+231143874
2408+231337489+231409780+231405150+231380251+231335334+231282010+231304005
2398+231459845+231712359+232044252+232547178+233333909+234499411+236252009
2388+238960090+242990564+248601713+255994260+265291433+276417717+289120278
2378+303109147+318076440+333647534+349435629+365029272+379799191+392974774
2368+404104994+413049399+419342040+422238910+421736982+418865723+414493524
2358+408276791+399252596+387159127+373064607+359490895+349566855+345374219
2348+347501616+355439815+367160765+378851615+387047777+390858989+391368611
2338+390178246+388572547+387190616+386007624+384483389+381970401+378306693
2328+374015211+369766045+365637064+361063146+355588673+349421345+343060349
2318+336727600+330416544+324218441+318313138+312687811+307085389+301321321
2308+295509521+289893438+284610086+279692966+275149130+270951579+267039971
2298+263371526+259956859+256859659+254144008+251785916+249657735+247630129
2288+245681975+243909251+242432355+241281832+240373991+239604785+238938059
2278+238375291+237873132+237345664+236751194+236136723+235574401+235086436
2268+234660647+234293596+233973920+233676097+233400697+233153723+232892839
2258+232594054+232328949+232151915+231978443+231697808+231328726+230978149
2248+230723374+230565308+230433922+230250904+230016896+229793822+229618534
2238+229503266+229494450+229648473+229926936+230166840+230235320+230215355
2228+230330516+230665740+231085884+231459115+231831491+232316731+232907514
2218+233495127+234032604+234565148+235130623+235762708+236540677+237490265
2208+238504344+239467112+240357659+241188578+241971391+242771516+243699518
2198+244808454+246017395+247178319+248233505+249239516+250228892+251154009
2188+251955843+252604225+253123233+253591998+254050451+254453390+254757713
2178+254966699+255101914+255184660+255182381+255015659+254695182+254312440
2168+253861930+253267549+252560305+251862090+251260674+250757072+250267184
2158+249707479+249091156+248478716+247923411+247510534+247343777+247501735
2148+247992906+248702466+249659819+251455340+254870060+259980529+266162282
2138+272888922+279976789+287292485+294753245+302417683+310358233+318603907
2128+327157058+335995956+345154512+354641097+364213883+373509080+382309721
2118+390423493+397511432+403204615+407285688+409870130+411452285+412626585
2108+413862971+415532253+417872232+420926367+424499135+427971881+430431546
2098+431338193+430866792+429527926+427689126+425357268+422272215+418178533
2088+412834644+405927764+397293791+387010910+375284831+362595361+349672256
2078+337086370+325214852+314431219+304919557+296617300+289493011+283526618
2068+278584777+274556548+271277150+268385783+265679304+263301995+261362442
2058+259810975+258618883+257683632+256882741+256371677+256412711+257059294
2048+258318834+260278939+263014431+266697551+271580636+277758632+285354714
2038+294704267+305828164+318106183+330763630+343156881+354603090+364568770
2028+372962555+379993607+385939767+390955236+394948789+397778870+399346847
2018+399364586+397514744+393931468+389120105+383486906+377131966+369919676
2008+361752296+352873218+343792314+334915445+326379392+318192028+310390255
1998+303105906+296641717+291385152+287325131+283723154+279750350+275421698
1988+271381660+268035456+265362763+263197413+261330348+259607654+258072625
1978+256854637+255969183+255299554+254686668+254114675+253838777+254055901
1968+254421011+254265634+253402657+252341648+251630379+251356832+251347072
1958+251503463+251763101+251967919+252012319+252016149+252210886+252698352
1948+253419613+254387973+255718949+257114114+257643594+256755398+255165372
1938+254000654+253640762+253804154+254162228+254543830+254863987+255110231
1928+255476695+256433033+258203655+260152575+261470764+262408900+263583396
1918+264414030+263867968+262453515+261753306+262489260+264067158+265425509
1908+265960635+265869963+265727802+265825259+266068690+266373529+266906234
1898+267875805+269075377+269893740+270227717+270862242+272119770+272888798
1888+272116884+270440959+269087239+268375845+268035117+267881896+267804279
1878+267712681+267627281+267689367+268413870+270705406+274753458+278687257
1868+279513563+276647149+272653346+269938818+268931934+268884149+269045082
1858+269091585+269058565+269101184+269274246+269648938+270508638+272234681
1848+275171535+279283099+283100740+283832936+280839428+277030015+274965061
1838+274686082+274946414+275208420+276450381+279807325+284398393+287422998
1828+287657399+286660204+285395909+283277827+280613256+278927357+278860658
1818+279599319+280249357+280978668+282536886+284916921+286919236+287386844
1808+286594769+285890570+286517597+288963708+292569621+295609935+296688719
1798+296366995+296703555+299316850+303785010+307010301+305906244+301900082
1788+298963174+298811396+300409615+302318124+304234683+306054390+307222207
1778+308039305+310200149+315185020+322273884+327793596+328287545+324799874
1768+320432448+317170077+316449546+318858380+322648326+324969498+325578608
1758+326175500+327062343+328125080+330914340+336781637+343953176+348332143
1748+348400676+346623358+345743817+346785039+349372973+352117316+353576900
1738+354664856+358372341+365342767+370465738+368541663+362661080+357320931
1728+353597239+351788111+352038737+353659967+356567630+362387017+372240279
1718+383144665+388008034+384187881+376857546+371003429+368519970+369885410
1708+374695989+380938903+385947248+390038080+396282169+405010715+411259008
1698+411822096+408709473+402947970+396153651+392223360+392841339+396677521
1688+402786395+412412078+424797029+431795133+427584010+419342788+414540935
1678+415067548+419648055+424994188+428689064+432168257+436902253+439975515
1668+438219604+434978213+435297087+439421617+443424075+444493793+444790654
1658+448281673+457497685+473163602+490679788+497419322+493707919+492847756
1648+497887767+502158803+499437649+493717786+491464542+494494526+502448326
1638+514481525+527191620+533174825+530155456+525911883+526542116+532244098
1628+540347896+548926373+558277173+568092463+575982967+581639140+588521691
1618+598839444+609283649+614398463+615340838+616794652+620130509+623879064
1608+626588428+628393459+630335273+632907783+635734481+638570725+642071220
1598+647135239+653776390+660967449+667678345+673833348+679792865+685377584
1588+690189268+694294384+697811122+700563088+702919453+706430989+712979313
1578+723009823+733461936+739202530+741250707+745932234+756005416+768393787
1568+778298129+785942352+794784705+806493223+822004155+843958402+871960861
1558+891791914+893447553+888261000+883912952+880601745+877577425+874844124
1548+873387318+874639235+878817088+884972020+891927058+895014925+886260839
1538+870143220+858979552+855212617+853586400+848770157+841947128+837679796
1528+837272512+839109459+842238076+847086235+852227479+854357939+853361706
1518+851199971+846940547+839897099+833475156+831882494+836729299+847177067
1508+858889789+861456528+850041309+836568722+830062858+830539674+834800807
1498+838195153+836665895+831397058+828053864+830095415+835899770+839940769
1488+837859822+831383594+825106769+821697249+821178829+822253783+824224593
1478+827640453+832963646+839325034+844091551+843512932+837156318+830165374
1468+827323716+829094765+832144589+832852938+832276528+834549754+841474515
1458+849435832+850127225+841914856+832709102+827227469+825340867+825305175
1448+824955667+823047051+820309761+818042162+816684025+816769300+819396951
1438+823972400+826379844+823415224+818242278+815101550+814250150+813748614
1428+812821627+812468200+813388063+815361579+818454077+822567742+825007103
1418+821846855+814230487+807104542+802911372+801152647+800409889+799804626
1408+799612133+800190253+800562558+799625598+798343047+798448127+800054183
1398+802129431+803806585+803948497+801603887+798235545+796743688+798006291
1388+799986647+800092368+798593815+798295601+800887987+805555052+810646997
1378+815565044+820625999+825516476+828874346+830143717+830785811+832366291
1368+834778794+837225208+839671692+842108631+843474676+842888719+841089458
1358+839404895+838378028+837890740+837701311+837490153+836856821+835654559
1348+834306253+833569052+833971278+835645297+838468148+841943922+844996453
1338+846535400+846616900+846500634+847385803+849468318+852131874+854818583
1328+857558438+860545570+863567254+866434274+869655504+873786624+878397337
1318+882627338+886342767+889857010+893242736+896623047+900203117+903748280
1308+906981977+910087155+912932162+914824535+915871634+917298020+919604944
1298+921659176+922206306+921283736+919792379+918502419+917687352+917183749
1288+916535172+915160649+912729695+909724895+907378361+906429290+906225398
1278+905732197+904857145+904053333+903460894+903202574+903748778+905296203
1268+907279051+908965396+910288055+911822656+913946205+916275143+918213964
1258+919723132+921023564+922096951+923066683+924311476+925667761+926350676
1248+926144576+925660993+925022745+923597357+921426931+919464385+918051678
1238+916516364+914466691+912307165+910291759+908149687+905873254+903993705
1228+902707022+901411648+899713122+898291580+897992084+898564220+899134646
1218+899533025+900305419+901664767+903069140+903878936+904156348+904476362
1208+905163837+906211720+907765983+910065284+912957239+915854964+918141584
1198+919712090+921151371+923061696+925265962+927117514+928498590+929951692
1188+931858028+933931637+935681956+937188559+938939091+940959484+942833548
1178+944423361+945907879+947433433+949326375+952038233+955144480+957465296
1168+958750197+960031608+961845758+963158158+962941158+962066605+962371730
1158+964490293+967680818+970999576+973757954+975797012+977898050+980779460
1148+983885351+986135282+987214369+987576771+988018608+989177840+990781830
1138+992174519+993615936+995719111+997969113+999286572+999871816+1001052848
1128+1003292022+1005641762+1007366077+1009007682+1011490998+1014823079
1120+1018049510+1020119201+1020443846+1019225983+1017349140+1015577734
1111+1014311641+1013815946+1014257711+1015693643+1018004414+1021343334
1103+1026299708+1032463118+1037053456+1037067490+1033373292+1029882700
1094+1029252716+1032072788+1037510181+1043462860+1047908365+1050101873
1085+1050116620+1049278969+1050507234+1055095293+1060142998+1061669477
1077+1059144556+1055089095+1051867010+1050812644+1052239315+1054546381
1068+1055628175+1055688944+1056536212+1058358840+1059393757+1059248497
1060+1059016038+1058236163+1056332677+1055300395+1056867411+1059239663
1051+1059293592+1056451079+1052880199+1051272789+1053040277+1057474313
1043+1062554860+1066860305+1070190748+1072701705+1073741823+1071826938
1034+1067435291+1064046075+1063835344+1064833714+1064500164+1063786829
1025+1064874464+1067090841+1067811799+1065978129+1062906220+1060747976
1017+1060805895+1062502497+1064201380+1064895552+1064427214+1062330593
1008+1058028852+1052717057+1048947129+1048075710+1049684402+1052563461
1000+1055635940+1058666102+1061796642+1063352117+1059905196+1051189081
991+1042070527+1037055522+1036028726+1036567878+1037921883+1040838558
983+1044467357+1045713575+1042372517+1035752240+1029327234+1025487277
974+1024546398+1025834006+1028072539+1029222653+1027525836+1022949319
965+1017018226+1011402090+1006905932+1003362836+1000016008+996048244+991179496
955+986053925+982207200+980907551+981348248+980907765+978116403+974630299
945+972922939+972946021+972423540+970106500+967358951+965719199+964646453
935+963006843+961459632+961580884+963122752+964201624+964016042+963322511
925+962838144+962765265+963259320+964310908+965382514+965748835+964981428
915+962987821+960150366+957691699+957063853+958296891+959618766+959831278
905+960060033+961217199+961445099+958652811+954315734+951624038+951128343
895+950999967+950571952+951268546+953623486+955457940+954628339+952031750
885+950027742+949170215+948121549+946161354+944235712+943562200+944157703
875+945080986+945791614+946311032+946225614+944896685+942553286+940261252
865+939053932+939381925+940796556+942149493+942821651+943408747+944421366
855+945172174+944994143+944495029+944399780+944200804+943000181+940987767
845+939187865+938502099+939409068+941529625+943382887+943726126+942964346
835+942529207+943225231+944664725+946113766+947195987+947588453+946573626
825+943653602+939790990+937661884+939493844+944348344+949149983+952499161
815+955139350+956977865+956967891+955734640+955127881+955477674+955804741
805+955818989+955738487+955647654+955934969+956874779+957814020+957892171
795+957320890+957209754+958384945+960427992+961750295+961139190+959403904
785+958710872+960294344+963507381+966259704+966370056+963541435+959476783
776+956213877+954903543+955591944+957453398+958740864+957592247+954212363
766+951221170+950496579+951183626+952014438+953544693+956248785+958502350
756+958698049+957635846+957047681+957308423+958084522+959469730+961284664
746+962891504+964245651+965674174+966726189+966718353+965728531+963725236
736+960272188+956367971+954511718+955827894+958650460+960392799+959910284
726+957994331+956424608+956342253+956681717+955627849+953867628+954188569
716+957897229+962935602+965626443+964788293+963209024+964035348+966750910
706+967804919+964956564+959405614+953752503+949891458+948598649+949343331
696+950168301+949220583+946751372+944176297+941916250+939478670+936598542
686+933156037+928940925+924293381+920275392+917867164+917761941+920049772
676+922717745+921975913+916104521+907660618+900779314+898543417+900875917
666+904199733+906953195+907975859+904109542+895320477+887018700+884365332
656+887550656+892764638+895911777+895468659+892821773+891198263+893441142
646+898501456+901989626+901420482+898252897+893979296+887782759+879989928
636+874222832+873532008+876939106+880639075+882154868+881924404+879691001
626+874877465+868647730+862101401+857124296+857329968+863937850+872075701
616+873520111+866469183+858010391+853910974+854705025+859469761+866916789
606+874869842+881806928+887829137+892167639+891488998
##END=
