##TITLE=<SNM>
##JCAMP-DX=4.24
##DATA TYPE=INFRARED SPECTRUM
##DATE=2/5/2025
##SAMPLING PROCEDURE=Instrument type and / or accessory
##ORIGIN=Admin
##XUNITS=1/CM
##YUNITS=ABSORBANCE
##RESOLUTION=4
##FIRSTX=4497.3318
##LASTX=599.83466
##DELTAX=-1.4281778
##MAXY=1.8607324
##MINY=0.39171273
##XFACTOR=1
##YFACTOR=1.7329421e-09
##NPOINTS=2730
##FIRSTY=0.41424969
##XYDATA=(X++(Y..Y))
4497+239044156+240608358+241893598+241358050+239333127+237631586+237457014
4487+238368552+239289135+240002850+241027444+242257962+242839084+242456731
4477+241713247+241206436+241063817+241134963+241053791+240544744+239977896
4467+240045655+240800024+241531831+241477228+240273814+238177418+236302372
4457+236002034+237361241+238827949+238955469+237998048+237198105+237191621
4447+237713996+238272607+238520199+238256441+237570070+236970186+237024926
4437+237770318+238702252+239384530+239799214+240109973+240369518+240497141
4427+240447268+240296360+240060307+239520356+238504257+237300396+236446556
4417+236169675+236239790+236269989+236108813+235983426+236100851+236190708
4407+235886329+235530770+235922581+237090070+237983155+237715389+236626700
4397+235816989+236044770+237168474+238253276+238318541+237358833+236470443
4387+236631773+237463583+237568574+236222919+234321629+233230773+233045590
4377+232767609+232077988+231743186+232178954+232799287+232956300+232692438
4367+232422609+232322158+232173228+231728912+231082010+230589886+230623146
4357+231397120+232647192+233502958+233280301+232436780+232181844+233038779
4347+234183481+234442631+233682294+232823776+232687124+233225424+233743672
4337+233540294+232529354+231384239+230846885+230960733+231164472+230956726
4327+230318646+229578654+228991066+228615162+228564171+228976740+229660032
4317+230209700+230514646+230720415+230828622+230692864+230277922+229804423
4307+229700859+230168460+230773916+230890172+230518602+230255256+230382535
4297+230374659+229651881+228604379+228291986+229160582+230654772+232023042
4287+232882437+233130786+232825444+232080309+230989866+229868174+229345834
4277+229760948+230561458+230753572+230000010+228995262+228635541+229053114
4267+229689664+230120445+230373988+230480114+230220122+229492339+228624913
4257+228143331+228346571+229155010+230226880+231188893+231865581+232252680
4247+232291701+231873062+231084246+230233071+229580442+229197849+229086564
4237+229289873+229767328+230147204+229891408+229002880+228337474+228799554
4227+230294673+231696856+231801555+230396534+228612101+228010325+229014902
4217+230428590+230927972+230681290+230802138+231600275+232267057+232148842
4207+231571796+231318682+231663166+232073964+231920080+231313833+230850531
4197+230671643+230386250+229803288+229204831+229004979+229340262+229795962
4187+229723852+229106203+228573665+228411715+228317800+228206618+228454331
4177+229260310+230374039+231416743+232123372+232408215+232368076+232147105
4167+231833491+231569336+231584367+231932514+232334007+232467615+232269362
4157+231816052+231230373+230801931+230726692+230732505+230553771+230524982
4147+230982161+231505654+231518122+231129372+230753451+230473562+230278920
4137+230356997+230713467+230926579+230641065+230092430+229848569+230102576
4127+230544605+230891496+231058106+230870687+230232401+229521266+229259674
4117+229518239+230030914+230566428+230857737+230626774+230003777+229507232
4107+229396102+229424753+229386041+229458460+229748118+229903567+229620014
4097+229175991+228987781+228926351+228576829+227947881+227485697+227516223
4087+228034642+228900452+229877959+230573428+230677266+230301741+229828998
4077+229451426+229159928+229079822+229346281+229681856+229598362+229053183
4067+228491099+228217504+228030360+227510823+226637154+226039127+226354891
4057+227301185+227860070+227603775+227245998+227526232+228238915+228784661
4047+229064757+229369205+229749632+229876515+229455674+228656109+228002638
4037+227755268+227646976+227447398+227432763+227950959+228787791+229317647
4027+229224350+228884458+228987489+229787655+230810496+231381987+231318786
4017+230958033+230590436+230071380+229125791+227983273+227430407+227971424
4007+229088438+229755616+229718040+229759916+230545550+231668016+232170235
3997+231717235+230840608+230164797+229836651+229739571+229814587+229991962
3987+230150540+230288447+230459305+230513081+230282807+230134908+230854246
3977+232663787+234682158+235632786+234974138+233271410+231587033+230548285
3967+230063400+229957911+230439596+231585089+232891448+233746114+233916920
3957+233495769+232909798+232850845+233738667+235415701+237257282+238314998
3947+238059340+237286689+237261959+237979079+238271626+237493455+236136931
3937+235163534+235486486+237366813+239783100+241025054+240485843+239386215
3927+239266056+240294400+241303946+241455577+241426496+242287524+243811054
3917+244414222+242781179+239417584+236100283+234135225+233812341+235359637
3907+239541268+246544016+254434965+259823260+260861767+258044348+252480586
3897+246019285+241604989+241340732+244388805+246998237+246566906+245607645
3887+247705744+252148123+255294153+256247378+256446130+254881155+250632832
3878+247028264+247375568+250875162+255024410+258858909+261555653+261442167
3868+259498055+258654000+259047256+258143801+254993764+251691477+250767901
3858+253967519+262456958+274600735+281209058+274535746+262446399+253505008
3848+249512567+249852356+253537408+259197717+265347571+270833565+274055729
3838+273063981+268581583+263970977+260922956+258770049+257102783+256520406
3828+256981351+257968077+260589582+266438702+273190693+275156697+272174955
3818+269191958+266867110+262516049+256897943+253468893+254125478+258422624
3808+263714029+267231577+270019606+274660480+279507775+280310711+277716154
3798+275129198+272541486+268869418+265621699+265037190+267301829+271233184
3788+276158918+281858213+287488099+292498737+297912072+304507118+310831028
3778+315405330+319673378+326325279+336724006+350382834+364821019+376762467
3768+385115307+390494247+392865064+393238697+394410399+397401944+399967403
3758+400454196+401193621+405856352+415560849+426868844+433309559+434303748
3748+436974215+445650609+456840353+462515434+462779451+465073498+473474663
3738+487822768+504450852+517361106+523618186+526286555+529777309+536134273
3728+545571141+556749157+566862026+574141534+579071893+582339699+584022580
3718+584539125+585223862+588047972+593582205+598153033+596138721+587794686
3708+578484495+572337823+570725417+572248361+573160621+570734256+566640660
3698+564627448+566996098+573810997+583218630+592317912+597866591+596941295
3688+590070401+582219592+577867860+578189729+581601444+585903165+591060635
3678+597840795+602518798+599691249+593468977+591015165+590952428+587125221
3668+579113580+571839782+568057633+567184824+567214232+567061070+567688299
3658+569991048+572791734+575299822+579562573+587402720+596419316+599420216
3648+592054377+579287000+568119166+561481435+558355716+556360562+555074565
3638+556132763+559761201+563872029+567621641+572892752+579954333+583239543
3628+577333430+566999744+559971664+559431524+565127002+573784548+579912853
3618+581127548+580540562+580949038+582189186+584156033+587629590+591283515
3608+591608411+587543740+582134705+578889737+579059442+581576473+584783881
3598+588245881+592149789+595620938+597307809+597665449+598740776+601202843
3588+602734386+600959326+597361328+594861908+593891623+593272719+592802607
3578+593239355+594551320+595695575+596206617+597303544+600854972+606819762
3568+611646352+611408751+607350203+603645030+601401303+599131091+596833570
3558+596452679+598535162+600939033+601371379+600080601+599014010+599078880
3548+599225334+597713533+594307941+590866165+589247259+589392199+589851305
3538+589607512+588813331+588026509+587753344+588590519+590511896+591941630
3528+590938326+587625807+583973808+581254191+579284661+577793773+576852552
3518+576156465+575295763+574699869+575449819+577963685+580854108+581433458
3508+578403116+573585435+569654802+567228265+565481065+564501562+565029010
3498+566158269+565590097+562878700+560353828+559701457+559723848+558738120
3488+557398329+557233130+557834115+557257034+554522696+550774770+548108499
3478+547678251+548918984+550594643+552189610+553570262+554130730+553545360
3468+552472613+551431371+549990769+547826357+545563506+544055833+543522709
3458+543529829+543349599+542427571+541009119+540136997+540525524+541572819
3448+541878488+540819051+539125886+537674139+536544674+535628975+535072428
3438+534559873+533285467+531319927+529922491+529894115+530587760+530841630
3428+530087002+528470469+526697232+525630400+525276337+524596072+523093146
3418+521834218+521980328+523003237+523307977+522236365+520444864+518684421
3408+517266760+516449465+516492115+517191882+517692227+516945098+514624188
3398+511626487+509335363+508398511+508394899+508469536+508063331+507293397
3388+506813689+507110072+507904426+508371820+507880521+506468157+504826481
3378+503736536+503261712+502833528+502332736+502432172+503663549+505774993
3368+508063640+509776514+510302965+509543522+507988762+506289130+505061124
3358+504806256+505432728+506181749+506506817+506623450+506864869+506986078
3348+506444321+505250228+504186561+503827132+503688795+502967393+501757100
3338+500811408+500396947+500092070+499567132+498936533+498291695+497475913
3328+496594436+496171343+496395874+496764795+496793446+496484682+495928617
3318+495113557+494367975+494315695+495013055+495530012+494849128+493100105
3308+491460458+490911134+491516075+492690872+493697512+494126247+494204220
3298+494410522+494807544+495018283+494674986+493701777+492439135+491540942
3288+491350222+491508370+491608253+491789447+492278820+492949764+493707865
3278+494665768+495605372+495883181+495162604+493837191+492597868+491814899
3268+491357789+490938169+490591157+490569454+490811836+490883309+490549574
3258+490044517+489639033+489394140+489211984+488833879+488084686+487237192
3248+486764982+486665030+486350384+485408991+484149066+483227485+482964638
3238+483030401+482755825+481854193+480748495+480051445+479911285+480004874
3228+479970376+479699756+479293619+478781133+477985197+476840976+475660675
3218+474714364+473771974+472483948+471018650+469945833+469665961+470148627
3208+470961003+471414158+470987419+469845744+468703725+467927566+467036080
3198+465439462+463409981+461856666+461341841+461650605+462104929+462088729
3188+461419470+460405779+459522136+458942613+458404262+457440753+455723339
3178+453370201+451062534+449626402+449187934+448989819+448385257+447579209
3168+446941318+446252694+445224179+444112703+443291865+442775113+442460639
3158+442287701+441996581+441245256+440013293+438582906+437263374+436315997
3148+435828171+435467780+434747651+433639545+432535154+431654228+430915835
3138+430267626+429779766+429486651+429244648+428700415+427646344+426466972
3128+425805624+425763765+425861928+425672068+425017564+423801114+422197032
3118+420824256+420291958+420590026+421090508+421140381+420503763+419237818
3108+417503035+415696950+414438401+414095895+414439158+414863317+414898297
3098+414525867+414001721+413491436+413070819+412877760+412902799+412816846
3088+412393890+411869228+411570747+411448473+411167672+410460372+409300433
3078+407923289+406700098+405873722+405441548+405299256+405359481+405515119
3068+405651599+405732117+405658340+405066057+403654415+401806369+400428262
3058+399985460+400027078+399833812+399278022+398781599+398588264+398437201
3048+397994055+397270692+396420825+395419447+394255037+393214070+392639604
3038+392500923+392414729+392003124+391111225+389857594+388619269+387792206
3028+387453827+387393601+387377470+387119954+386267060+384884447+383676321
3018+383186776+383126963+382939476+382546409+382059100+381309700+380184879
3008+378989238+378128604+377712459+377570407+377435578+377122480+376657184
2998+376155704+375582098+374815466+373908950+373090932+372559082+372360416
2988+372355635+372229508+371700203+370799155+369812086+368955752+368273113
2978+367778444+367479895+367238751+366757942+365842862+364703904+363856754
2968+363571894+363531342+363209335+362518717+361855787+361511286+361270658
2958+360744723+359978814+359448683+359388320+359410539+358984487+358122581
2948+357328159+356884325+356499857+355809170+354970962+354454624+354379161
2938+354377441+354045357+353328770+352509342+351882664+351445022+350965107
2928+350347028+349737995+349264925+348833543+348231491+347411720+346621975
2918+346092876+345651071+344947245+344034572+343345433+343107453+343117909
2908+343104083+343042791+343059128+343191102+343346705+343383852+343169708
2898+342666749+341970009+341193850+340395265+339636889+339008938+338591485
2888+338468351+338640498+338844358+338688032+338072670+337281756+336649644
2878+336293930+336112324+335947744+335761426+335581092+335319243+334858487
2868+334277588+333761215+333348406+332976630+332642241+332304241+331781161
2858+330970504+330105227+329624728+329732488+330120395+330219075+329753744
2848+328993269+328440575+328359919+328601269+328751472+328464686+327785212
2838+327103054+326686599+326382547+325893587+325194232+324525386+324081173
2828+323815334+323542409+323183566+322834869+322580723+322376176+322149444
2818+321860972+321454423+320921540+320406096+320071466+319839472+319392886
2808+318522416+317402169+316422460+315832998+315642071+315703535+315751722
2798+315528051+315019176+314402817+313759285+313098453+312598349+312491793
2788+312732834+312982851+312902023+312391050+311640584+310948005+310421211
2778+309939817+309416806+308914329+308490375+308131291+307798725+307392485
2768+306815026+306203792+305836315+305673214+305302469+304454253+303324134
2758+302333075+301725727+301398046+301060183+300542847+299877096+299156485
2748+298496788+298041466+297845862+297815044+297782987+297583737+297127830
2738+296483164+295784325+295092984+294452204+293947216+293627308+293480097
2728+293432494+293289032+292868346+292284353+291825832+291517893+291100578
2718+290461139+289793325+289266805+288795352+288257792+287762159+287520328
2708+287553398+287646093+287538643+287141518+286638094+286315469+286216153
2698+286079054+285681602+285067891+284405631+283824269+283437789+283324216
2688+283389412+283372903+283089935+282622385+282202920+281955637+281809286
2678+281624344+281333379+280952110+280501156+279992436+279513175+279208022
2668+279074277+278877056+278422921+277843364+277432962+277269534+277166951
2658+276968852+276727657+276559362+276442763+276250254+275952410+275691970
2648+275594770+275603781+275579017+275446166+275199020+274898356+274650763
2638+274441572+274112498+273643211+273244590+273062743+273018081+272984512
2628+272912557+272783025+272591084+272354136+272082020+271757657+271355510
2618+270905537+270545180+270409543+270464506+270542170+270496081+270276056
2608+269965640+269748212+269703051+269691821+269559641+269315367+269025830
2598+268713849+268467770+268468028+268746542+269026552+268996886+268707314
2588+268466583+268358755+268152161+267747142+267408351+267399872+267612984
2578+267732283+267644283+267506222+267477278+267566035+267718439+267867198
2568+267899718+267756532+267553223+267443846+267422332+267432341+267565536
2558+267936108+268452877+268883864+269047722+268860802+268360904+267734502
2548+267180913+266773831+266535989+266489641+266537571+266475195+266206123
2538+265828070+265489381+265260826+265143814+265114664+265120770+265075661
2528+264926781+264705879+264451304+264151775+263831712+263578891+263421809
2518+263294392+263152461+263012249+262876578+262729539+262607488+262592114
2508+262704018+262860395+262965782+263001381+263007382+263021330+263026489
2498+262927397+262639631+262241834+261938694+261829025+261799204+261662966
2488+261345671+260936404+260592505+260387906+260270877+260185767+260178458
2478+260316502+260539726+260666283+260543252+260142188+259556045+258988887
2468+258689393+258769206+259089063+259368110+259387217+259107292+258660690
2458+258244252+258000184+257966391+258065208+258120687+257973941+257611486
2448+257149612+256732107+256472046+256398957+256414589+256366729+256184486
2438+255918217+255693170+255638155+255768014+255911871+255863288+255625893
2428+255404080+255349598+255438836+255579546+255695681+255734186+255707754
2418+255705914+255802168+255992356+256209543+256321448+256175647+255777008
2408+255383236+255296079+255541935+255829014+255846366+255587732+255374792
2398+255565289+256253173+257320676+258811770+261161125+265043604+271151083
2388+280128451+292517138+308679582+328820331+352920914+380439918+410203475
2378+440929853+471916911+502910745+533216849+561325729+585682555+605708045
2368+621982273+635281879+645174999+649895376+648340582+641758950+632266465
2358+620307853+604609811+583570423+556887012+528487254+505884438+494688297
2348+496216331+508444118+526216010+542547369+553157591+558149586+559357506
2338+558650034+557442492+556641913+556797516+557715658+558306084+557591320
2328+555554754+552517155+548163978+541726565+533063998+523071752+512827528
2318+502774850+492877053+483136304+473678454+464405477+454744869+443955586
2308+431801989+418863428+406135984+394342985+383549747+373375792+363554902
2298+354182284+345454882+337414624+329947147+322819907+315790761+308889083
2288+302492668+296960567+292296150+288279289+284786746+281834188+279377366
2278+277228827+275211901+273312555+271624720+270211513+269064473+268116476
2268+267246470+266347521+265415690+264506525+263621575+262729728+261881495
2258+261195365+260706542+260295367+259802726+259197855+258602958+258148393
2248+257829224+257522231+257120806+256635698+256182835+255874157+255697418
2238+255530894+255307069+255091411+254945989+254810937+254613355+254402736
2228+254264400+254151498+253925729+253577186+253296007+253255059+253382269
2218+253439761+253299739+253049979+252835749+252697017+252596205+252517767
2208+252470216+252438968+252410850+252424419+252526675+252681453+252774956
2198+252735419+252621107+252553985+252578526+252646697+252733613+252868923
2188+253038697+253155451+253152975+253044011+252887015+252745084+252663774
2178+252663155+252752358+252914376+253047021+252986623+252668348+252233836
2168+251912465+251803708+251827269+251873083+251914030+251936611+251862507
2158+251632077+251307302+251002716+250768606+250626365+250654208+250909265
2148+251271823+251502373+251514239+251487669+251650341+252052849+252632956
2138+253375201+254292775+255322907+256346281+257303994+258259179+259356932
2128+260736586+262460811+264490239+266723459+269079606+271537391+274089677
2118+276684612+279196414+281415084+283123109+284232659+284775946+284753967
2108+284108991+282845953+281088589+279041705+276928077+274882878+272888790
2098+270871400+268850982+266968541+265369154+264049106+262834117+261574003
2088+260349298+259402574+258860697+258596044+258373371+258069112+257703527
2078+257333127+257012375+256819901+256813314+256951204+257123454+257286900
2068+257523606+257874660+258172039+258223701+258105278+258017055+257971757
2058+257889965+257825698+257856499+257952392+258088545+258290513+258549921
2048+258849794+259192179+259516439+259721330+259791668+259794076+259782072
2038+259780318+259817189+259918981+260075101+260245115+260439310+260734660
2028+261151442+261597632+261981309+262291690+262606113+263085992+263800361
2018+264475157+264683660+264388826+264003102+263862495+263935636+264050791
2008+264153082+264284316+264450221+264579821+264617226+264623985+264713291
1998+264927435+265338078+266141821+267320282+268311100+268483179+267898411
1988+267142683+266601270+266296633+266156990+266119585+266131692+266206931
1978+266391203+266664248+266942624+267163836+267397877+267880818+268758907
1968+269730756+270200266+269956749+269434323+269149755+269214194+269515976
1958+270032160+270718600+271334581+271655246+271772155+271998870+272522758
1948+273342925+274552514+276269051+277979156+278509682+277391998+275653224
1938+274537827+274276287+274413472+274585000+274714153+274850719+275033529
1928+275365819+276197750+277754865+279491162+280619578+281301013+282071273
1918+282380502+281314238+279466553+278382386+278658750+279611769+280252170
1908+280187989+279753184+279459519+279463870+279611236+279806342+280195642
1898+280985387+282024221+282789769+283223766+284067820+285574393+286613003
1888+286140363+284770133+283695116+283233276+283126651+283204883+283391012
1878+283665106+284108733+284830462+286184957+288903903+293154857+297238170
1868+298393637+296092333+292723406+290472215+289655573+289582862+289694267
1858+289823421+289991647+290268974+290753635+291631018+293090745+295182721
1848+298048930+301851888+305517370+306412879+303685936+300024720+297984542
1838+297702469+298036685+298492764+299958337+303410225+307900672+310729700
1828+310844683+309887743+308835392+307081072+304794523+303274537+303080377
1818+303588220+304128497+304839615+306316608+308535123+310391975+310822601
1808+310170849+309753740+310622594+313075890+316475910+319267000+320125398
1798+319552067+319624812+322098952+326619563+329963588+328879146+324811656
1788+321823379+321673485+323355231+325374978+327249130+328750268+329440061
1778+329855897+331802245+336711417+343757898+349176874+349550404+346071103
1768+341843916+338666501+337819076+339906993+343305603+345285245+345643848
1758+346036502+346718006+347580083+350193489+355910394+362967297+367267849
1748+367204940+365098862+363626031+363901433+365777958+368103718+369499022
1738+370680733+374440629+381451098+386740955+385083388+379458936+374402897
1728+371022964+369508481+369871108+371387414+374019117+379447861+388871694
1718+399464203+404267645+400524362+393213383+387294991+384733212+386051300
1708+390832110+397032438+401966099+405910731+411867026+420176735+426059253
1698+426364784+422882628+416655541+409633686+405813393+406658583+410556884
1688+416325039+425127559+436471669+442974398+439143408+431435544+426807827
1678+427156661+431378242+436357167+439764823+442981312+447348624+449866652
1668+447450055+443603002+443381189+446992670+450560744+451274717+451164034
1658+454188597+463035969+478386243+495054466+500119311+495076548+493660779
1648+498549142+503037834+500894334+495661849+493425929+496003392+503250912
1638+514637602+527293917+534439284+533456205+531142449+533358144+540591287
1628+550392744+560742217+571773675+583302623+593206680+601198716+610658664
1618+623884939+637451038+645260367+648310314+651916017+657831486+664221812
1608+668842444+671482540+673653625+676553816+680021320+683287681+686080353
1598+688745007+691727884+695128661+698676030+702189485+705821259+709602583
1588+713138876+716041407+718425053+720753598+723266776+726183890+730604136
1578+737764224+745986157+750600598+751816807+755348354+763926963+774564804
1568+782553882+788123405+794724298+804309375+818134468+838389649+863431934
1558+879620381+880110235+875980971+873366259+872361235+872376919+872396112
1548+871883763+872280132+875316252+881163275+888414922+891823679+883582485
1538+868249031+857670624+854147607+852678732+848234891+842063661+838658137
1528+839205638+841680844+844563287+848296595+852271563+853980447+853220523
1518+851873200+849512186+845119318+840633101+839391646+843455422+852929954
1508+863866413+865381996+852644268+838306138+831287070+831313829+835435595
1498+839554885+839436016+835175981+831837322+833052293+837661781+841095646
1488+839826124+834782708+829030341+824899357+823281551+823710251+825398154
1478+828320083+832853490+838582262+843274229+843448956+838624636+833003865
1468+830215045+830363287+830905147+829598204+828085578+830228940+837504802
1458+845816161+846296385+837775422+828868478+824005361+822395122+822063210
1448+821316286+819421807+817014290+815167069+814368554+814968335+817492794
1438+821240549+823165502+821313260+818430266+817489974+817935527+817580502
1428+816030179+814884686+815089061+816334231+818601003+822081783+824895230
1418+823586567+818337674+812970463+809715865+808131079+806900079+805642046
1408+805189957+805819387+806083334+804927867+803929447+805133893+808242037
1398+811389666+813311662+813277817+810759686+807121377+805189200+806120619
1388+808069718+808213696+806504330+805740347+807815538+812153443+817162051
1378+821927487+826413565+830459250+833195101+834060275+833857550+833936108
1368+835233628+838322373+843028029+847568658+849313520+847524082+844197805
1358+841608752+840586806+840718332+841071638+840970517+840467936+840114561
1348+840242373+840559427+840776322+841358837+842990951+845489546+847821256
1338+849066082+849055832+848415740+848289579+849479097+851567084+853472020
1328+854935048+856593096+858678537+860798855+863069135+866333845+870933221
1318+876011583+880316331+883311521+885449380+887611110+890282849+893248184
1308+896088872+898745065+901436891+904275722+907157477+909939556+912537346
1298+914660209+915725355+915626297+915238321+915288469+915190924+914002919
1288+912005117+910136639+908429475+906428027+904667206+904158778+904644093
1278+904767296+904003863+903155131+902846538+902682130+902129676+901546886
1268+901963548+904033168+907266303+910335305+912221118+912896224+913002229
1258+913314743+914396192+916388079+919166099+922512119+925778411+927782061
1248+927887035+927004595+926604649+926964972+927022824+925762039+923480477
1238+921680790+921586823+922805234+923847885+923935111+923413957+922469331
1228+920813553+918687664+917039934+916622791+917321217+918311175+918780599
1218+918639854+918515344+918952162+919797386+920537223+920978856+921301894
1208+921537982+921508058+921552910+922584211+925096564+928659479+932195084
1198+934500172+935196260+935342026+936235197+938022089+940309635+943007308
1188+945721354+947706017+948897187+949925806+951181294+952719991+954622520
1178+956783492+959002249+961373788+963881875+965933953+966959201+967223699
1168+967689133+969151405+971457525+973652824+974955227+975191727+974476723
1158+973235336+972489789+973371816+976061165+979355455+981337436+980791862
1148+978481614+977047616+978746663+982866365+986593070+988490370+989685392
1138+991821669+995109424+998227886+999893845+1000637810+1001972270+1003716030
1128+1004311340+1004157800+1005820733+1010209404+1014775555+1016330074
1120+1014666454+1012543728+1012662598+1015428235+1019259982+1022386700
1111+1023997214+1023895886+1022312406+1020474541+1020395019+1023457143
1103+1028743388+1033247283+1034978455+1034931265+1034992695+1035333343
1094+1034358656+1031278648+1027959387+1027651207+1031612073+1037407640
1085+1041439016+1042327166+1041389625+1040688172+1041354817+1043445211
1077+1046182645+1048629510+1050692113+1052963287+1055624433+1057537004
1068+1056512444+1051842352+1046587750+1045212842+1048802586+1054376305
1060+1059233575+1063799932+1068955544+1073088248+1073741823+1070622742
1051+1065436173+1060214797+1056572636+1055136229+1054739998+1053525784
1043+1051963079+1052515807+1055769098+1059332082+1060759271+1060256140
1034+1060536872+1063974796+1069275281+1071793549+1068530421+1061866448
1025+1056684351+1054691432+1053138358+1049218422+1044373396+1042646902
1017+1045752432+1051402783+1056309995+1059197529+1060055823+1058836449
1008+1056107477+1053571598+1053112630+1055204331+1058093998+1058744133
1000+1055623194+1050827904+1048220552+1049205214+1051690188+1053251105
991+1053990117+1055340467+1056954214+1056295136+1051721350+1044983565
983+1039855674+1038828569+1041127397+1043316711+1042545849+1039578657
974+1037405439+1037547835+1038954249+1039544674+1037630245+1032944538
965+1027497668+1023649686+1021017226+1017537272+1013088821+1009771555
957+1008702419+1008328201+1006743346+1003996832+1000873141+997266063+993124966
947+989762918+988487068+988520913+987777154+985644729+983580132+982582744
937+981978973+981321408+981204052+981336336+980498747+978942921+977812562
927+976796188+975123763+973410270+972427809+972009428+972237948+973463238
917+974886162+975500113+975788138+976494887+976953511+975900816+973052836
907+969374560+966395673+965187925+965560492+966608028+967994149+969837449
897+971392587+971069204+968426632+965188200+963582432+964395256+966417342
887+967096025+964550515+959570524+954986970+953251739+954887637+958413199
877+961064576+960487221+956832196+952691512+950627052+951250634+953272513
867+954839896+955018200+954283591+954012420+955452128+958369655+960830690
857+961513982+961677083+962742574+963587041+962297020+958917568+955067248
847+952313442+951938948+954187147+956897065+957272659+955047986+951961236
837+949046118+946273119+944071492+943798876+946162642+949382776+950648171
827+949594994+948234257+948140702+949686347+952728934+956360571+958921833
817+959631265+959471672+959846716+961936973+966530845+972345467+975930877
807+975331371+972064460+967983349+963489359+959750960+958907525+960777997
797+962156688+960779441+957867418+956158259+957123728+960156753+963313738
787+965018426+965666704+966304526+966136884+963914757+961123254+960902988
777+964039886+967572396+967576111+963431713+958752334+957282702+958946873
767+960855042+961229673+960555598+959919496+960260007+962025849+964354051
757+965013129+962179114+956889223+952794353+952974308+957642268+964516739
747+970596135+974276062+975496605+974167786+970381166+966133101+964097532
737+964091273+963820996+963244879+964128832+965741204+965559873+964081711
727+964101454+965437358+965212070+963326120+963144445+966318972+970796039
717+973895171+974553768+972797418+969457452+966249150+964581196+964437837
707+964636916+964192463+963449461+963036651+962079506+959596870+956718004
697+954677208+952517060+949771234+948714343+950888110+953963923+955104394
687+954977201+955092012+954937234+953772480+952145387+951381955+951844018
677+951624577+948475504+942355522+935404900+929820656+926311879+925129376
667+927087006+930534629+931537520+929075453+926752686+927894189+929991118
657+928212068+922398340+916203377+911532872+907374166+902724986+898432896
647+896209530+896496798+897951158+899260991+900415564+901425128+901375462
637+899917317+899061912+900502653+901765570+900058544+897097198+894872388
627+891319241+884436308+877734844+876077140+880228348+885837563+887617507
617+885623763+881955943+875670797+867324836+862352755+865583689+875984342
607+887527117+894285952+894846179+890616481+882551046+872883215
##END=
