##TITLE=<SNM>
##JCAMP-DX=4.24
##DATA TYPE=INFRARED SPECTRUM
##DATE=2/5/2025
##SAMPLING PROCEDURE=Instrument type and / or accessory
##ORIGIN=Admin
##XUNITS=1/CM
##YUNITS=ABSORBANCE
##RESOLUTION=4
##FIRSTX=4497.3318
##LASTX=599.83466
##DELTAX=-1.4281778
##MAXY=1.7847217
##MINY=0.33136261
##XFACTOR=1
##YFACTOR=1.6621516e-09
##NPOINTS=2730
##FIRSTY=0.35407373
##XYDATA=(X++(Y..Y))
4497+213021318+212378636+211636963+211033925+211142383+211860263+212088529
4487+211086083+209556209+208802128+209327386+210561076+211466378+211425605
4477+210848654+210647534+211073460+211569690+211611305+211145826+210508057
4467+210295856+210947431+212213412+213321896+213686323+213276013+212477646
4457+211842817+211819472+212430723+213087175+212994513+212029343+210982806
4447+210651138+210901745+210941908+210404153+209866989+210118743+211099692
4437+211917227+211835233+210976710+210143451+210061941+210720258+211503242
4427+211925008+211865122+211264163+210226323+209157464+208284418+207463405
4417+206759044+206695805+207682796+209483538+211312485+212395939+212528316
4407+211972146+210927905+209576577+208401895+207813308+207665207+207647080
4397+207747147+207880976+207703398+207311735+207419226+208273929+209052556
4387+208850306+207763750+206556203+205726816+205271807+205049781+205001890
4377+204955756+204490742+203277332+201589136+200282023+200067778+200852196
4367+201847794+202311337+202165154+201847256+201660712+201575545+201585550
4357+201846664+202409145+203016236+203222179+202792649+201976979+201177482
4347+200559687+200280033+200589773+201355473+202004896+202159631+201781686
4337+200914646+200009829+199954264+201052008+202484791+203183935+202856318
4327+202060533+201537498+201429774+201245454+200710048+200131609+199810716
4317+199813406+200250036+201020559+201519299+201287392+200666944+200292082
4307+200312433+200523092+200836382+201178073+201259511+200972399+200747808
4297+200932809+201073542+200518645+199587488+199357626+200281396+201704569
4287+202781783+203264817+203260137+202849935+202229343+201694582+201334728
4277+201085519+200900912+200675192+200353815+200176864+200471023+201205345
4267+201983057+202420602+202469264+202418451+202496267+202505590+202104838
4257+201429093+201138161+201750290+203022206+204109336+204430551+204095548
4247+203368129+202342679+201400011+201232814+202052948+203233493+203949598
4237+203911335+203423067+202919163+202549895+202133490+201450071+200695202
4227+200552425+201451667+202762293+203276848+202694375+202004699+202120293
4217+202751625+203069147+202955507+202932825+203114456+203019947+202404017
4207+201624494+201210204+201452940+202223390+202984697+203291837+203253126
4197+203195320+203149455+203002465+202874947+203024250+203438217+203706396
4187+203450571+202858201+202497253+202554772+202662567+202586598+202634256
4177+203159908+204053968+204966388+205723625+206285783+206542450+206386442
4167+205895286+205292983+204731524+204167035+203494643+202851387+202643687
4157+203074849+203859321+204609241+205178858+205452900+205205933+204475573
4147+203790667+203662593+203935613+203951516+203392245+202646538+202234866
4137+202234059+202395984+202518822+202602286+202813986+203297234+203911873
4127+204280137+204200492+203864269+203578179+203456990+203472750+203594298
4117+203753175+203831977+203802823+203793858+203900864+203960643+203705195
4107+203237402+203048456+203397624+203994656+204467415+204829995+205227807
4097+205502548+205327552+204662852+203880101+203420108+203363001+203395096
4087+203232453+202950899+202803030+202880488+203052669+203118275+203006787
4077+202880470+202965225+203282227+203664673+203953489+204030606+203814155
4067+203413958+203148308+203211152+203402375+203393231+203254561+203393626
4057+203833197+204010094+203605701+203106710+203142893+203644394+203986032
4047+203790954+203354233+203202869+203405531+203675341+203983503+204399945
4037+204518749+203901079+202947008+202550505+203021507+203836137+204276300
4027+204058648+203470402+202999220+202857018+202967072+203302488+203940669
4017+204747535+205233957+204954053+204058971+203212407+202873657+202913479
4007+203000798+203083616+203368685+203985619+204744075+205222590+205148252
3997+204657419+204140695+203909327+204046545+204480719+205080710+205669494
3987+206031159+205997594+205583825+205066438+204858773+205204427+206036843
3977+207165678+208333170+209049723+208880912+208076287+207374957+207082411
3967+206948869+206914712+207214017+207761527+208191075+208470962+208840821
3957+209301944+209753564+210387567+211478337+212904791+214017202+214079580
3947+213255412+212828894+213609439+214565680+214038234+212132763+210647803
3937+210933517+212871549+215481417+217738459+218816444+218355053+216983858
3927+215953513+215832019+216032190+216009741+216277149+217540476+219415036
3917+220371690+219063376+215863487+212555569+210561452+210241205+211791824
3907+215835946+222452426+229858901+235036752+236399914+234488848+230245991
3897+225020320+221229101+220867381+223401710+225575665+225083272+224149982
3887+225753763+228866262+230229710+229862648+230098391+230154225+227890388
3878+225169641+225521032+229244244+234097258+238443733+240992173+240113999
3868+237030600+235162137+235272298+234768896+232027476+228959121+228287734
3858+231333318+238482784+248568641+255098699+250982821+240787520+232164390
3848+228027624+228241672+231291218+235470066+240022377+244937590+249191223
3838+250350969+247703807+243714569+240514124+238125010+236097381+234811875
3828+234616958+235354866+237829649+243580399+251133397+254946886+253212072
3818+250139252+247543657+243656368+238716125+235443529+235609238+239103286
3808+243774258+246725458+248422601+251847135+256510809+258093774+255943290
3798+253603214+252204533+250562059+248705913+247954378+249016406+251829367
3788+256148193+261278172+266046413+270214306+275053083+281300619+287569168
3778+292377716+296740095+302901387+312504712+326178606+342556519+358141532
3768+370768746+381226829+390144155+397387610+403729295+409633131+413769467
3758+415388184+416837929+421655245+431648655+444916507+455734552+461467408
3748+466963086+476991029+490363879+500362632+505015386+510236198+520868094
3738+537398662+555437499+567477328+569714521+565669772+561708146+561670063
3728+565104619+568424209+568828135+567259371+565395479+562850536+559750696
3718+558026227+558853014+561686235+565067935+566294488+562961988+556869565
3708+551835440+549704536+550290630+551687518+551232850+548964996+548195012
3698+550912334+555975003+561697711+567931314+575102476+581853359+584476262
3688+581212327+575288517+570662801+569525037+572703698+579338215+587481432
3678+595456860+600415213+598717425+592878782+588604027+585963123+581185504
3668+574126010+567947631+563636334+560022048+556460403+553962472+553915532
3658+555985080+557956874+559126984+562115120+569113688+577713581+580365423
3648+572703662+560318825+550145469+544240558+541402675+540017298+539672110
3638+540515643+541874412+542806017+544207997+548383420+555149257+559630027
3628+557325022+551592454+548021665+548300117+552408195+559308220+565960166
3618+570013378+572710511+575665549+578105351+579337964+580595751+582377488
3608+582921411+581533883+580385648+581551526+584806855+588487339+591524855
3598+593827313+595377108+596545891+598723449+603254423+609986336+616829702
3588+620252103+618151858+612704734+607814300+605397915+604943354+605134631
3578+605659979+607021724+608918069+610273072+610786587+611469432+613666498
3568+617311014+620048777+619671028+616989853+614379322+612912650+612050362
3558+611126611+610333532+610435088+611639192+612883460+612948080+611953756
3548+610761270+609396943+607437412+605220265+603477831+602687836+602716668
3538+602394932+600302147+596684417+593731352+593474989+595896862+598943235
3528+600266968+599310404+597336674+595609910+594567857+594233857+594324977
3518+594273518+593997863+594308087+595661979+596954299+596404853+593518559
3508+589724435+587250709+587322071+588891158+589710199+589289490+588883197
3498+588431075+586726222+584309729+582859876+582225227+580847596+578536818
3488+576744144+576306222+576346493+575730527+574700522+574133290+573751704
3478+572449235+570049847+567482456+565574600+564739207+565352734+567140639
3468+568663969+568575287+566914685+564536096+562219257+560714109+560401374
3458+560573143+560039583+558595755+557088885+556305740+556464994+557218841
3448+557626138+556933360+555576313+554375113+553251334+551927780+550873928
3438+550270370+549322914+547858359+547036270+547552402+548584845+548989094
3428+548504483+547562586+546611473+545831376+545106683+544147394+542812436
3418+541435020+540803061+541418345+542542698+542578593+540857675+538407259
3408+536582777+535724864+535348873+534909696+534323852+534165853+535036604
3398+536603217+537663846+537232631+535421919+533450304+532760216+533643051
3388+534856982+535016451+534035359+532812464+532043734+531769729+531696754
3378+531621735+531545174+531371468+530710068+529275599+527426696+526162060
3368+526476946+528593686+531574471+533768203+534158251+533117488+531553744
3358+529919535+528461435+527763636+528261300+529473761+530421897+530613174
3348+530151442+529296326+528473591+528304153+528955943+529573917+529212987
3338+528321079+528164156+528881355+529200831+528241613+526740768+526037985
3328+526339352+526517540+525755337+524822369+524862317+525486100+525328603
3318+524000387+522333116+521287368+521430557+522716781+524292897+525109141
3308+524782564+523721254+522862050+523121066+524384089+525169385+524090217
3298+521645358+519741949+519484403+520253276+520978435+521404487+521820104
3288+522499219+523738610+525504353+526967725+527389330+527252489+527485758
3278+528067011+528340730+528094157+527500855+526554332+525226367+523787164
3268+522618346+522036913+522317266+523336082+524217914+524112306+523235352
3258+522415880+522011237+521903801+521921910+521742395+521016518+519941796
3248+519281005+519616905+520644149+521334955+521105236+520436269+519871296
3238+519190602+518140337+516980806+515809513+514466020+513251696+512633363
3228+512493007+512473105+512475364+512317795+511564557+510076227+508406409
3218+507376619+507212704+507360196+507326918+507214855+507076400+506521037
3208+505380656+503994311+502699839+501681273+501114973+500950950+500789329
3198+500269862+499359737+498211215+497027515+496129941+495916502+496520599
3188+497515784+498142830+497858138+496561300+494530875+492382865+490796421
3178+490015284+489668806+489038890+487474250+484867663+482016727+480235456
3168+480205334+481270589+482098057+481963761+481153112+480209888+479258811
3158+478142061+476787237+475312139+473974025+472982749+472279285+471655501
3148+471150844+471040754+471219516+470922811+469564365+467681755+466381725
3138+465899659+465427492+464447404+463510133+463379710+463901293+464054056
3128+462996798+460943960+458985936+458066272+458247688+458890979+459264640
3118+458996228+458204118+457226648+456204604+455114570+454054371+453112187
3108+452165270+451189915+450454070+450120895+450074958+450239555+450570256
3098+450734171+450323217+449451175+448720529+448442865+448214868+447537689
3088+446547381+445736875+445300173+445161968+445196107+445019246+444106611
3078+442492734+440961766+440370400+440884739+441738421+441893013+441224548
3068+440564725+440281109+439722626+438527379+437460976+437284725+437606352
3058+437485110+436631679+435442887+434248895+433137990+432241240+431616776
3048+431063493+430478545+430098502+430026782+429921963+429498171+428922798
3038+428393111+427747596+426844679+425921178+425243175+424765807+424376763
3028+424076292+423773922+423321549+422775760+422277666+421785775+421191074
3018+420455766+419492246+418305282+417309667+417014037+417362094+417740847
3008+417568360+416656155+415221866+413771690+412751188+412164412+411719319
2998+411290362+410949836+410684544+410379412+409923561+409189006+408172484
2988+407179666+406534188+406140445+405617285+404785944+403821814+403049463
2978+402711949+402792096+402921586+402567362+401565077+400461631+399977665
2968+400112068+400186370+399751425+398974412+398182302+397515235+397002582
2958+396623291+396242674+395640801+394751367+393880544+393477371+393631712
2948+393988913+394079244+393535679+392259030+390642070+389367787+388821891
2938+388904799+389322353+389712688+389593920+388651628+387187503+385935705
2928+385293597+385019985+384716180+384200227+383360675+382178552+381011240
2918+380328000+380090464+379845110+379429171+379155524+379238109+379403316
2908+379223765+378648106+377999973+377558753+377312969+377025910+376451004
2898+375577635+374684221+374065493+373782379+373721597+373715752+373553270
2888+373044740+372179763+371202114+370489649+370240494+370237266+370093647
2878+369781128+369635644+369718266+369483132+368414183+366867078+365855326
2868+365918727+366542044+366866720+366703629+366496717+366448951+366185847
2858+365384162+364293698+363376724+362755307+362280342+361869387+361513513
2848+361164739+360808794+360463821+360037160+359406240+358660210+358025489
2838+357558629+357142223+356738727+356386332+355990761+355399538+354660967
2828+353976975+353458189+353113862+352958947+352935208+352803817+352291414
2818+351370531+350309006+349376791+348596550+347914028+347456169+347342421
2808+347352426+347107503+346530732+345862769+345276997+344701516+344020500
2798+343281427+342651906+342263149+342104576+342005101+341739127+341205137
2788+340472268+339675424+338956182+338444568+338165721+337975879+337670890
2778+337166484+336579995+336162263+336087781+336260268+336345507+336025529
2768+335263397+334352950+333640628+333173732+332733587+332180304+331559604
2758+330910504+330193556+329418623+328739794+328392025+328439360+328562360
2748+328304562+327569255+326656512+325855329+325236279+324760992+324380231
2738+324053403+323742605+323358330+322784643+322059555+321437780+321146633
2728+321108980+320980745+320492691+319738485+319049006+318575512+318162441
2718+317692210+317309549+317121356+316921652+316480395+315903660+315450928
2708+315170755+314902272+314457537+313735569+312880309+312288369+312189001
2698+312292386+312107599+311509779+310760414+310076385+309427643+308743723
2688+308116353+307723651+307650425+307836179+308110544+308243871+308070847
2678+307618115+307039515+306440870+305849360+305311282+304881214+304498265
2668+304006446+303372658+302790436+302486738+302480714+302574165+302530846
2658+302267311+301912764+301626100+301350086+300908292+300328006+299822309
2648+299455175+299084276+298623351+298127300+297648552+297187178+296758813
2638+296413052+296188874+296069550+295988883+295902837+295806051+295653395
2628+295369940+294979228+294610301+294347233+294142921+293870906+293446396
2618+292936288+292516655+292271140+292110219+291920269+291686623+291444891
2608+291192653+290866166+290422059+289973074+289729836+289701561+289601261
2598+289184712+288548897+287977469+287620340+287412729+287224411+287037007
2588+286978286+287139709+287374449+287396269+287102182+286667972+286295549
2578+286006464+285715263+285354243+284886576+284355670+283958216+283871830
2568+283954451+283838175+283411585+282965183+282752139+282673660+282529825
2558+282329727+282201851+282187256+282236617+282286695+282262382+282057891
2548+281596732+280964163+280415614+280129684+280011956+279882950+279758839
2538+279766943+279889405+279977746+279949165+279818133+279599155+279313190
2528+279054263+278930546+278954393+279062726+279179880+279204426+279064178
2518+278853286+278770683+278872668+279017740+279069539+279020985+278914194
2508+278747374+278511110+278267263+278108672+278024850+277886359+277580133
2498+277116428+276633287+276316752+276242522+276297226+276317702+276246412
2488+276110665+275962653+275858013+275784465+275631253+275317066+274920491
2478+274645320+274652994+274891391+275110083+275107806+274909016+274650771
2468+274430161+274327565+274420747+274658750+274807730+274639726+274189128
2458+273747782+273558693+273570329+273557599+273415755+273240543+273170742
2448+273248397+273396803+273468577+273354542+273092926+272833461+272682061
2438+272644085+272710569+272891303+273129610+273280419+273245797+273092585
2428+272959240+272858850+272687906+272450854+272310821+272348312+272427867
2418+272386700+272239316+272152589+272293106+272676323+273121560+273408081
2408+273471553+273390007+273246012+273094486+272995369+272986171+273056492
2398+273193728+273428413+273795996+274233756+274554344+274609926+274447965
2388+274177976+273720528+272822398+271261093+268914275+265723279+261723660
2378+257075047+252022652+246862300+241878343+237223921+232905794+228924821
2368+225376983+222420601+220173330+218663358+217999035+218574462+220889328
2358+225119078+231014380+238342895+247255988+257509311+267292600+273940368
2348+275892600+273783624+270125552+267340527+265697478+264124877+262167032
2338+260078352+258023955+255915821+253739661+251798509+250561485+250183485
2328+250288358+250338257+250107445+249792558+249813788+250527095+252008344
2318+253987077+255964107+257520679+258625272+259572405+260591006+261670946
2308+262772150+263935859+265118161+266142930+266894465+267407907+267759299
2298+267992621+268156089+268324433+268546550+268786560+268974448+269128090
2288+269329067+269554447+269662350+269583709+269406166+269236656+269075125
2278+268867532+268633259+268453565+268333040+268204338+268086592+268050948
2268+268016737+267813519+267462361+267188929+267164418+267370254+267653942
2258+267826016+267784795+267599883+267407100+267238810+267057036+266924659
2248+266988776+267257116+267542310+267698534+267771886+267850885+267922157
2238+267939674+267904227+267823829+267695612+267558196+267495137+267553786
2228+267676265+267729589+267632355+267468780+267430051+267588265+267768981
2218+267730647+267426035+266999463+266619132+266433593+266564320+266963029
2208+267362383+267517424+267441024+267321467+267277359+267266637+267196226
2198+267054490+266929894+266939505+267136645+267441239+267673396+267722291
2188+267663194+267649711+267736546+267850795+267883213+267785566+267626509
2178+267537900+267573437+267656470+267668717+267555381+267377193+267276319
2168+267325268+267434013+267504371+267598395+267823883+268132045+268361297
2158+268427889+268397588+268397928+268473808+268518382+268398914+268164893
2148+268033215+268132654+268356080+268514115+268560195+268595911+268697897
2138+268813975+268836262+268736016+268607745+268593347+268770388+269087138
2128+269383019+269518695+269539691+269662063+270009617+270421307+270622463
2118+270537135+270341178+270255993+270372717+270647314+270994474+271352267
2108+271672030+271912650+272078126+272218912+272381196+272583984+272833174
2098+273130543+273469527+273809891+274074986+274225526+274296062+274297353
2088+274177330+273970687+273860741+273987129+274291078+274613369+274839735
2078+274923145+274889060+274859063+274955060+275137444+275265213+275370139
2068+275688934+276290646+276856139+277017598+276777337+276426053+276213941
2058+276229522+276438353+276725537+276982939+277184114+277342776+277456793
2048+277536581+277633367+277819605+278143815+278548925+278850650+278905516
2038+278795874+278748593+278871969+279049906+279121877+279112015+279196537
2028+279458584+279800042+280105551+280355961+280598894+280943812+281492936
2018+282105513+282385597+282132336+281653104+281424407+281601860+282004083
2008+282431300+282831408+283198398+283483000+283689410+283928955+284238426
1998+284519908+284887580+285775813+287278021+288653536+289053195+288540542
1988+287829296+287383700+287251413+287342336+287492966+287531425+287468993
1978+287458935+287562086+287689012+287750225+287840054+288260565+289179225
1968+290195836+290554328+289997029+289091888+288531164+288470902+288674102
1958+288954598+289253437+289465818+289452191+289242428+289100423+289289925
1948+289885110+290954883+292606825+294393958+295133283+294196012+292477640
1938+291221233+290702698+290543355+290493133+290520010+290615469+290774275
1928+291089968+291854824+293247803+294792649+295802321+296446904+297254398
1918+297704619+296810254+294974728+293699854+293806752+294853252+295784517
1908+295886772+295309588+294679314+294360358+294318724+294480686+294930835
1898+295776341+296820887+297558095+297925463+298638161+299981438+300921058
1888+300474673+299222570+298291646+297969929+298009052+298240833+298524503
1878+298732454+298903184+299218410+300159841+302577607+306730438+310906543
1868+312145432+309709036+306043219+303545216+302645885+302631433+302879333
1858+303166320+303441115+303691847+303955274+304416971+305398923+307187222
1848+310056519+314069998+317963706+318987650+316267567+312576289+310616185
1838+310552605+311061565+311462587+312678239+315849727+320157796+322965306
1828+323214030+322490161+321670726+319977599+317490570+315668132+315304405
1818+315827709+316446651+317189275+318633784+320783229+322534628+322761657
1808+321781677+321039842+321754495+324218646+327623941+330284174+330908998
1798+330101253+329983489+332329481+336828432+340243661+339160727+334896156
1788+331578252+331073810+332428096+334202087+335970268+337503747+338314934
1778+338853335+340758717+345298441+351673655+356433272+356475336+352934957
1768+348688352+345384792+344246131+345929289+348955867+350723475+351017957
1758+351381074+351893118+352259033+354058771+358910154+365370034+369391546
1748+369066260+366490370+364394285+364021772+365294082+367071408+367956503
1738+368650393+371982139+378728683+383962942+382234422+376331160+370935495
1728+367352514+365836213+366378379+368156601+370909963+376131563+385031174
1718+394998191+399460063+395874500+389010837+383526885+381191436+382460770
1708+387014658+393041243+397998627+402024693+407970055+416269047+422269275
1698+422840559+419941463+414584312+408052712+403950408+404103816+407391025
1688+412802324+421462032+432940617+439844980+436249197+428376795+423399078
1678+423404528+427378383+432233136+435525006+438514039+442696275+445270660
1668+442860837+438540037+437495509+440289285+443146461+443100381+442033189
1658+443824106+451101449+464598195+479539056+483708777+478223750+476020695
1648+479591197+482175514+477713033+470169860+465890085+466708301+472305212
1638+481776537+491686465+494891948+489366220+482594358+480300936+482535548
1628+486552398+490258451+493685799+496513821+497226143+496707895+498345582
1618+503216043+507440952+506636363+503031794+501148718+502108293+504373350
1608+506146193+507055745+507921296+509302298+510792135+511761931+512389515
1598+513478330+515403471+517654004+519454531+520574724+521325990+522011882
1588+522695445+523390374+524219743+525336062+526916517+529510732+534111167
1578+540862624+546724934+547107273+543801094+542928873+546256209+550141883
1568+550816050+549678035+549759545+552332818+559005060+572323546+589697863
1558+596939095+589620083+580428895+575438627+574123787+574853249+576352159
1548+578888783+584525498+594724206+608357363+622686060+633550472+634695192
1538+627741378+622792707+624328301+629481588+633075327+634691391+638427207
1528+646177614+656028481+665847217+676081068+686737421+694650775+698061270
1518+699261789+699662631+699161883+699135634+701828930+708534163+719637976
1508+733254566+740976930+735602029+725644299+720456730+721162668+725367030
1498+729722721+731317412+730279339+730147303+733921059+740978939+746798719
1488+746998028+742668300+738213708+736450690+737386491+739545761+742270900
1478+746478992+752998327+761087395+767969203+769507523+764983075+759642312
1468+758307892+761173388+764777885+765912851+766067192+769393560+777657051
1458+787224122+789473114+782269642+773399831+767753111+765578278+765649137
1448+765830087+764220406+761266552+758891979+758064331+758913853+761886642
1438+766641095+769996724+768704188+764778458+762038544+761088256+760377727
1428+759467746+759559189+761035614+762806879+764544795+767357863+770709763
1418+771105800+767263838+762389111+759159494+757526074+756385585+755484209
1408+755532692+756631655+757411466+756836272+756191224+757437285+760743212
1398+764789647+768169660+769360640+767316409+763832975+762538647+764765477
1388+767993731+768541097+766448886+765503690+768199926+773663617+779833247
1378+785957047+792463258+798983168+803711013+805640492+806218196+807323901
1368+809478222+812778340+817405706+822082199+823990091+822136204+818850430
1358+816512793+815386935+814661488+813756814+812488018+810823185+808954739
1348+807426102+806882393+807672746+809696179+812428132+815014422+816494720
1338+816321229+814984299+813876730+814203844+816025672+818400388+820403381
1328+821879447+823342317+825448801+828548032+832534509+836903611+840782867
1318+843353737+844805706+846402405+849048581+852228425+854750597+856256212
1308+857554772+859486045+861913404+864200550+866246574+868296902+870038690
1298+870916398+871268758+872076610+873429175+874065546+872829812+870056692
1288+866930567+863936621+860731173+857239133+854080590+851840994+850448553
1278+849373544+848242593+847262757+846954074+847314251+847548847+847046234
1268+846333482+846410007+847320491+848088324+848080507+847775410+847944239
1258+848708773+849792675+851140363+852762236+854360800+855670046+856975993
1248+858835474+861383394+864104947+866174711+867102623+867190479+867208768
1238+867683984+868744434+870405179+872559644+874878634+877084952+879097626
1228+880846802+882429301+884321056+886772871+889220527+890946537+892075981
1218+893308344+895048985+897417533+900437872+903657807+906290356+908110965
1208+909683782+911507761+913526532+915484628+917234951+918913985+921054607
1198+924000429+927087898+929088093+929754155+930408240+932517593+935945731
1188+939000424+940426501+941098803+942983960+946651140+950634676+953136839
1178+953935009+954425215+955854376+957912163+959153203+958907706+958525511
1168+959950513+963041926+965514755+966188922+966787209+969435393+973863593
1158+978073908+980740524+982145086+983352274+985094278+987572199+990731459
1148+993896457+995641903+995294564+994233325+994391324+995998423+998062377
1138+1000083586+1001749352+1002112039+1000984890+1000144620+1001389390
1130+1004391583+1007791463+1010887897+1013064953+1013814785+1014063868
1121+1015187431+1016769571+1017244572+1016731631+1017170055+1019431382
1113+1022297953+1023940051+1023763764+1022940994+1022837717+1023531248
1104+1024117630+1024252391+1024979201+1027666257+1032054007+1035500576
1095+1035469952+1033199445+1032702928+1035931971+1040229569+1041506183
1087+1039309762+1036919984+1037388960+1040810428+1044894014+1046898225
1078+1045707891+1042324650+1038326554+1035199425+1034476202+1037144396
1070+1042532637+1048766743+1054620088+1059919254+1064018546+1065537286
1061+1064651043+1063911540+1065767148+1069585585+1071916983+1070475844
1053+1067348356+1066637397+1069492206+1072787949+1072780490+1069634426
1044+1066890926+1066651095+1067012922+1065108114+1061359675+1058446343
1035+1057355197+1056977018+1056486167+1055916640+1055684483+1057264256
1027+1062266286+1069201310+1073460036+1072327077+1068242344+1065916253
1018+1067412617+1070748881+1073079562+1073741823+1072943868+1069929410
1010+1064925587+1060571044+1058967603+1058955339+1057753529+1054465675
1001+1051019823+1049939219+1051871783+1055282851+1057975215+1059137005
993+1059583892+1059399643+1056854377+1050932970+1043791608+1038705522
984+1036881040+1037793102+1040508272+1043463203+1044017884+1040063538
975+1032806491+1026141206+1022501853+1020971351+1019812143+1018558623
967+1016878801+1014089041+1010932578+1009260358+1009131406+1008055823
958+1003929923+997924173+993455236+992492684+993571638+993308498+989495511
948+982922816+976499943+972557072+971105462+970703472+970377434+969829924
938+968313695+965104446+961187322+958606841+958060336+958477387+958914089
928+959410319+959753355+959067211+957338404+955689492+954717545+954278404
918+954798301+956733519+958807298+958601104+955467017+951516400+949132934
908+949003408+950358196+951817050+952287030+951673754+950627002+949831127
898+949777624+950572424+951362274+950807952+949017322+947759355+947850798
888+947782306+946041880+943593507+942689550+943918542+945537402+945605751
878+943898962+941626446+940142276+940044521+940717182+940708432+939140779
868+936610933+934587357+934282763+935694783+937521632+938128310+936495751
858+932913559+929376765+928155304+929247885+930483618+930554119+930601597
848+932302864+935339483+937434205+937000372+935138954+934150009+934684250
838+935409697+935427627+935646014+937042041+938953375+940202879+940810561
828+941228043+941121180+940350120+939735624+939927403+940704559+941679447
818+942728422+943811464+945298001+947871956+951368944+954322655+954862060
808+952502047+949242666+947909250+949136449+950963655+951345133+949869139
798+947367335+945238402+944467916+944767920+945427743+946499883+948290154
788+950211242+951089667+950738097+950389825+951274920+953282646+955330391
778+956470522+956087466+954292533+952454209+951879518+952068213+951633591
768+950709265+950661356+951464332+951296938+949321342+947020210+946168394
758+946965560+948384394+949378933+949870358+950835922+952763179+954717760
748+955834223+956405472+956753457+956617045+956095570+955785884+955762432
738+956257657+958214032+961330762+963432297+963005134+960945770+959171133
728+958758457+959497602+959765619+957070458+950519853+943389966+940990363
718+945058672+951324765+954133243+953368781+953725587+957473954+961810639
708+963270856+961922953+959602457+956671409+952434630+947005651+941547411
698+937208503+934402320+932581854+931001292+930233674+931571824+934639426
688+936832691+935418088+930304031+924234666+919569648+916719213+915521492
678+915677339+916090732+915428901+912700391+906599039+896217086+883961954
668+878075690+885451146+899017317+908147327+909462311+904085903+895722936
658+889116605+886654175+886888268+887551247+888306242+889251438+889339366
648+887645056+884355194+880432046+877679366+878067442+881159429+883291302
638+881687072+877081079+871477319+866611055+864277147+864736226+865555697
628+864996210+864529744+865693471+867402125+867953005+866894133+864600388
618+861533503+858202116+855817645+855040489+854129073+851304816+848202645
608+848016532+850891997+853023511+850902253+845264283+839681250+837729035
##END=
