##TITLE=<SNM>
##JCAMP-DX=4.24
##DATA TYPE=INFRARED SPECTRUM
##DATE=2/5/2025
##SAMPLING PROCEDURE=Instrument type and / or accessory
##ORIGIN=Admin
##XUNITS=1/CM
##YUNITS=ABSORBANCE
##RESOLUTION=4
##FIRSTX=4497.3318
##LASTX=599.83466
##DELTAX=-1.4281778
##MAXY=1.8104576
##MINY=0.27585489
##XFACTOR=1
##YFACTOR=1.68612e-09
##NPOINTS=2730
##FIRSTY=0.29585236
##XYDATA=(X++(Y..Y))
4497+175463407+176164931+176113161+175931319+175931089+175781487+175268875
4487+174649893+174231364+174157129+174441256+174835322+174917936+174573643
4477+174174504+174144385+174543560+175087281+175366282+175159059+174669972
4467+174291248+174203650+174491577+175322872+176481562+177168310+176897086
4457+176122988+175551535+175362729+175326425+175139758+174585503+173850784
4447+173620584+174390334+175654563+176203109+175488293+174271946+173559411
4437+173468207+173479166+173223937+172736706+172338999+172338610+172615243
4427+172682267+172306476+171753388+171329132+171012306+170645407+170247258
4417+170027433+170116338+170366600+170569245+170706881+170742054+170464591
4407+169928063+169728582+170385636+171545882+172166932+171613012+170410470
4397+169688106+169914966+170485606+170624038+170255583+169689061+169052298
4387+168495427+168328980+168514940+168586489+168322635+167936045+167611990
4377+167479622+167766488+168395315+168881486+169042276+169171870+169332819
4367+169256233+168944286+168590360+168056342+167138280+166175430+165805596
4357+166186141+166844220+167271409+167369188+167291453+167149469+166953682
4347+166586800+165862687+164907260+164277885+164353216+164863532+165292895
4337+165416090+165264526+164921683+164529738+164320005+164484189+164976034
4327+165460755+165563819+165221311+164724765+164414832+164333632+164200292
4317+163852517+163603351+163839755+164393551+164802782+165087616+165623737
4307+166262073+166297971+165550244+164882656+165235893+166460176+167482697
4297+167502564+166762861+166166681+166302036+166906083+167307042+167250429
4287+166992885+166716464+166320489+165827991+165557014+165718193+166127884
4277+166445505+166483383+166226422+165809980+165556324+165745554+166318439
4267+167007732+167618018+168010281+168050191+167765304+167458323+167565964
4257+168324226+169447460+170231668+170200931+169597168+169082682+169031707
4247+169203049+169146701+168855539+168699539+168727589+168602379+168294160
4237+168121280+168048512+167703830+167098688+166642388+166489923+166500263
4227+166771929+167610276+168854355+169715414+169577390+168762002+168200695
4217+168411064+169181203+170140677+171041859+171418020+170730353+169183412
4207+167811719+167469706+168095351+169051361+169831381+170309050+170471413
4197+170144548+169255968+168251670+167766506+167905538+168258545+168502903
4187+168609502+168644339+168701377+168838359+168925550+168756205+168363694
4177+168096146+168341530+169165825+170188417+170895456+171094867+170956100
4167+170723389+170599770+170728975+170985847+170973598+170539268+170054953
4157+169866572+169788165+169561023+169429096+169713506+170148489+170223308
4147+169911661+169526644+169203190+169037628+169265248+169758489+169891653
4137+169434487+168977762+169037893+169392455+169647312+169887075+170437460
4127+171283407+171951296+171983164+171454184+170869916+170603870+170693978
4117+171045412+171460883+171621973+171369220+170909420+170603181+170613168
4107+170750485+170654015+170282484+170101686+170502362+171229851+171686629
4097+171569302+170975083+170199093+169638634+169607897+170039381+170533612
4087+170821787+170997601+171199539+171259634+170861131+170029306+169285079
4077+169173708+169721070+170481612+171018723+171177056+171016036+170662004
4067+170188453+169599802+168976914+168558774+168576326+169049647+169774432
4057+170439952+170806392+170850137+170698096+170429135+170060485+169754017
4047+169836171+170418353+171097094+171295232+170897436+170316915+169972516
4037+169874914+169712321+169319722+169023488+169286564+170018312+170667960
4027+171012819+171338341+171825555+172240725+172286451+171986487+171703473
4017+171772919+172060616+172085379+171632437+170957372+170392123+170089172
4007+170130514+170559718+171284273+172117547+172870559+173324031+173295893
3997+172917964+172663089+172825028+173155906+173345542+173544988+173984390
3987+174430669+174516835+174302029+174080119+173916165+173743373+173710727
3977+174049788+174671934+175194091+175313999+174971933+174328100+173819358
3967+174006838+175066848+176541393+177733012+178261391+178205255+177851134
3957+177424970+177065954+176975228+177468310+178700175+180235150+181199963
3947+181316636+181383572+182003225+182394781+181415864+179392986+177839840
3937+177841820+179571716+182554670+185607883+187108763+186445223+184917989
3927+184240343+184684130+185168233+184950228+184703572+185460508+186994158
3917+187740153+186487289+183812712+181278546+179901887+180058294+182216351
3907+186878775+193488905+199795023+203406839+203994218+202224075+198017793
3897+192220770+187776440+187276959+190350321+193548841+194015304+193437205
3887+194784948+197514778+199040297+199448627+200267408+199988831+196798442
3878+193382607+193285270+196432868+200790573+205049191+207623197+206735624
3868+204154708+203349325+204252204+203851456+201051422+198047381+197269695
3858+200093043+207260380+217356480+223119160+217825311+207145174+198758450
3848+195252366+196428184+200741719+206240934+211746618+216883176+220626194
3838+221093435+218169110+214195661+210852153+208061291+205781558+204742086
3828+204982945+205814858+208022742+213305508+219956309+222521017+220121712
3818+217265948+214820688+210348536+204716935+201482888+202609534+207595429
3808+213614274+217517022+219961629+223511052+226975882+226816311+224140126
3798+222410760+221384155+219387524+217262802+217045045+219228979+223063589
3788+227971767+233588151+239205807+244645103+251070175+259307580+268030590
3778+275568804+282917275+292598505+306051811+322656002+339003905+350327380
3768+355573417+357781354+359294908+360840488+362891718+365149675+366418746
3758+366710916+368219378+373376015+383001126+395154271+405317801+411734954
3748+418366824+428458735+439679094+446273740+448997613+454534264+466517303
3738+483891492+502087325+515869759+523695440+527889916+531213504+535464681
3728+542099026+551782218+562801364+571649867+575980582+576038627+574169416
3718+573310972+575282169+579939201+584723035+584941746+578226132+568379728
3708+560432053+556830542+557907167+561680339+564415099+564229546+563010071
3698+563358094+566310682+571509244+577602307+582773861+585424453+584683478
3688+581153763+576627667+572977690+571831355+573742527+577720624+582713236
3678+588309735+592482647+592465360+590651401+590766042+590238794+584349348
3668+574912017+566946667+562126069+559896533+559635684+561017169+563577654
3658+565799165+565375281+562751096+562369632+567986740+578453150+586175362
3648+583880711+574396717+564875465+559048129+557052682+557126635+557603332
3638+558261906+559468301+561059731+563367815+567989427+575280118+581219549
3628+580815709+576064327+572354891+572332620+576405350+583292519+589499905
3618+591891026+591128629+589505278+588120470+587912293+590137410+593946710
3608+596050470+594776308+592262238+591603488+594016915+598331263+602322652
3598+604897417+606497932+607455498+607636067+608222738+611419808+616840758
3588+619680792+616099324+609114340+604060891+603091872+605445699+608944306
3578+611356319+612165344+612616412+613644536+615272766+617839542+621476581
3568+624091151+622778740+618127434+613345474+610188774+608429466+607147174
3558+605376978+602829856+600698382+600550759+602347680+604838171+607180191
3548+608519750+607225015+602853258+597624684+594100554+592881291+593216799
3538+594250014+595013720+594677822+593347666+591696035+590068936+588487935
3528+587200658+586660755+587102526+588281137+589364443+589387668+588315355
3518+587234842+586770659+585925012+583677412+580990021+579475937+578908673
3508+578044891+577105531+577240392+578140867+577951602+575643695+572553241
3498+571182997+572474834+574349030+573895982+570840348+567279913+564887342
3488+563837336+563461352+563002047+562266268+561676768+561365439+560727369
3478+559223713+557191538+555598517+555108246+555423322+555510213+554489193
3468+552461366+550443118+549182177+548300473+547296528+546881764+547955844
3458+549667747+550167280+548938190+546973922+545309777+544345813+543847163
3448+543140549+541758604+539816006+537519941+534987949+532824094+532030906
3438+532930922+534529033+535114821+533571715+530399071+527607786+527056995
3428+528408185+529443874+528906516+527900521+527870933+528398251+527759191
3418+525139248+521817603+519994842+520412752+521630318+521979401+521326625
3408+520278598+519003446+517727093+517178599+517660917+518442969+518679108
3398+518363997+517845940+516950343+515168376+512584702+510175234+508829559
3388+508273536+507484272+506163519+505136844+505160599+505994015+506769421
3378+506776491+505923350+504790553+504044311+503745637+503604908+503778478
3368+504773939+506607552+508607524+510027470+510435058+509660924+508036548
3358+506536039+506015967+506252071+506173700+505238723+504064673+503507412
3348+503504903+503157163+502046071+500976163+500952054+501978588+503248366
3338+503782755+502826179+500647795+498805556+498587551+499506196+500052604
3328+499636992+499149372+499488521+500030934+499341146+497382605+495657799
3318+494979500+494664565+493969263+493058182+492458431+492350790+492488726
3308+492493110+492109949+491182254+489803102+488631385+488277742+488381106
3298+488256391+488186044+488871413+490072117+491042904+491683732+492140067
3288+492069968+491425640+491302091+492838340+495479351+497232614+496789606
3278+494624690+491973038+489830888+489000052+489848916+491632191+492834840
3268+492570527+491264125+489807132+488606181+487777184+487581096+487987588
3258+488236277+487530015+485988005+484461337+483646339+483668892+484229369
3248+484863905+485140803+484943266+484653571+484738164+485036873+484926439
3238+484190873+482987765+481259176+479211234+477817624+477696444+478036831
3228+477604321+476340658+475127865+474405413+473799688+472927952+471987885
3218+471361904+470940848+470276017+469312230+468516214+468262223+468376687
3208+468277353+467440650+465826278+463954345+462552922+462013620+462112565
3198+462255167+461999868+461318989+460391188+459304523+458055814+456729440
3188+455484230+454357195+453287181+452413466+452050596+452148233+452036173
3178+451025370+449200134+447315475+445990904+445268487+444763687+443985806
3168+442690328+441160761+440002371+439446702+438978983+437919008+436373569
3158+435253393+435198140+435831510+436277664+436070972+435306630+434220142
3148+432933078+431471277+429879034+428285413+426790489+425446405+424435849
3138+423910899+423554781+422783511+421529251+420362589+419771004+419718262
3128+419782917+419399474+418301356+416974239+416230825+416222164+416371519
3118+416250586+415920486+415492501+414941074+414199074+413101945+411610839
3108+410216593+409531047+409449247+409278187+408612154+407673572+406968477
3098+406808482+406927153+406642336+405709799+404705535+404242978+404260618
3088+404340651+404256553+404004541+403655706+403284529+402888960+402410460
3078+401808199+401021835+400025030+398999557+398224787+397747029+397360228
3068+396860341+396129759+395150700+394118475+393325394+392833142+392484342
3058+392170822+391820855+391326447+390772404+390421801+390221683+389701576
3048+388589071+387139466+385700502+384368684+383230832+382595766+382686510
3038+383171550+383280534+382542493+381257373+380051543+379240468+378823584
3028+378666169+378445125+377851560+376980708+376151393+375453015+374819363
3018+374297311+373941901+373652418+373254870+372576818+371497330+370150912
3008+369019176+368594232+368828285+369005920+368366930+366874834+365164310
2998+363816266+362983628+362607325+362595200+362733419+362667279+362128295
2988+361183950+360167739+359351291+358813686+358544034+358435792+358294250
2978+358075609+357904161+357659926+356900534+355453969+353805626+352676258
2968+352379034+352642711+352880299+352607679+351779212+350779792+350039170
2958+349678351+349528466+349388585+349197553+349010551+348849919+348538343
2948+347757175+346442926+345045851+344161107+343942537+344046855+344072590
2938+343854197+343368839+342593256+341580296+340555353+339790764+339431960
2928+339450519+339599096+339466144+338863070+338073488+337419580+336766875
2918+335799835+334570215+333454280+332750635+332503502+332522555+332481691
2908+332170432+331664006+331135627+330599470+329980984+329352493+328913231
2898+328734678+328664331+328480722+328027816+327265807+326358934+325634007
2888+325263361+325048502+324657317+324012990+323347381+322901439+322658936
2878+322429797+322156681+321983041+321959003+321841499+321337900+320494445
2868+319693410+319225727+318995668+318744505+318420839+318145143+317917806
2858+317607466+317202813+316846165+316561950+316156342+315515160+314833679
2848+314399332+314273909+314281156+314173868+313790354+313183286+312571833
2838+312121401+311860305+311737392+311576867+311125658+310369588+309615710
2828+309085846+308669492+308239881+307946899+307950505+308049909+307862730
2818+307297304+306608789+306046650+305651188+305326673+304940578+304400534
2808+303729764+303041991+302447542+302008705+301700840+301378553+300884675
2798+300243211+299656151+299254926+298949359+298607169+298263955+297983910
2788+297624434+297000044+296230718+295647829+295329625+294960498+294243490
2778+293266765+292321042+291553236+290984168+290655217+290513269+290309987
2768+289826945+289082382+288223072+287396496+286791673+286561154+286586588
2758+286518592+286172249+285696135+285233065+284653588+283811758+282859654
2748+282093669+281602072+281235243+280852224+280428852+279942363+279337875
2738+278666204+278076669+277619733+277224995+276860517+276529463+276178188
2728+275781895+275430284+275204909+275040849+274756527+274199974+273394662
2718+272530933+271790364+271223047+270791492+270455453+270216027+270095854
2708+270050323+269937025+269641728+269197729+268743533+268382961+268091233
2698+267766118+267368375+266943678+266506167+265993731+265361970+264695725
2688+264221591+264128213+264306855+264388532+264116247+263572155+263005792
2678+262565152+262232171+261934381+261647444+261383342+261147327+260940352
2668+260739298+260480570+260137037+259760433+259388991+258996958+258558598
2658+258084976+257634491+257315032+257170944+257083064+256910997+256664005
2648+256404075+256108265+255782973+255575220+255572727+255590297+255364603
2638+254897168+254400480+253986176+253617562+253293277+253083615+253026525
2628+253083863+253149049+253073381+252764085+252278374+251789286+251461802
2618+251345412+251354779+251351828+251262286+251115441+250980810+250878648
2608+250773145+250647776+250538986+250478378+250447694+250393537+250261911
2598+250041326+249785161+249560086+249387825+249256269+249147956+249061737
2588+249034535+249088250+249143502+249095938+248980343+248916607+248898455
2578+248793447+248555010+248299817+248181182+248248630+248383243+248351587
2568+248034602+247620669+247456432+247710070+248265333+248882194+249360057
2558+249593068+249566025+249346589+249084662+248925780+248850396+248700352
2548+248429870+248178195+248045702+247959359+247769900+247354094+246691242
2538+245961244+245469310+245366035+245502663+245600707+245497096+245197008
2528+244779416+244365766+244147656+244265513+244590682+244780671+244633367
2518+244267864+243930959+243762445+243770628+243904588+244089770+244255244
2508+244372324+244452215+244471817+244329585+243960547+243491468+243162959
2498+243073682+243125541+243228038+243373522+243476656+243371171+243059206
2488+242739941+242492048+242169778+241706249+241256311+240954792+240792270
2478+240755399+240823961+240856024+240728197+240510175+240299188+240039717
2468+239695813+239423422+239389875+239536207+239615939+239397299+238822805
2458+238078472+237509546+237347501+237489414+237627156+237595040+237476847
2448+237376294+237238039+236962997+236602178+236347409+236325103+236431366
2438+236423518+236188651+235864967+235662093+235616190+235577305+235418795
2428+235193809+235043146+235011526+235044118+235101191+235158547+235158353
2418+235087281+235038657+235094068+235221134+235348377+235429541+235417522
2408+235316774+235260391+235391452+235678106+235953590+236108707+236173751
2398+236264354+236501942+236975440+237782573+239122469+241341187+244908798
2388+250360892+258205998+268847391+282564357+299449211+319258002+341402980
2378+365242929+390359160+416379932+442543413+467670285+490649598+510852225
2368+527965106+541272256+549544127+552297058+550554683+545553764+537282246
2358+525015274+508553191+488181272+464764535+441545442+423852748+415663384
2348+418114495+430015804+447400952+463912949+474970733+480513853+482647060
2338+483005511+482200693+480536265+478631209+477089234+475855088+474140251
2328+470998504+466033925+459541723+452031896+443862469+435227516+426179638
2318+416752841+407219428+398049026+389479188+381197278+372552533+363157445
2308+353265934+343510452+334341958+325834514+317909746+310524669+303645136
2298+297206913+291157755+285497078+280266507+275494286+271132515+267087571
2288+263341866+259998658+257171687+254862047+252948348+251260995+249674126
2278+248171337+246845634+245808531+245045939+244374604+243623218+242829341
2268+242140366+241591042+241133805+240780410+240525941+240239817+239805788
2258+239282304+238799138+238384693+237990008+237605858+237258577+236938570
2248+236620842+236322116+236057590+235780127+235445060+235102040+234850205
2238+234723351+234670750+234631034+234571646+234483129+234410396+234455503
2228+234649487+234865229+234967320+234978155+234995848+235054900+235152431
2218+235300443+235494268+235706015+235932893+236215712+236609336+237126969
2208+237713729+238302009+238872737+239433250+239981124+240516609+241050662
2198+241576584+242055066+242454877+242815608+243229435+243730223+244251143
2188+244723917+245161428+245600795+246003151+246268613+246365137+246397076
2178+246510020+246764453+247090169+247295960+247188796+246778982+246279749
2168+245848423+245466376+245105893+244830179+244657264+244475758+244222934
2158+244045741+244112058+244331901+244472701+244492532+244581703+244933243
2148+245556148+246318245+247285055+248943809+251776242+255715118+260367290
2138+265540099+271208465+277288484+283725433+290534267+297674278+305092584
2128+312816103+320890897+329319052+338013322+346754750+355297474+363501331
2118+371290496+378520491+384835730+389691607+392697751+393845572+393305668
2108+391293218+388182897+384498101+380754375+377218544+373681122+369674074
2098+364926898+359358750+352903631+345669782+337975639+330135923+322428630
2088+315079681+308152283+301654708+295642138+290072823+284835288+279938545
2078+275450769+271392922+267782184+264584160+261718992+259245470+257305770
2068+255868608+254730297+253666080+252540477+251428644+250503353+249761635
2058+249120737+248626576+248278572+247957504+247682126+247574979+247629701
2048+247803783+248131815+248629652+249298371+250140589+251102362+252227929
2038+253748181+255767436+258113910+260586832+263043493+265339505+267460180
2028+269528006+271571529+273477646+275129083+276510762+277772251+279034376
2018+280008680+280130090+279214591+277657557+275949278+274307509+272731156
2008+271150332+269486576+267675374+265713792+263717515+261891307+260366954
1998+259104935+258080964+257460887+257282686+257074103+256271371+254963927
1988+253698196+252757952+252100226+251685940+251503833+251481722+251538017
1978+251598378+251587560+251472124+251268967+251120249+251369609+252212870
1968+253194544+253514463+253021046+252396708+252219127+252397309+252645132
1958+252985572+253522223+254095390+254467752+254649186+254849198+255227763
1948+255870376+256983730+258751804+260664355+261453672+260500949+258790442
1938+257644796+257346423+257455690+257680146+258010494+258439344+258901141
1928+259488255+260586072+262393951+264313590+265572604+266422404+267510624
1918+268338084+267887387+266582700+265965609+266791407+268437683+269729520
1908+270040478+269725508+269543631+269830020+270392707+271000253+271711215
1898+272725695+273937022+274841668+275297173+275928686+277011409+277619132
1888+276918261+275521770+274437775+273810380+273347540+272955471+272615137
1878+272299389+272100209+272221230+273131709+275589395+279696750+283661520
1868+284616523+281925685+277973447+275118071+273943968+273891279+274232001
1858+274505541+274614066+274675911+274779947+275055537+275803476+277347006
1848+279999860+283850679+287626591+288539969+285725670+281987848+279995406
1838+279885237+280398098+280922093+282328359+285637595+289945174+292596190
1828+292571268+291526935+290448596+288683508+286333375+284771039+284704669
1818+285455365+286116749+286768271+288182879+290430090+292296173+292593043
1808+291683112+291025599+291841640+294486859+298188694+301183632+302085698
1798+301524302+301714132+304410750+309135054+312532984+311384739+307292885
1788+304362073+304247821+305849078+307751094+309689592+311540669+312692908
1778+313380752+315252261+319803738+326426771+331658279+332214938+329094790
1768+325195913+322261424+321557602+323684233+327063675+329059864+329536879
1758+330152503+331082707+332068588+334611751+340149498+347056994+351363953
1748+351552723+349930221+349027554+349790305+352023694+354613236+356153514
1738+357302890+360901891+367789450+373199370+371855993+366417014+361282259
1728+357636878+355817546+356002286+357596049+360510388+366172250+375514842
1718+385676287+390111214+386523843+379740886+374313891+371995485+373303264
1708+377896985+383865827+388724427+392819674+398978135+407358142+413253492
1698+413798591+410871208+405264068+398538980+394637875+395333213+399347403
1688+405579710+414948568+426535756+432686970+428380293+420662324+416478594
1678+417460799+422254814+427601069+431181618+434473497+438910581+441598821
1668+439528785+436161009+436478170+440577554+444418139+445250989+445390799
1658+448819978+457932300+473224611+489933474+495952938+492277756+491792505
1648+497067352+501486619+499179101+494064461+492190618+495175729+502747172
1638+514328032+527009131+533921575+532442948+529564913+531336735+538194139
1628+547351356+556505320+565939010+575822178+584219542+590804644+598779928
1618+610211398+621641030+627399503+628675715+630441033+634366458+639071284
1608+642763540+645107681+647130064+649689488+652612170+655534711+658924864
1598+663547041+669293566+675165726+680444215+685421166+690644509+696041067
1588+701220646+705883900+709587751+712087998+714241884+717773509+723949256
1578+732350155+739853796+742945664+744067750+748868657+759048236+771212162
1568+780823593+788472524+797775630+810165797+825856257+846514407+871178510
1558+887440511+888082895+883473585+880015772+877909961+876475522+875450579
1548+875709201+878800291+884453633+890307481+894581459+894864473+886094800
1538+871028978+859298658+853762749+850760175+845993274+840239043+837118259
1528+837225440+838494865+840386877+844366813+849456673+851723185+850403563
1518+848288208+845758267+841814247+838004770+837293313+841300043+849682914
1508+858964811+860557972+850606190+839144531+833445658+832908406+834741242
1498+836399519+836078893+833994646+833037717+835660134+840734087+843706613
1488+841349887+835769366+830742642+827838554+826704379+826607802+827677993
1478+830827553+836536253+843891777+849939698+850294401+844158459+836715054
1468+832671701+832378507+833029303+832270971+831738244+834717628+841703530
1458+848366544+847385082+838711420+829909791+825006509+823940914+824954333
1448+825415652+823901887+821553716+819864897+818977112+819123674+821356462
1438+825169545+826735416+823341587+818349293+815896273+815990729+816088578
1428+815013297+814328139+815379525+817456065+819718688+822488940+824732404
1418+823210508+817676438+811951547+808439153+806532435+804787762+803045211
1408+802341177+802929121+803368099+802589264+801839416+802790619+805318015
1398+808226840+810483313+810712947+807879984+803854164+802084817+803452657
1388+805375989+804958928+802966804+802717515+805641823+810278564+814760755
1378+818960498+823783110+829002777+832916960+834664108+835584061+837219855
1368+839578772+841906794+843804533+844938708+844807135+843537073+841999199
1358+840867428+840276090+840067029+839979714+839834142+839564067+839134138
1348+838791948+839173659+840598342+842691568+845190684+848224436+851117354
1338+852162800+850854702+849076376+848978032+850820836+853310691+855383908
1328+857283910+860020650+864108686+868972729+873551567+877318482+880431348
1318+883085440+885375283+887782135+891019151+895198108+899604296+903333103
1308+906003951+908034182+910253608+913081269+916168824+918879546+920892032
1298+922371013+923689787+924832092+925065757+923572636+920449589+916777059
1288+913685898+911453605+909539534+907471549+905438065+903920765+903068896
1278+902667106+902607435+903207610+904741101+906623781+907822576+908243738
1268+908785515+909923366+911160128+911977777+912823636+914866453+918554537
1258+922580498+925058263+925728502+925993911+927058305+928967286+931011445
1248+932406504+932923890+932970269+932671348+931236767+928053978+924146370
1238+921433173+920530329+920180221+919091011+917524503+916493197+916113748
1228+915432692+913638529+911037251+908673808+907129218+906130716+905354639
1218+905005379+905429015+906587229+908034960+909308697+910323106+911241999
1208+912068839+912889317+914257016+916449929+918760911+920513502+922108008
1198+924030774+925890406+927496153+929651170+932854321+936285338+938889515
1188+940645217+942131551+943612935+945180362+947126248+949396508+951079600
1178+951464847+951685007+953977184+958702018+963133729+964373035+962995580
1168+962281365+964243795+967668450+969928952+970029983+969296042+969606912
1158+971794381+975253184+978580060+980801465+982012562+982580145+982446450
1148+981784130+981226587+981214638+982011431+984338463+988842570+994610730
1138+999313294+1001483795+1001799825+1001458484+1000743208+999868645+999968969
1128+1002631827+1008190360+1014240896+1017188324+1016463150+1015055718
1120+1015336399+1016738245+1017803488+1018551568+1019633637+1021228284
1111+1023475070+1025966056+1027813668+1029324676+1031636932+1034212263
1103+1034502205+1030870964+1025301614+1022094222+1023669779+1028336215
1094+1032418312+1034181862+1034572128+1034852172+1035415866+1036451273
1085+1038562385+1042473388+1047995510+1053454992+1056820753+1057425382
1077+1056051674+1053942895+1052584317+1053534247+1056899796+1060554651
1068+1062098393+1061256847+1060096018+1060853360+1063897576+1067590609
1060+1070123874+1071103639+1070898891+1070113269+1069815267+1070007571
1051+1069286357+1067713910+1067245662+1068858266+1071260453+1073062463
1043+1073741823+1072184294+1068014458+1062545007+1057702952+1055396565
1034+1056984919+1062072941+1067659825+1070162829+1069112364+1067189314
1025+1066759809+1067609062+1067441714+1064335565+1059093557+1054812792
1017+1054109323+1056483441+1058723229+1058511623+1056541274+1055125287
1008+1055777003+1058294926+1061323305+1063019902+1061968729+1058624248
1000+1055363265+1054349846+1055684881+1057592659+1058023507+1056628943
991+1055195564+1055713302+1057795428+1058406774+1054847718+1047840888
983+1040886447+1036621166+1034532253+1032980451+1032246510+1033412854
974+1035560731+1036528407+1035772903+1034415668+1032984905+1030529411
965+1025960683+1020199664+1015962238+1014426131+1013604452+1011186782
957+1007220351+1002923325+999078286+996105548+993774557+990903769+986836801
947+982644270+979667856+978000317+977391375+977952382+979049086+979320151
937+978294148+976582280+974705256+973127083+972487952+972547552+972267579
927+971587724+971312629+971236909+970517886+969616739+969762099+970759681
917+971224112+970570841+969248603+967624969+965696546+963574828+961790422
907+960995396+961230758+961832559+962471832+963473585+964227039+962761986
897+958715027+954864403+953800574+955093684+956867061+958218710+958816128
887+958229457+956738033+955117298+953849570+953367464+953959509+954852808
877+954556149+952736039+950756500+949983533+950451993+951256775+951444626
867+950367436+948008094+945347993+943637468+943145253+943556658+945040658
857+947400424+949048450+948874951+947914699+947304555+946684371+945845441
847+945245477+944527586+943242819+942266164+942618323+943936036+945106268
837+945415512+944734738+943544780+942690649+942572862+943253141+945096158
827+948180744+951685714+954435322+955528562+955106763+954684187+955319571
817+956004022+955272485+953164837+950414805+947560843+945820766+946984636
807+951279965+956144503+958506037+958633651+959668704+962594356+964674996
797+963978669+961945114+960236781+958646377+956778191+955121823+953943389
787+952509656+949950091+946954022+945667417+947285890+950976661+955058546
777+958107287+959249663+958625308+957497779+957142509+957927425+959592843
767+961808450+964287205+966557181+967806881+967353267+965236004+962654309
757+962169164+965869903+971979404+975328975+973234689+968504198+965280898
747+964900177+966097558+967123915+967543805+968341870+970450862+974138310
737+979011261+983083461+983407622+979643888+975143316+973216943+974015009
727+974824245+972784257+968349930+965623371+967978753+973568819+976371664
717+972783479+965667559+960666427+960622452+963499037+964822053+962908901
707+960705525+961255149+963590311+964876775+964464168+963479665+962288294
697+960366163+957375326+953282906+948775264+945358598+943502714+942104826
687+940952693+941768505+945185524+948313873+947152478+941203397+933722097
677+928567546+927762551+930063990+932829293+934906328+935448175+931894422
667+923782687+916269501+912537300+911671998+912342450+912807587+910914303
657+906838427+903269402+902248277+902917244+902274577+899526242+897898296
647+900408795+905702555+909846444+911768434+913545558+914795823+911645203
637+903986940+897629210+896287105+896977777+895038396+890391898+885725815
627+882596335+879703347+874593054+868290471+864797873+865810938+868657123
617+870072190+870507492+871640183+872224875+870955096+869592206+869709356
607+870599827+872303352+875964924+879555017+879337614+876323233
##END=
