##TITLE=<SNM>
##JCAMP-DX=4.24
##DATA TYPE=INFRARED SPECTRUM
##DATE=2/5/2025
##SAMPLING PROCEDURE=Instrument type and / or accessory
##ORIGIN=Admin
##XUNITS=1/CM
##YUNITS=ABSORBANCE
##RESOLUTION=4
##FIRSTX=4497.3318
##LASTX=599.83466
##DELTAX=-1.4281778
##MAXY=1.7385356
##MINY=0.29083908
##XFACTOR=1
##YFACTOR=1.6191375e-09
##NPOINTS=2730
##FIRSTY=0.31497356
##XYDATA=(X++(Y..Y))
4497+194531696+195721590+195971621+195184807+194309900+193965813+193935700
4487+193954953+194126500+194578301+195194415+195571081+195175144+193874628
4477+192208362+190977846+190809575+191838745+193263944+193695425+192797087
4467+191972430+192569254+194177964+195432869+195701030+195268850+194597904
4457+194114941+194170841+194606279+194683659+193911570+192796038+192360269
4447+192935889+193825962+194185087+193802089+192972573+192118502+191636883
4437+191636460+191782477+191686359+191353389+191076706+190975803+190903816
4427+190892422+191285360+192051503+192385596+191609918+190144022+188944870
4417+188410720+188392902+188759814+189463302+190393667+191289648+191628379
4407+190967152+189663894+188708883+188566511+188756206+188695944+188311933
4397+187738816+187097762+186682350+186799672+187343633+187936371+188429255
4387+188817149+188776121+187876956+186315402+184914996+184246351+184134054
4377+184137257+184085148+183960593+183613395+182928221+182202405+182035681
4367+182632487+183397158+183601100+183254804+182834643+182460149+181982855
4357+181577420+181610937+182258452+183505497+184997696+185926477+185725959
4347+184797674+184035930+183898122+184240829+184597837+184371716+183245619
4337+181675470+180672419+180821565+181673684+182348938+182453964+182102772
4327+181567480+181252051+181387651+181617140+181530833+181407456+181752850
4317+182493758+183177920+183529278+183503086+183208401+182883457+182690927
4307+182600552+182575574+182653636+182807328+182972580+183181050+183408202
4297+183395317+182976132+182468689+182346030+182627517+182937902+183010828
4287+182866063+182638892+182338998+181766912+180833952+179924479+179625929
4277+180124482+181037839+181807093+182184091+182355362+182552051+182631953
4267+182319911+181789110+181583181+181904407+182320371+182335207+182033620
4257+181936287+182370896+183190105+183953801+184314178+184393491+184566731
4247+184683150+184118335+182984930+182451056+183262000+184656682+185336003
4237+184935354+184126967+183680891+183713268+183696996+183102252+182101649
4227+181532839+181991046+183150992+184182996+184601316+184496860+184206188
4217+183953801+183757553+183647852+183824092+184297704+184648749+184577443
4207+184353807+184392147+184769936+185316769+185862000+186343932+186693136
4197+186623064+185897782+184848623+184085958+183735337+183547961+183516283
4187+183726999+183918185+183772131+183406490+183187252+183226697+183331042
4177+183427436+183819214+184812731+186175551+187228870+187555214+187394030
4167+187210537+187158539+187180461+187272106+187310226+186980109+186240857
4157+185508636+185081812+184815142+184532550+184277108+184080400+183905098
4147+183847707+184087965+184610464+185134823+185300222+184904762+184137220
4137+183605149+183854425+184741222+185534699+185761778+185688926+185812137
4127+186138812+186208002+185704479+184882123+184346278+184450569+185008371
4117+185643407+186288768+187154508+188211030+188858030+188359845+186726470
4107+184916340+183956967+184074086+184814259+185645119+186194123+186270988
4097+185960400+185526803+185169831+185005316+185063793+185137307+184978259
4087+184778109+185019857+185764704+186430681+186340269+185451172+184577277
4077+184635552+185533098+186236992+186142512+185733303+185627301+185730929
4067+185699491+185574807+185535270+185453896+185106348+184607519+184368661
4057+184668554+185301013+185662734+185354520+184703471+184431831+184826388
4047+185528460+186057714+186220868+186098245+185913648+185824101+185711418
4037+185316548+184626091+184048115+184137073+185002334+185996458+186328268
4027+185990421+185627393+185580605+185639726+185676722+185927398+186550506
4017+187268315+187547888+187099142+186191583+185409886+185064529+184994640
4007+185012715+185274858+185986500+186955242+187732669+188106961+188166266
3997+187982056+187565539+187056992+186678098+186541726+186663926+187051065
3987+187663185+188405511+189146254+189633873+189575194+189033791+188621601
3977+188971191+189977187+190820472+190848081+190186412+189376130+188803160
3967+188765722+189628351+191377465+193209388+194088233+193740465+192723628
3957+191643012+190774070+190289174+190427185+191383208+192950651+194255363
3947+194477306+194055912+194202629+195068921+195436826+194510713+192948313
3937+191904014+192223657+194351351+197807133+200680522+200969132+198905823
3927+196723003+196138805+196835594+197434056+197574238+198115273+199393222
3917+200225941+199195704+196629204+194264161+193208505+193287228+194373237
3907+197311581+202767980+209529072+214791873+216632742+214972145+210482150
3897+204763240+200571685+200183055+203386891+206775048+206954271+205510610
3887+206239425+209159253+211097583+211369425+211898864+212024947+209746432
3878+206816775+206493322+208941966+212326442+215810864+218707076+219330369
3868+218101951+217499679+217632112+215983313+211906742+208089258+207175606
3858+210300553+218181172+230080731+238610760+234857330+223653032+213751145
3848+208506289+207962770+210858338+215652607+221343613+227307271+231973414
3838+232882059+229840750+225599903+222134457+219393171+217095845+215771567
3828+215719606+216563442+218794893+223772121+230213919+233156644+231232303
3818+228585588+226659535+223132962+217912035+214061254+214102963+218428939
3808+224583838+228812243+231198711+234716872+238598667+238657512+235149862
3798+231952044+229863408+227626270+225454732+224534951+225249042+227459307
3788+231188201+236074244+240969085+245347354+250339196+256647733+262511739
3778+266107575+268959409+274187809+283563166+297008615+312411776+326253862
3768+336791245+344932092+351488377+357073215+363273007+371013996+379070357
3758+386090886+393384307+403972602+420031469+440639709+460278526+474230203
3748+485639529+499222749+513565266+521616805+522322245+523544423+530918242
3738+544356678+558862274+567505760+567822716+563832084+560633328+560023233
3728+560858511+561192622+560167023+558147411+555040428+550421405+545478836
3718+542373400+542083427+544646430+549827581+555658990+558500186+557081686
3708+553270626+549289381+546971292+546903925+547319282+546455217+545713885
3698+547632226+552705589+559611889+567308481+575844879+584694442+590733878
3688+590496842+585414422+580475829+579014259+580974898+584637345+589975613
3678+598263820+605982463+605160806+597255008+590877963+587506114+582382280
3668+574151831+565941041+559191489+553507515+549570151+549210823+552822985
3658+557813778+560644372+561425940+563850896+570338415+579189524+583459747
3648+577236763+564898287+554348903+548721436+546948579+546776075+546996288
3638+547696979+549039424+550783935+553457487+558946943+568195665+577037570
3628+578564777+574236022+571264546+573544092+580917765+590451342+597671653
3618+600569025+602054008+604638656+606807249+607174713+608035170+611402086
3608+615092364+616142370+615080290+614100891+614066471+614697623+615873491
3598+617852499+620968905+625347395+630417667+635141605+638910110+641105319
3588+640319002+636428132+632774703+632402307+634194859+635228262+634955481
3578+634737698+634996196+635590498+637571899+642438818+650351905+659080317
3568+663510712+659565728+650595236+643422671+640669237+640173003+639081878
3558+637344103+636702754+637514103+638012914+636532385+633929293+632922542
3548+634966893+638497515+640471553+639821222+638422196+638210965+638607584
3538+637369282+633716958+629653069+627722249+628511952+630753103+632840745
3528+633815395+633630375+633027311+633018402+633653788+633361864+630900721
3518+627475163+625241227+624641403+624750957+625100382+625734442+626250040
3508+625950827+624566894+622206177+619190931+616211614+614130930+613386248
3498+613884175+615227025+616576574+616811586+615704521+614542642+614593222
3488+615383147+615421653+614085687+611944667+610107572+609524939+609975046
3478+610211898+609516730+608376055+607521156+606979606+606261944+605172108
3468+604313270+604548392+605810953+607060998+607610316+607586756+606911318
3458+605192207+602959450+601564179+601584942+602557199+603927143+604924801
3448+604443697+602575495+600943777+600247209+599513828+598618988+598907783
3438+600429247+601046926+599298254+596422933+594711332+595008556+596424626
3428+597523998+597124986+595024128+592437786+590935648+590628852+590114801
3418+588796211+587839157+588144923+589065974+589405643+588563408+586917370
3408+585578533+585315397+585660404+585549267+584512882+582821270+581078267
3398+580146798+580660886+582110640+583000731+582399839+581072157+580634602
3388+581604945+582713519+582483883+581007955+579471803+578442560+577697362
3378+577380369+578031842+579394349+580012175+578625040+576046060+574832791
3368+576493223+579653988+581716635+581711628+580598084+579505818+578679228
3358+577813138+576944177+576811026+577938816+579689181+580836482+580597385
3348+578819300+576117697+573993243+573804100+575431474+577398444+578177730
3338+577336930+575759364+574784934+575034450+576180904+577656832+579085087
3328+580099531+580314112+579640404+578425773+577198368+576244259+575491589
3318+575023848+575426210+576964571+578642268+578964231+577942865+577295222
3308+578102448+579474048+580069787+579928905+580007389+580541319+580672740
3298+579597739+577661728+576025850+575295230+574957401+574424429+574041025
3288+574567924+576030599+577535203+578379426+578813667+579339204+579929126
3278+580440968+581507097+583989922+587242683+589007037+587802639+584716198
3268+582122567+581283903+581652654+581840619+580955350+579408117+578305433
3258+577923465+577543670+577022624+577336084+578978220+580914194+581824532
3248+581746121+581773105+582305783+582275229+580533183+577657089+575476937
3238+574763583+574320507+572946587+571491496+571897465+574766638+578628390
3228+581222426+581199381+578922412+575751375+572613949+569795209+567897704
3218+567832288+569401093+570828869+570421575+568339491+566266501+565585947
3208+566174028+566753826+566124552+564158943+561930125+560708683+560579839
3198+560480997+559863466+559452932+559941251+560951241+561730454+561921548
3188+561228551+559361747+556837545+554922591+554330681+554599340+554910443
3178+554801257+553987257+552419776+550659693+549279847+547975761+546238464
3168+544634466+544292661+545189526+545930711+545476038+544311399+543409637
3158+542720064+541499469+539749951+538362116+537855170+537770206+537367918
3148+536441088+535337888+534337543+533228158+531766662+530368446+529799103
3138+530110058+530324860+529452254+527631172+525935916+525149010+525165539
3128+525483894+525671859+525390684+524597226+523744757+523389294+523728780
3118+524581065+525381960+525360020+524312149+522858678+521422876+519694820
3108+517568966+515716962+514762080+514572237+514647961+514745551+514956929
3098+515361241+515702862+515578473+514982182+514318893+513828034+513371006
3088+512650473+511432860+509920377+508813055+508530224+508608745+508361659
3078+507800893+507398936+507304880+507187374+506569880+505180057+503203184
3068+501270707+500114056+500118289+500967335+501625728+501153533+499817236
3058+498801981+498624361+498602236+498113660+497416466+496851614+496230438
3048+495385589+494503780+493728213+493108767+492895328+493289554+493945002
3038+494117506+493423331+492261194+491270089+490522940+489611976+488403860
3028+487226815+486378468+485869718+485577721+485368257+485083991+484528709
3018+483621942+482679760+482207712+482130406+481708350+480612917+479433626
3008+478695055+478189103+477671407+477296250+476939684+476031186+474507917
2998+473146735+472636365+472923356+473469766+473584032+472647556+470644694
2988+468441019+467080904+466813644+467011696+466881159+466073159+464787995
2978+463573916+462944862+462928076+463050993+462893177+462429228+461781216
2968+461001268+460164628+459384017+458680123+457989519+457337237+456946876
2958+457018219+457312462+457299357+456829481+456144472+455322337+454334471
2948+453357317+452431407+451301040+450038515+449146877+448787439+448614972
2938+448426934+448290359+448134494+447803954+447327931+446744561+445979301
2928+445095799+444259859+443415084+442460055+441664387+441376329+441436701
2918+441385348+441070895+440595202+439932502+439082389+438315877+437837792
2908+437445002+436860234+436177986+435677224+435385337+435112225+434682843
2898+433941548+432823549+431557675+430523830+429880493+429570752+429549474
2888+429714468+429782461+429480046+428756826+427794839+426963979+426616321
2878+426674816+426580428+425859123+424578302+423117100+421759709+420713164
2868+420258013+420518757+421129515+421444078+421137613+420391201+419522903
2858+418762060+418319205+418203650+417953656+417053919+415633837+414296656
2848+413422688+413091338+413319171+413832008+413928641+413090344+411618172
2838+410384877+409982552+410197390+410367243+410188592+409878704+409562226
2828+409001386+408045547+406897988+405816545+404861921+403979707+403153669
2818+402448414+401907894+401460585+401003004+400485419+399855776+399105315
2808+398377567+397765116+397072450+396104279+395076030+394422054+394255256
2798+394228125+393934214+393355962+392820044+392521052+392244074+391652201
2788+390733874+389804393+389086732+388490883+387898863+387428141+387164305
2778+386846943+386142056+385097131+384090269+383424035+383076488+382770575
2768+382243419+381460194+380578091+379756655+379023974+378267659+377411067
2758+376660679+376405457+376700510+377011650+376698596+375686066+374491534
2748+373641826+373221757+372965910+372584863+371947784+371094763+370115548
2738+369010470+367823485+366869524+366476807+366485569+366376198+365872823
2728+365074027+364142410+363274038+362771583+362725494+362774455+362512275
2718+361988543+361543662+361272648+360893000+360115003+358996194+357891817
2708+357110322+356676523+356412171+356122530+355686595+355123399+354598599
2698+354208570+353789348+353132869+352330060+351662942+351218946+350847028
2688+350409547+349849039+349105130+348193834+347303927+346619838+346112598
2678+345657116+345246950+344933380+344666636+344361607+344028858+343704944
2668+343328351+342809883+342196622+341674582+341385972+341287314+341210707
2658+341008569+340602894+339988934+339269542+338607063+338070041+337573108
2648+336999089+336340696+335702549+335200757+334893151+334750208+334616541
2638+334274405+333682716+333086500+332738326+332617323+332553711+332439481
2628+332165964+331597504+330775295+329949404+329317516+328891558+328625513
2618+328497000+328428787+328237140+327745214+326966885+326102857+325306306
2608+324587687+324000306+323682834+323608288+323540516+323318316+322961528
2598+322515175+322042907+321720612+321677173+321782605+321763536+321472643
2588+320972249+320435963+319998114+319637167+319234953+318792723+318470834
2578+318330688+318178689+317785015+317140905+316415255+315816462+315526673
2568+315541325+315553583+315238467+314640594+314073975+313735888+313616726
2558+313643047+313726795+313771302+313704008+313463659+313036670+312537969
2548+312110465+311752904+311390006+311015622+310648158+310307384+310071415
2538+309943713+309747759+309423219+309236469+309375179+309563807+309415673
2528+308964166+308547061+308333843+308239529+308194507+308226994+308262592
2518+308101813+307727282+307397607+307273070+307202721+307053372+306950131
2508+306988895+307010265+306847424+306538622+306175465+305777945+305383222
2498+305072487+304883491+304801141+304804877+304863078+304918739+304905983
2488+304766206+304492007+304180978+303957654+303802360+303570165+303235005
2478+302980317+302946486+303018381+302981127+302777755+302506852+302275319
2468+302159543+302192987+302281154+302228824+301954773+301594617+301309393
2458+301102856+300905246+300721257+300596112+300523260+300461894+300369494
2448+300195628+299938069+299710733+299657925+299782573+299918926+299881396
2438+299609664+299186264+298780147+298579427+298684766+299002661+299300549
2428+299418662+299362983+299186043+298908329+298599526+298414746+298457467
2418+298647640+298794670+298797541+298715578+298635842+298543516+298379921
2408+298190888+298139001+298325751+298641069+298867062+298932772+298970542
2398+299096864+299221622+299135278+298768993+298318168+298063222+298080340
2388+298182845+298092580+297533471+296193971+293817645+290397976+286142790
2378+281267680+276006830+270729580+265739210+260999405+256338268+251838831
2368+247807779+244534974+242213921+240897706+240560668+241360385+243717918
2358+248038428+254354585+262305607+271540395+281604350+291081880+297799165
2348+300289500+298838955+295391861+292088686+289583681+287349636+284918919
2338+282195413+279274978+276258978+273204803+270358987+268232011+267168127
2328+266951780+267017619+267021392+267139892+267785253+269104819+270886475
2318+272799644+274524608+275842867+276841500+277909875+279378863+281233371
2308+283192740+284927330+286197254+286965552+287448128+287931183+288473211
2298+288884297+289053120+289176000+289542783+290172830+290817382+291292632
2288+291631050+291888186+292006189+291943424+291775503+291592121+291401487
2278+291186538+290986296+290876116+290877533+290909836+290853789+290672266
2268+290455496+290331952+290327553+290349310+290342499+290389067+290578983
2258+290879834+291196496+291439312+291511557+291381663+291170967+291048197
2248+291079138+291240009+291477192+291704768+291824206+291765379+291520999
2238+291222688+291136528+291424237+291929987+292338110+292515731+292584662
2228+292679804+292751386+292666736+292451032+292302310+292349687+292529922
2218+292734710+292930811+293108248+293240626+293310974+293310091+293250086
2208+293220323+293336265+293568699+293720091+293657215+293485466+293397171
2198+293449445+293614255+293898025+294231547+294406812+294329837+294186709
2188+294197606+294343752+294443514+294408560+294368435+294531606+294916703
2178+295295431+295447853+295364712+295167949+294988377+294961982+295184680
2168+295588717+295948909+296104001+296134427+296220181+296373984+296467083
2158+296467820+296490717+296648864+296959341+297331719+297627085+297818326
2148+298027937+298300277+298464056+298355054+298059044+297810025+297738848
2138+297829039+298044135+298358183+298683901+298931576+299161047+299511264
2128+299941769+300228925+300285966+300307686+300504560+300848076+301158388
2118+301304865+301265844+301123618+301031642+301080345+301210699+301327947
2108+301429163+301579726+301846747+302255569+302738384+303159281+303425178
2098+303515682+303437271+303262872+303177430+303342957+303708985+304048839
2088+304205513+304232883+304267855+304343505+304385251+304350205+304308865
2078+304362390+304501671+304628858+304733700+304911119+305177402+305456865
2068+305747077+306071543+306323121+306398844+306396231+306455904+306552629
2058+306599234+306596178+306576815+306551340+306556862+306646979+306819005
2048+307030070+307276033+307576958+307866120+307978933+307840241+307611506
2038+307546458+307730153+308028630+308247149+308302037+308295594+308426298
2028+308757132+309096581+309203669+309108140+309146352+309645715+310578141
2018+311520396+312004260+311959202+311751358+311758095+312044570+312498101
2008+313079078+313767657+314402674+314811994+315074320+315450582+316021987
1998+316609074+317182062+318052422+319295362+320259116+320222303+319365416
1988+318463250+317913344+317597529+317338405+317077919+316816329+316592692
1978+316438042+316343508+316294289+316262667+316290534+316634879+317481274
1968+318396619+318564485+317798452+316794720+316219781+316096863+316142253
1958+316215032+316285638+316291823+316205166+316103931+316108018+316303345
1948+316787983+317764511+319324628+320893360+321292408+320031098+318088756
1938+316722677+316196957+316051915+315960141+315943318+316058063+316197067
1928+316321494+316800462+318015167+319535417+320498508+320910625+321335810
1918+321415915+320312457+318501462+317421233+317657202+318521966+318979841
1908+318576449+317656981+316878395+316565524+316563132+316614853+316751686
1898+317227231+318020211+318683021+319105446+319913998+321308532+322186770
1888+321533715+319967413+318697636+318060300+317820502+317869721+318142502
1878+318463655+318726534+319063185+320024840+322472878+326577408+330600472
1868+331689130+329168131+325401835+322723350+321597511+321355137+321366328
1858+321405239+321484202+321679345+322045226+322672954+323728997+325404632
1848+328028376+331812968+335588688+336557448+333730609+329843789+327644568
1838+327384818+327848804+328387446+329805025+333072327+337275515+339807779
1828+339737025+338771946+337848613+336164069+333695858+331809287+331289051
1818+331627948+332133090+332907811+334505257+336792791+338552654+338707156
1808+337698234+336970265+337642794+339984075+343268715+345885022+346539366
1798+345806133+345784708+348195307+352681510+356070182+355046719+350876994
1788+347616907+347176150+348593067+350303674+351890628+353325546+354146577
1778+354562412+356159232+360519352+367129752+372366711+372643505+368966958
1768+364460913+360970490+359802500+361634553+364877447+366724409+366924485
1758+367172087+367654810+368114562+370149820+375290404+381882839+385812546
1748+385366451+382766010+380709143+380427895+381825559+383658090+384461745
1738+385031935+388354677+395350909+401139395+399953035+394206222+388616488
1728+384726023+383002126+383542572+385536158+388698175+394548689+404414316
1718+415671790+421210539+417870791+410642344+404768822+402348431+403910389
1708+409070557+415845104+421459319+425994961+432534570+441800852+449081130
1698+450755330+448507406+443493789+437327754+433836705+434840143+439125497
1688+445674235+455731803+468912993+477421008+474814603+467499316+463007848
1678+463620005+468478567+474500702+478927968+482714916+487353597+490218758
1668+488217515+484624128+484567915+488346506+491859642+492091377+491185015
1658+493204590+500816293+514732004+529902804+533638030+527415340+524778491
1648+528165802+530465521+525453119+517277226+512297219+512179566+516678175
1638+525182546+534177297+535974525+528723660+520682428+517584096+518927240
1628+521649310+523974283+526393901+528545560+528564445+527313259+528455185
1618+533073840+536822945+534935232+529959200+526837235+526831566+528511509
1608+530159387+531162751+531756023+532094478+532065654+531811095+531903237
1598+532730158+533959772+534871325+535134167+535034920+535008268+535235144
1588+535639972+536077968+536505031+536958121+537604623+539220585+543208015
1578+549923441+556018575+556325077+552658801+551574044+554823859+558275040
1568+557879893+555509862+554846683+557526345+565221207+580266660+599208615
1558+606265110+597406492+586877134+580929360+578792095+578774499+579672505
1548+581781351+587088475+597091486+611025162+626509127+638910331+640580739
1538+632840745+626908396+627834380+632707115+636032323+637090169+640032232
1528+647072492+656581994+666342705+676378921+686352262+693135055+695478545
1518+696141466+696425733+695729459+695291390+697864369+705138021+717134361
1508+731006449+737619757+730524646+719407686+713666468+714229995+718717008
1498+723619193+725387007+723707838+722580931+725771625+733079881+739830869
1488+741050028+737607094+734116892+733303776+734834149+737193983+740004919
1478+744345565+750942528+758801280+765021356+765872831+761163765+756032237
1468+755099700+758569950+762515008+762855377+761359681+763535821+772048732
1458+783077490+786511883+779257226+770284894+765436528+764511649+765107056
1448+764496850+761508699+757590735+754797174+753790277+754659569+757926466
1438+762972367+766105487+764237395+760292779+758453180+758710647+758441989
1428+756701490+755173915+755036898+755952648+758069225+762127666+766455869
1418+766796974+762411122+757161205+753595538+751466298+749925764+749152406
1408+749994309+752306876+754291811+754620769+754568863+756047477+758930713
1398+761824256+764031613+765129438+764332887+762295457+761358503+762762609
1388+765002434+765450223+764144406+764302406+768331618+775427981+783035302
1378+789641322+795405437+800358718+803607724+805071908+806234891+808008154
1368+809860931+811730054+814656434+818523228+821070439+820641351+818351461
1358+816033519+814023110+811710028+809041778+806842225+805820455+805728644
1348+805623434+804840872+803762852+803662280+805527721+808814718+811535978
1338+812056140+810779994+809545521+809709263+811217843+813223025+815291819
1328+817701571+820601667+823520685+825953702+827985905+830036439+832308733
1318+834816775+837740946+841273335+845031017+848095960+849987685+851298434
1308+852928054+855069222+857365885+859713130+862243775+864457095+865254455
1298+864428234+863226818+862717847+862517587+861718312+860109381+857876550
1288+855051699+851834426+848718166+846070973+843968753+842157279+840026198
1278+837189494+834123668+831740789+830572431+830709374+831961738+833704667
1268+835146248+835997944+836434026+836533420+836326018+836245472+836916860
1258+838366981+839876077+840872888+841677758+843005515+845055534+847471029
1248+849818421+851795846+853255686+854202948+854726864+855040066+855584671
1238+856823194+858925488+861766978+864926455+867643077+869339917+870351747
1228+871652778+873688735+875834836+877315438+878342877+879896810+882538850
1218+885813403+888789922+890902229+892334312+893721779+895377388+897146675
1208+898915225+900593437+901994157+903482048+905977573+909579170+913144175
1198+915741597+917506908+918913223+920481439+923201374+927741177+933035416
1188+936967810+938781272+939786035+941526829+944184551+946886963+948837883
1178+949895067+950613796+951907096+954176739+956739558+958382136+958522392
1168+957781649+957690869+959906987+964866379+970636900+974108474+974258891
1158+973123958+972948142+974096326+976044007+978436825+980864174+982924501
1148+984408858+985068540+985080540+985504621+987334502+990405040+993714492
1138+996508052+998577803+999712661+999840180+999654718+1000552578+1003491179
1128+1007757464+1011405886+1013059287+1012982201+1012722599+1013657933
1120+1015542664+1017168382+1018238156+1019345110+1020556760+1021579340
1111+1022904961+1025039650+1026860180+1026843688+1025577924+1025052976
1103+1026086600+1027775856+1028944729+1029212283+1028848722+1028117109
1094+1027604309+1028611575+1031506149+1035027936+1038014174+1040513454
1085+1042924384+1044920584+1045963705+1046767839+1048945083+1052450525
1077+1055074379+1055465403+1054988459+1055594909+1057277981+1058300119
1068+1057391732+1054616284+1050881867+1048319490+1049131944+1052568031
1060+1055342522+1056115219+1056747659+1058842663+1062012890+1065373364
1051+1068406501+1070471834+1071003997+1069858536+1067554805+1065445149
1043+1064512686+1063848439+1062017013+1060015660+1060833783+1065352160
1034+1069906025+1069846830+1065608523+1062160803+1062900810+1066886435
1025+1071180182+1073637570+1073741823+1072440792+1070865582+1068821747
1017+1065693928+1062068845+1059200335+1057818537+1057790928+1058123714
1008+1057684098+1056576186+1056001100+1056615281+1057943626+1059208286
1000+1059692445+1058573269+1055524745+1051726054+1048957010+1047440111
991+1045650356+1042932777+1040664680+1039456344+1037634636+1034013160
983+1029849288+1026939400+1025481769+1024220275+1021921844+1018626749
974+1015271282+1012205677+1009166282+1006528144+1005021920+1004052277
965+1001767761+997083138+990646310+984030719+978717852+975287802+972924434
955+970119462+966298462+962398389+959688762+958615969+958804818+959309592
945+959020024+957835027+956900871+956733447+955979525+953167780+949029897
935+945894422+945115099+945966574+946893295+946944022+945890299+944425452
925+944338133+946646429+949676106+950824511+949790593+948144996+946590474
915+944693006+942613463+941311843+941247495+941649783+941382597+940321217
905+939183339+938572766+938581306+939044998+939641951+939573921+938037363
895+935450248+933394044+933058755+934355884+936235240+937115871+935744602
885+932480061+929114139+927171170+926934686+927841307+928947746+929677592
875+930440276+932064815+934782836+937825617+939793619+939326172+936036305
865+930947111+925933531+922996623+923164709+925142281+925880226+924163435
855+922473737+923715352+927642592+931369794+932477411+930959112+928455194
845+926392731+925073294+924207021+923706296+923433220+922748432+921532733
835+921149441+922776704+925367648+926881603+926984751+926719480+926285607
825+925203906+924052997+924209524+926208889+929637025+933513538+935960618
815+935539703+933583629+932792674+933792136+935227385+936262481+937053363
805+937778276+938512025+939037120+938787015+938069170+938057242+938641753
795+938110989+935910479+934182349+935360352+939244816+943411339+946072595
785+947174175+946584290+943796767+940308700+939073711+940661365+942672658
776+943222638+942529309+941243740+939551024+937990022+937395131+937633014
766+937691546+937255685+937014489+937468609+938541770+939847807+940315327
756+939167068+937899905+938794009+941651624+944260826+945197928+944285270
746+942003846+939928279+939892129+941900477+943969123+944440177+943663137
736+943263426+944349618+946543060+948519822+949361211+949198867+948931829
726+949336546+949924811+949308569+947287484+946224115+948868364+954751310
716+960200162+961961277+959823717+955537922+951147063+948568709+948715739
706+950521102+951577991+949843603+945252042+940120956+936922752+935184314
696+931690284+924695745+917112277+913832791+916683852+922522845+925680776
686+923412531+918530077+915311258+914218292+912228204+908140460+904765850
676+904408621+904600488+899743877+886656853+869176174+859449478+866840563
666+881746717+891028717+893340621+892619241+891538203+890739959+889626820
656+887185998+883008873+877026459+869538263+862584954+859287724+860476770
646+864013208+867115332+868017977+867509742+868618463+872501235+875688101
636+873761256+866808020+858945366+853599589+851246160+850371861+849265349
626+847601714+846287284+845020562+842044706+837811038+836028940+839012453
616+843524941+845246665+845671924+848251604+851839506+853168956+850952985
606+844681592+835477488+828692485+829272652+836218230
##END=
