##TITLE=<SNM>
##JCAMP-DX=4.24
##DATA TYPE=INFRARED SPECTRUM
##DATE=2/5/2025
##SAMPLING PROCEDURE=Instrument type and / or accessory
##ORIGIN=Admin
##XUNITS=1/CM
##YUNITS=ABSORBANCE
##RESOLUTION=4
##FIRSTX=4497.3318
##LASTX=599.83466
##DELTAX=-1.4281778
##MAXY=1.8021183
##MINY=0.28571147
##XFACTOR=1
##YFACTOR=1.6783535e-09
##NPOINTS=2730
##FIRSTY=0.30849469
##XYDATA=(X++(Y..Y))
4497+183807937+183979682+184336808+184713023+184466895+183432361+182319147
4487+181959322+182411376+183096401+183616287+183987495+184172468+183939125
4477+183273864+182603666+182397224+182664181+183097840+183563105+184013668
4467+184032846+183178243+181861037+181114929+181395434+182224876+183013477
4457+183641289+184136173+184263916+183720076+182640849+181684268+181402732
4447+181617963+181662036+181137231+180213128+179392405+179221157+180012138
4437+181515293+182858832+183109559+182102637+180637038+179695284+179547120
4427+179770413+180036003+180510928+181297114+181816059+181329663+180021602
4417+178927299+178744208+179222915+179643203+179484101+178812749+178325429
4407+178756939+180042964+181280920+181610861+181030903+180294969+180021389
4397+180085367+180043780+179812728+179609607+179513205+179314203+178679484
4387+177562611+176506965+176183719+176599727+177070337+176919067+176036496
4377+174973925+174551630+175080342+175985978+176437056+176180789+175615729
4367+175307257+175545110+176142310+176542638+176271739+175442369+174683262
4357+174450168+174653786+175003223+175324303+175519984+175593533+175586430
4347+175293229+174431061+173193176+172167254+171747641+172007922+172896423
4337+174127046+175082828+175229073+174652205+173953863+173561560+173449354
4327+173503211+173546307+173071097+171872543+170799371+170802549+171544822
4317+172035232+172110574+172165816+172108053+171676241+171272414+171556045
4307+172410115+172975974+172828769+172581647+172968090+173810387+174403520
4297+174501201+174356624+174156096+173988187+174147129+174845365+175603601
4287+175453787+174011022+172013338+170579984+170233193+170679583+171255296
4277+171611854+172009857+172763921+173630528+174145619+174261909+174157889
4267+173792843+173203297+172878666+173260510+174098883+174800742+175148333
4257+175152577+174597905+173467200+172470595+172454418+173621596+175613421
4247+177764312+179175629+179305254+178566106+177834682+177555509+177648715
4237+177909315+178182309+178337841+178196212+177611603+176766517+176106370
4227+175862390+175972039+176322950+176615637+176320269+175319172+174310456
4217+174144412+175021087+176462644+177749858+178394450+178421157+178168352
4207+177827668+177365048+176846547+176537667+176613595+176906335+177046650
4197+176926560+176819593+176885400+176955042+177006999+177289351+177734551
4187+177889640+177636853+177365279+177250588+176908590+176034064+175072386
4177+174888461+175775825+177095357+178053181+178509266+178762231+178959758
4167+179042328+178965529+178777644+178579885+178445768+178389105+178398108
4157+178382926+178163487+177723098+177354181+177318756+177535905+177801140
4147+178118171+178549006+178841835+178591907+177862099+177275980+177305030
4137+177797127+178329584+178642336+178620247+178279048+177926556+177981159
4127+178497422+179088070+179328356+179068786+178464057+177895038+177750071
4117+178104995+178688114+179155688+179296216+179102488+178786611+178543235
4107+178275142+177850788+177523227+177638806+178086244+178436161+178469207
4097+178310478+178178562+178117478+177962035+177587950+177116736+176839267
4087+177020671+177675829+178455925+178981688+179268373+179502622+179572460
4077+179341283+179113497+179154729+179076492+178372627+177291375+176596442
4067+176697567+177380195+178113004+178400204+178116111+177614657+177291890
4057+177138293+176942967+176742474+176788021+177132398+177454951+177435952
4047+177266409+177491708+178250566+178986376+179044423+178321008+177351908
4037+176897439+177252203+177977359+178551173+179002588+179493672+179737918
4027+179419395+178819603+178527556+178774785+179338939+179871326+180154850
4017+180200378+180158827+180067379+179792627+179289805+178719206+178300587
4007+178242700+178651375+179334500+179988503+180566738+180998195+180852500
3997+180025438+179303745+179457679+180278970+181075153+181488782+181484432
3987+181166814+180779448+180479623+180223196+180031954+180058377+180354455
3977+180877377+181621124+182460581+183006942+182915210+182332749+181816787
3967+181758172+182092001+182602938+183205553+183811382+184215511+184311434
3957+184260613+184292114+184447149+184734562+185393414+186498336+187385931
3947+187301657+186587653+186230544+186480401+186725304+186492121+185958953
3937+185660033+186109158+187438616+189164478+190424027+190660992+190146238
3927+189688945+189820719+190377699+191028453+191869295+192982030+193846719
3917+193717413+192433786+190613031+189124312+188469562+188604319+189409239
3907+191165217+194107035+197577386+200230548+201210213+200407300+198006659
3897+194937329+192964877+193329425+195409307+196844063+196209378+195326027
3887+196382970+198602526+199729716+199818145+200205316+200011127+198037041
3878+196109088+196539656+199012444+201929775+204624666+206505706+206442047
3868+205050014+204288582+204415295+203940032+202279692+200641158+200326578
3858+201984040+205960889+211516449+214797210+212190695+206562972+202025432
3848+200018389+200536162+202914306+206067040+209073830+211578580+213261133
3838+213542491+212469958+210920120+209468974+208140937+207101911+206695243
3828+206852302+207479813+209389707+213298618+217454581+218548174+216886875
3818+215480140+214562873+212495989+209776807+208390439+209354673+212485371
3808+216306652+218976257+220985608+224080898+227328880+227930093+226403534
3798+225384235+225147590+224763419+224679749+226031918+228869645+232273745
3788+235664013+239358759+243887438+249485348+256253330+263829712+271057401
3778+277376720+284086371+292893126+304434158+318128939+331790693+342419606
3768+349287790+353865976+356832618+358280052+359000698+359575168+359933431
3758+360580030+362970035+368540653+377919411+389875510+400589408+407508874
3748+413293959+421444012+431854161+440933823+447575926+455136451+466255277
3738+480822418+496449681+509629725+518171247+523463294+529033166+537033884
3728+547043758+557025824+565283306+571666869+575816261+576445601+574146369
3718+571725147+571198833+572838610+575751591+577453552+575212670+569671173
3708+563751775+559693085+558832977+560906057+563371742+563822660+562883428
3698+562674536+564203830+567271224+571447287+576507963+581554362+583881046
3688+581460428+576744307+574064155+575478277+579497014+582643676+583874156
3678+585730496+589208714+591306867+591330093+591497505+590556816+585454874
3668+577753040+571445867+567817674+566288239+566058500+566596179+567771400
3658+569014311+568986326+568073622+569159953+573898199+580241880+583711823
3648+581967955+576756843+570908295+566401066+563849970+562698046+562515647
3638+563591466+565668488+567891614+570994665+577203358+585927669+590585263
3628+585964106+577687943+572822096+572707706+575840730+580140950+583708378
3618+586238734+589027487+592314073+594663770+595581943+596615855+598814015
3608+601233993+602815634+603979917+605513260+607192563+608289441+609125648
3598+610853393+613378492+615063976+615066391+614633549+615260793+616925252
3588+618510018+619018859+618080515+616115680+614432328+614262359+615211500
3578+615740655+615525299+615927102+618079946+621930419+626913781+631792733
3568+634047076+632123650+628102356+625178437+624209408+623956408+623104931
3558+621578833+619948467+618199344+615977887+613866807+613493770+615526507
3548+618584952+620810742+621584586+621137752+619197493+615621684+611789323
3538+609501171+609004618+609407699+610222029+611056958+610874701+609240997
3528+607392151+606467301+605643737+603637707+600988238+599318452+599182292
3518+599796396+600226042+600034623+599403188+599144151+600005857+601577767
3508+602324905+601095490+598268807+595313991+593603365+593466601+593914962
3498+593444760+591459967+588877548+587178037+587128211+588535444+590497011
3488+591557949+590481243+587262134+582951829+578928936+576533675+576286961
3478+577216498+577837421+577735354+577417151+577238801+577137444+576558783
3468+574726167+571865888+569245257+567331136+565546640+564143421+564085533
3458+565087412+565770661+565492553+564721052+564101585+563885236+563780790
3448+563301425+562531913+562025273+561797559+561271352+560329456+559520062
3438+558902442+557715359+555710323+553839422+553027720+553090366+553257245
3428+552913046+551592715+549199905+546460728+544438823+543503817+543150029
3418+542793861+542487058+542681105+543423236+544365594+545466946+546680487
3408+547135809+545994219+543941915+542262007+540904600+538998754+536581865
3398+534533609+533487338+533605457+534568838+535398227+535221546+534306037
3388+533568842+533364070+533375754+533243145+532765023+531911983+531067501
3378+530912910+531675390+532583761+532476545+531187218+529807615+529051740
3368+528082569+525944250+523572322+523068914+525238024+528678810+531089342
3358+531132172+529400308+527794091+527736665+528879250+529659523+529032456
3348+527320409+525580412+524755250+525256633+526649021+527739897+527573977
3338+526397335+525251839+524753900+524570507+523863215+522201562+520244363
3328+519160873+519198553+519428931+519074397+518281482+517412673+516507001
3318+515692386+515369850+515767782+516637301+517412495+517648129+517459729
3308+517339550+517283616+516523444+514724920+513052116+513027220+514552430
3298+516063221+516569363+516372936+515821727+514876458+513918971+513690333
3288+514435057+515801627+517258081+518258078+518491794+518182221+517718411
3278+517216814+516752152+516499436+516419388+516278683+516060699+515969607
3268+515954655+515689545+515193915+514951250+515132157+515198603+514652969
3258+513666965+512550093+511257179+509776539+508455996+507583174+507086088
3248+506894527+507002808+507128030+506951668+506606723+506363276+506132650
3238+505810291+505727473+506178747+506836639+507174304+507081933+506591203
3228+505521884+503947914+502434176+501234947+499864435+497998010+496200338
3218+495271725+495309582+495722572+495963639+495910830+495487790+494462650
3208+492994440+491779479+491177698+490695279+489701640+488287446+487091165
3198+486432030+485918643+485045501+483874613+482756711+481818828+481180610
3188+481036282+481043314+480433826+479185020+478181473+477953013+478023294
3178+477504935+475904508+473560919+471445364+470260909+469807505+469417209
3168+468728881+467736272+466520849+465302265+464287956+463351778+462347875
3158+461525660+460994588+460182352+458642547+456898324+455736669+455223637
3148+454900639+454441872+453850036+453345598+453067064+452718532+451785656
3138+450236546+448593750+447261771+446231339+445383697+444725733+444299533
3128+444031866+443709401+443157268+442506620+442113057+442008078+441672225
3118+440674998+439395153+438749513+439064130+439484968+438940613+437486502
3108+436047591+435122990+434502316+433888318+433160464+432389957+431903738
3098+431878346+431899867+431489861+430851110+430498956+430438476+430249685
3088+429823271+429573894+429857684+430442312+430708558+430213780+428908153
3078+427090984+425352444+424201230+423605770+423147572+422591568+422081875
3068+421814030+421604357+420874123+419315459+417537143+416572199+416685097
3058+417079051+416891432+416145394+415451171+415115957+414980969+414848219
3048+414568796+413875284+412635108+411196658+410093494+409502723+409209770
3038+408918237+408409645+407569602+406499360+405540701+404880429+404186703
3028+403079597+401845601+401088021+400789244+400402250+399712538+398975130
3018+398443240+398233496+398300617+398284458+397802608+396927229+395949926
3008+394893498+393730493+392790195+392478597+392756280+393148316+393162841
2998+392600481+391587557+390412584+389300826+388287689+387235736+385987534
2988+384648168+383676973+383421665+383581051+383500790+383040176+382697859
2978+382787673+382890343+382330540+381008576+379542568+378591012+378162965
2968+377758250+377135800+376587894+376352722+376160699+375598835+374674199
2958+373799069+373312069+373139436+372958423+372626192+372292966+372063689
2948+371766226+371179681+370292263+369198155+367971758+366819123+366128487
2938+366091375+366357338+366310850+365703068+364841326+364150939+363713729
2928+363262811+362496033+361328589+359914183+358518492+357417103+356855347
2918+356898745+357245963+357449385+357430421+357464621+357555252+357240636
2908+356262693+355051638+354206304+353768207+353368783+352904725+352579916
2898+352343714+351862822+351107160+350443053+350073923+349801568+349373343
2888+348787437+348266876+348025489+347985501+347828104+347444342+347088672
2878+346924882+346713859+346119501+345120108+344012860+343132687+342624876
2868+342445993+342506118+342705279+342850921+342701621+342153928+341325711
2858+340454523+339732848+339206570+338788431+338338862+337755584+337077200
2848+336487565+336123549+335897362+335566835+334941580+334032215+333088152
2838+332447555+332245056+332281102+332222291+331910765+331462013+331045756
2828+330596791+329923983+329163562+328787898+328933255+329024242+328402112
2818+327156253+326025708+325589315+325779065+326078233+325983553+325332409
2808+324391684+323639894+323311889+323179919+322880077+322326524+321686353
2798+321137132+320781249+320598247+320363927+319805402+318942204+318125210
2788+317641087+317374343+316965508+316254487+315416327+314650508+313951029
2778+313266395+312643768+312069084+311391517+310585070+309882466+309442486
2768+309075558+308557270+308053720+307901970+308039444+308007588+307537883
2758+306806335+306065056+305349667+304654308+304101110+303751335+303443253
2748+302977099+302322510+301556868+300747971+299987764+299415815+299074599
2738+298783599+298271774+297460143+296566404+295916253+295662969+295644875
2728+295507969+295049753+294427090+293919385+293560537+293161167+292620949
2718+292055481+291649594+291461265+291325656+290968689+290289471+289472796
2708+288768718+288252188+287848539+287508548+287280461+287190131+287091598
2698+286751288+286130507+285467412+285016511+284811437+284711750+284557176
2688+284249059+283791198+283277030+282805247+282432512+282167953+281905737
2678+281444076+280728349+279968372+279372380+278941989+278649675+278559808
2668+278640566+278710546+278672280+278573072+278392964+277996542+277333766
2658+276538276+275823153+275366250+275248149+275402688+275644039+275774357
2648+275631343+275111013+274332179+273707900+273564850+273693375+273561672
2638+272979672+272261815+271743971+271462382+271341636+271376333+271495037
2628+271470320+271139687+270594799+270029047+269544018+269219156+269184512
2618+269440637+269724872+269728654+269407627+268976987+268637014+268388720
2608+268118282+267801890+267566363+267515010+267554484+267476282+267184732
2598+266763823+266350549+266039431+265895298+265945124+266117739+266232786
2588+266094406+265657108+265139637+264904411+265109592+265503155+265687916
2578+265569442+265384326+265295737+265185503+264930638+264677993+264662048
2568+264851656+264979132+264908318+264784907+264780362+264870691+264942145
2558+264951183+264905903+264811365+264653169+264356896+263852458+263261030
2548+262872065+262832183+262978997+263056346+262989456+262866614+262714206
2538+262426776+261971880+261529911+261288631+261200894+261096981+260924757
2528+260734083+260551028+260397750+260308735+260233499+260059695+259792028
2518+259546823+259334877+259044605+258696073+258509803+258620802+258870783
2508+258988653+258898874+258751936+258682134+258650242+258558049+258406849
2498+258259129+258124550+257975392+257830514+257746240+257722801+257665020
2488+257498869+257327319+257336446+257490079+257480899+257099037+256517961
2478+256096270+255996228+256094956+256174063+256076791+255754805+255321857
2468+255038013+255083879+255343911+255513205+255389582+254989342+254454291
2458+253943639+253576356+253395697+253363699+253391382+253385274+253280420
2448+253054730+252748406+252468326+252313788+252280476+252279855+252234504
2438+252123825+251986955+251891494+251843266+251762881+251613208+251468525
2428+251403553+251426264+251540121+251722040+251847723+251810629+251674736
2418+251554096+251441553+251308216+251235395+251299142+251436598+251529627
2408+251537777+251508230+251520890+251634002+251839307+252062173+252232320
2398+252383697+252670560+253273246+254360287+256199775+259213864+263870517
2388+270663571+280232808+293279783+310204114+330889851+354879148+381582301
2378+410191512+439621980+468905207+497506570+524718813+548885288+568216849
2368+582525663+593032836+600587501+605089723+606178006+603621015+596914028
2358+584866482+566692599+543214770+516302264+489527125+468590733+458215920
2348+459988234+472611423+491650209+510012812+522269819+528020065+529953399
2338+530713607+531287225+531348344+530683739+529728632+528813833+527495278
2328+524943046+520630149+514286006+505807734+495833872+485700659+476215892
2318+467046310+457527308+447527911+437382127+427322499+417164781+406530718
2308+395292957+383757021+372501325+362068874+352660994+344037897+335807654
2298+327849446+320350893+313453659+307043496+300933247+295107907+289721392
2288+284944028+280852079+277395951+274445272+271866440+269558934+267489085
2278+265727176+264342335+263227860+262167543+261083716+260076333+259237143
2268+258555882+257973989+257429421+256881977+256353141+255898760+255515194
2258+255128716+254695838+254240179+253773049+253273122+252768844+252337458
2248+251989938+251641175+251225327+250779097+250377365+250026418+249681171
2238+249359523+249152051+249093241+249103380+249089156+249046469+249044090
2228+249121421+249211928+249217787+249178314+249257279+249511149+249785208
2218+249910838+249905778+249902351+249966009+250070260+250191504+250346415
2208+250563599+250865786+251240190+251601080+251843426+251964262+252082540
2198+252301021+252587670+252856865+253125100+253463475+253819163+254040059
2188+254077260+254045102+254104570+254338481+254676501+254940812+255048206
2178+255126603+255350197+255689638+255890788+255744276+255354690+255034373
2168+254939161+254970093+255001079+254985702+254871631+254616980+254290076
2158+254021592+253869522+253808776+253836867+253997940+254290928+254664604
2148+255120867+255750544+256716518+258235317+260420177+263143550+266256367
2138+269849827+274074562+278846155+283916455+289107963+294423770+300055240
2128+306244507+313063398+320357144+327863865+335361708+342783338+350141222
2118+357281086+363841685+369481839+374003380+377272350+379137924+379481271
2108+378351614+375941295+372398868+367871361+362686671+357203737+351562802
2098+345749128+339735973+333532820+327269400+321156452+315288975+309643956
2088+304249096+299203336+294584878+290396331+286557755+282986864+279668317
2078+276602467+273821064+271467070+269652015+268265593+267100369+266061308
2068+265153079+264389337+263744017+263138880+262537028+262014532+261667669
2058+261523537+261534848+261557559+261427934+261143078+260846129+260650360
2048+260601226+260720641+260993156+261378587+261848150+262382668+262982868
2038+263657150+264371190+265082459+265817133+266663479+267726903+269038675
2028+270448198+271744024+272882684+273899355+274725991+275330577+275803372
2018+276121770+276122143+275796926+275336827+274875930+274396050+273812772
2008+273068315+272220299+271422820+270742128+270068805+269277611+268392626
1998+267583871+267087868+267063097+267367113+267557733+267313327+266757466
1988+266207109+265831764+265674065+265707928+265778707+265728206+265606394
1978+265574432+265652029+265720606+265721192+265754788+266000153+266513096
1968+267073521+267338116+267237292+267067253+267091952+267269770+267482107
1958+267785252+268232175+268645573+268804746+268766320+268825486+269183748
1948+269810051+270667070+271815141+273041218+273694085+273393585+272617361
1938+272088170+272005033+272156641+272380324+272670756+273026906+273378368
1928+273739241+274369166+275484955+276813543+277893871+278776779+279738172
1918+280486962+280532810+280164302+280170517+280886758+282041169+283185653
1908+284042564+284606043+285019637+285383422+285757062+286253403+286965897
1898+287845023+288684586+289245455+289567405+290056554+290904800+291615643
1888+291590464+290945303+290204166+289649246+289319235+289171764+289100949
1878+289060126+289111816+289308776+289812663+291017876+293008795+294828076
1868+295014825+293399251+291340039+290009054+289538337+289501544+289527469
1858+289480680+289389676+289339637+289432559+289833634+290683691+291955386
1848+293632949+295770664+297802034+298329236+296919517+295062485+294179506
1838+294293185+294623623+294804051+295424174+297192937+299654787+301332706
1828+301655739+301458495+301144234+300296272+299072397+298336090+298471930
1818+299090296+299751562+300508751+301660995+303150868+304406315+304927693
1808+304892143+304961502+305735382+307407192+309550448+311239269+311840304
1798+311792716+312272081+314122738+316989338+319089338+318822487+317051771
1788+315889690+316214428+317484471+318970615+320513298+322022242+323152290
1778+324030936+325609807+328734876+332924967+336101815+336571768+335058740
1768+333145933+331857245+332083397+334138152+336828604+338457833+339054677
1758+339697477+340509854+341400113+343307273+347011571+351432111+354258332
1748+354755702+354328649+354401701+355456673+357321607+359340103+360812184
1738+362255711+365250658+370001547+373523837+372973694+370171054+367681255
1728+366118366+365652532+366409685+368029432+370408641+374350740+380359313
1718+386714217+389757462+388368590+385287167+383018051+382466806+383850529
1708+386978652+390857607+394209432+397299235+401675845+407286131+411410629
1698+412613799+412093203+410193394+407541653+406249520+407351441+410215733
1688+414459769+420782710+428514127+433118558+431790769+428491399+427162083
1678+428819759+432757241+436996802+439980171+442574132+445964311+448901051
1668+449650995+449721028+451738636+455831739+459709806+461724431+463186533
1658+466487892+473074700+483196122+494081978+498884113+497930320+498558239
1648+502727413+507057641+507952766+506941511+507401699+510567466+516442153
1638+524674456+533567599+539360107+540703592+541480491+545117811+551887551
1628+560226395+568884756+578019642+587668553+596635245+604510706+613021650
1618+623634725+634698043+642645810+647379865+651447043+655922914+660337842
1608+664067569+666952209+669199307+671110019+672977261+675187070+678037191
1598+681433656+685141293+689106049+693234027+697256813+701007563+704486136
1588+707777836+711092832+714543633+717838600+720647739+723373278+727129782
1578+732555503+738323080+741937173+744071480+748084321+755362938+764059477
1568+771422474+777647042+784964369+794591510+806867055+822437283+840006438
1558+852790255+858140688+861411718+864637504+867020762+868651838+869747437
1548+869833665+869217856+869081199+870030695+871361609+870354936+863864228
1538+854682216+848282565+845392597+843378469+839791011+835242764+832024436
1528+830950642+831322115+832630869+834902613+837205609+837884419+837066537
1518+835904598+834100215+831305708+828919467+828884451+832136517+838207026
1508+844437987+845524495+839785755+833305843+830148386+830063863+831746931
1498+833582069+833720786+831752471+829606090+829195764+830392152+831103422
1488+829446350+826110826+823170571+821692062+821453125+822086975+823792062
1478+826688422+830062797+832655586+833216064+831180060+827959815+826037739
1468+826385489+828180426+829699066+829807311+829667032+831463176+835467850
1458+838743142+837597255+833513883+830397692+828714198+827579888+826916846
1448+826834597+826861090+826460992+825571727+824626209+824542751+826008049
1438+828161391+828532652+826014016+822789792+820941869+820342965+819970781
1428+819635602+819937966+820816292+821374995+821318741+821242102+820991375
1418+819358950+816414859+813858152+812753958+812724553+812684848+812090774
1408+811444779+811203569+810880820+810199098+810134037+811361535+812852971
1398+813337165+813146385+812999713+812465231+811361890+810777901+811254709
1388+811513463+810253008+808827841+809955332+814286590+820086414+825551839
1378+830306777+834524249+837738387+839502781+840635457+842371086+844716344
1368+846812366+848328164+849639688+850977988+852249807+853356416+854123087
1358+854311097+853801829+852585838+850934306+849493442+848692109+848397061
1348+848526189+849337679+850800703+852455432+854079973+855795146+857537167
1338+859008147+860069085+860794702+861321300+861980862+863330953+865582312
1328+868151378+870384341+872569858+875431060+878904874+882264760+885203595
1318+888102796+891235394+894267559+896863189+899451219+902726795+906492674
1308+909927068+912981181+916320469+919816798+922410297+923737731+924781835
1298+926413196+928068208+928575415+927920755+927183063+926860314+926384074
1288+925115026+922855356+919742788+916448815+913971873+912713052+912103707
1278+911261320+909913573+908821809+909186464+911347690+914139853+915808857
1268+915672840+914765818+914736413+916254271+918663454+920868432+922217529
1258+922880145+923715996+925401124+927547647+929100167+929377884+928415675
1248+926681538+924768198+923323072+923007497+924045138+925605684+926173052
1238+925019920+922857061+920745554+918957365+917100209+915011076+913217205
1228+912469854+913000216+914264648+915161939+914680017+912922157+911252371
1218+910956470+912135882+914030896+915864756+917230828+918184231+919206743
1208+921020928+924174266+928429667+932632152+935353785+935967392+935387594
1198+935603731+937936204+941553138+944331167+945242095+945200047+945788652
1188+948002082+951779042+955820153+958486455+959766726+961408669+964230877
1178+966931130+968230011+968451546+968391811+968058195+967544453+967834103
1168+969690266+972716819+976054971+979045017+981284443+982825172+984057855
1158+985225548+986460290+987883682+988937233+988558372+987077661+986786733
1148+989309630+993311960+995812129+995365224+993369350+992596926+995014277
1138+1000341128+1006150966+1010091289+1012058894+1013565956+1015747069
1130+1018533479+1021007864+1022464213+1023411791+1024906636+1026619181
1121+1026566194+1023803153+1020031094+1017271675+1015727536+1014883587
1113+1015236381+1017648476+1021648888+1025595319+1028410992+1030382361
1104+1032229219+1034052566+1035419633+1036072234+1036298528+1036666237
1095+1037733923+1040040329+1043667278+1047656610+1050596155+1051812927
1087+1051404235+1049543740+1046853644+1044883340+1044874249+1047087893
1078+1051045262+1054616171+1054842464+1052084111+1050383996+1051624705
1070+1053095116+1052680031+1052327380+1054635632+1059195670+1062998058
1061+1063963961+1063238841+1063050760+1063655417+1064060843+1063999333
1053+1063235077+1061372309+1059614093+1059787685+1061642853+1063681485
1044+1064947266+1064858411+1063247719+1061325146+1060920858+1062651585
1035+1065679347+1068384785+1069020197+1067304954+1065007497+1063643982
1027+1063571960+1065420593+1069410209+1073158545+1073741823+1072238028
1018+1072005484+1073294989+1073240866+1070317302+1066038888+1062597889
1010+1061030311+1061192609+1062298721+1063673316+1064725944+1064655627
1001+1062790444+1059380271+1056199374+1055289157+1057108598+1059918091
993+1060843012+1058514658+1055079625+1054159180+1056439163+1058905239
984+1058635192+1055729811+1051750778+1047536218+1043641495+1040975264
975+1040054960+1040381900+1040751456+1040175991+1038576380+1036319268
967+1033740329+1031619661+1030912297+1031239166+1030663985+1027308858
958+1021043804+1013868533+1008321994+1005350486+1004159212+1003610596
950+1002664935+1000401146+997251857+994719726+992933525+990608440+987546443
940+984806556+982767356+980993089+979465926+978801605+979414715+980574026
930+980440423+977979107+974513319+972185036+971584641+971939352+972797933
920+974287593+975860356+976311096+975489308+974632219+974645430+975267276
910+975760704+975402867+973957883+972480085+972282557+972714404+971951214
900+969631881+967028935+965460506+965463844+966608168+967525489+966877434
890+964331736+960357462+956237084+954215499+955749481+959635538+963229886
880+964966225+964479402+961970710+958698614+956640450+956650038+957605785
870+958191123+958445117+959180820+960947346+963357168+964703778+962887534
860+957867450+952466304+949652052+949836652+951350391+952676120+953674625
850+955146812+957518492+959706424+959916594+958077976+956138285+955406986
840+955269334+954761843+953990839+953440589+952885509+951891479+951228579
830+952436757+955789966+959860198+963199913+965342387+966070348+965189749
820+963343104+961910763+962142668+964207793+966531885+967458297+967962450
810+969877707+972048806+972019258+970614050+970710150+972540884+973695934
800+972589609+969429168+965084415+960993727+959166117+960485099+963813448
790+968025238+973158255+978263359+980399938+978154189+973795656+970211395
780+968472570+968677839+970379446+971865270+971235185+968574210+965734033
770+964147278+963875882+964330103+964815789+964827508+964539350+964519320
760+964907485+965475919+966110478+966507877+966064808+964469672+961718349
750+958411947+956809211+959228338+964673023+969413684+971232273+970968619
740+970038372+968870324+967898951+968388828+971261963+975484691+978605498
730+979293116+978137356+975933940+973342004+971456507+971095261+971511411
720+970684012+967830481+965031002+964789864+966922252+969503605+971981543
710+975033950+977995869+978544841+974472549+965874809+956787264+952594793
700+954091698+956154479+954548476+950938715+948323553+946885388+945719613
690+944425562+942318460+939276209+937515934+939425438+943654488+946090377
680+944792633+941545467+939538230+941096929+945411780+947630253+942731627
670+930369713+917201494+912410332+915837481+921369886+925746389+927429102
660+925211410+920004382+915590377+916343055+922511583+927532945+923844272
650+913356490+905840713+906082135+909267507+909157911+904674015+897390852
640+889922592+886180578+887792619+891165077+891499048+889372129+889117566
630+891673918+893367285+891750699+888334843+884609876+880748393+878051620
620+877951472+878424231+875938054+870116638+863235137+857712321+856195812
610+860779005+870658507+880581124+883042866+875416641+863678562+856858570
600+858610748
##END=
