##TITLE=<SNM>
##JCAMP-DX=4.24
##DATA TYPE=INFRARED SPECTRUM
##DATE=3/5/2025
##SAMPLING PROCEDURE=Instrument type and / or accessory
##ORIGIN=Admin
##XUNITS=1/CM
##YUNITS=ABSORBANCE
##RESOLUTION=4
##FIRSTX=4497.3318
##LASTX=599.83466
##DELTAX=-1.4281778
##MAXY=1.7240855
##MINY=0.17575639
##XFACTOR=1
##YFACTOR=1.6056797e-09
##NPOINTS=2730
##FIRSTY=0.1972893
##XYDATA=(X++(Y..Y))
4497+122869650+122172534+121368221+120632610+120408927+120973020+122177137
4487+123541218+124582521+125169647+125507793+125703347+125518614+124764136
4477+123790458+123232750+123251868+123408547+123335437+123100692+122871738
4467+122662709+122530780+122715495+123421855+124522478+125498049+125764532
4457+125195929+124260282+123515762+123039581+122566927+122123506+122143561
4447+122846245+123805390+124255354+123681433+122260502+120881229+120448183
4437+121021844+121854870+122220578+121977332+121475835+121106285+120848943
4427+120343622+119427937+118292086+117149869+116139441+115418242+115064673
4417+115062752+115410512+115980896+116466868+116721741+116823100+116764440
4407+116561165+116482421+116631852+116576700+115937066+115014940+114380855
4397+114193467+114268721+114460081+114648498+114688357+114618300+114624871
4387+114677388+114496905+113869725+112767302+111369459+110127367+109470184
4377+109459187+109973658+110856863+111674864+111962469+111815052+111615841
4367+111432324+111313295+111599350+112289933+112734087+112486202+111915548
4357+111590896+111580882+111617150+111509712+111248296+111023759+111148997
4347+111643459+112059958+112058817+111832406+111660637+111509684+111285658
4337+110994619+110617970+110236995+110101884+110308175+110670951+111046552
4327+111493666+112013613+112369279+112307361+111937932+111726174+111939519
4317+112316716+112493162+112418205+112145662+111625363+110993524+110707970
4307+111037002+111593921+111733385+111425874+111367287+112117376+113484667
4297+114756159+115249387+114828786+114152152+114141340+115061341+116371049
4287+117323633+117413494+116518754+114997038+113524619+112639670+112470629
4277+112854620+113567188+114430421+115317189+116134114+116777794+117087134
4267+116969441+116646664+116506875+116557471+116385944+115873783+115537484
4257+115901030+116859359+117831385+118300475+118165614+117771898+117592352
4247+117786329+118140585+118412052+118521893+118494507+118453739+118612840
4237+119058396+119566714+119716832+119200245+118076820+116755967+115725586
4227+115317922+115605128+116314652+117017495+117646521+118520724+119616865
4217+120321990+120275960+119905686+119754278+119752598+119475053+118797536
4207+118098351+117979025+118754726+120036992+120955601+121005297+120532782
4197+120263255+120521683+121029231+121341122+121379227+121429081+121590948
4187+121590521+121345614+121272662+121688669+122269800+122430758+122034360
4177+121503546+121343266+121700631+122367689+123063487+123582840+123788138
4167+123753309+123852506+124308753+124734114+124602576+124045258+123588027
4157+123319493+123022654+122840733+123007007+123207675+123010107+122628743
4147+122544831+122706382+122759781+122745721+122942027+123265853+123416713
4137+123470001+123744010+124131314+124137309+123635004+123152773+123308830
4127+124160324+125124146+125486949+125061449+124312910+123798430+123686909
4117+123906258+124447326+125279275+126117832+126555138+126465249+126092627
4107+125718799+125486745+125565080+126110482+126935926+127574029+127792728
4097+127734374+127547803+127259233+126998392+126942785+127009222+126977948
4087+126906025+127020822+127269089+127393305+127355998+127298897+127230408
4077+127083307+126918990+126847680+126882704+126961401+127004916+126960213
4067+126863689+126829955+126904429+126936520+126742674+126446902+126388297
4057+126598876+126738089+126634948+126515817+126648154+127065897+127617675
4047+128092027+128340367+128284324+127810213+126942840+126158935+126073454
4037+126692013+127357836+127545789+127428143+127552898+128104472+128663534
4027+128780113+128588810+128608827+129050346+129633732+130048700+130286377
4017+130491110+130692919+130806955+130811474+130781880+130755783+130702904
4007+130623976+130523053+130329754+130036265+129812591+129735027+129571749
3997+129188353+128919986+129089240+129462632+129696950+129946404+130500854
3987+131187679+131593849+131607092+131433792+131276435+131200142+131262338
3977+131588921+132144039+132535278+132365393+131726334+131064529+130697995
3967+130718774+131135393+131844750+132613269+133219569+133518375+133404543
3957+132878889+132134453+131521685+131419621+131971556+132811023+133305745
3947+133276475+133140482+133253785+133568062+133892305+134056334+133974863
3937+133867926+134089177+134541832+134743233+134626097+134671979+135080794
3927+135505358+135637973+135510601+135300254+135208862+135486871+136226102
3917+137061930+137382063+137004300+136398065+136167144+136518208+137223936
3907+137945135+138452005+138666946+138776611+139112474+139553937+139489634
3897+138750004+138037668+138097109+138816962+139253506+138840172+138285693
3887+138388046+138875594+139132862+139421303+140171762+140738667+140332487
3878+139575003+139598417+140609281+142042417+143300693+143891801+143621447
3868+143084230+143008281+143365525+143667923+143736319+143746852+143898195
3858+144481061+145886003+147987765+149265873+148230509+145884435+143803935
3848+142753889+143011863+144371285+146144218+147736946+149037587+149907827
3838+149958850+149427174+149171882+149408511+149527354+149152821+148700852
3828+148654933+149079126+150057101+151715533+153453201+154191327+154155013
3818+154441496+154862589+154455193+153467873+152964195+153421073+154586695
3808+155727891+156292318+156791375+157949275+159227022+159569594+159520947
3798+160310105+161878788+163350400+164363770+165252542+166395892+167908615
3788+169737239+171820161+174159646+176873256+180195078+184158853+188302629
3778+192126069+195748200+199709470+204527032+210481261+217191592+223666705
3768+229552223+235627449+242623983+250628023+259710413+270134286+281628305
3758+293205291+304423575+316163225+329739907+345425403+361359017+375066068
3748+386614378+397769537+409079751+419182935+427530178+435476327+444089097
3738+453446889+463331615+473138609+481640127+488133689+492821197+495828268
3728+497092651+497044839+496723778+497053897+498242886+499887056+501648602
3718+503786704+506791029+510683588+514731239+517920203+520632088+524905101
3708+531490352+538717502+544524843+548411537+551464972+554953022+559143441
3698+563691262+568462070+573245535+577385135+580551753+583453698+586980688
3688+590679140+593092645+593484644+592076491+589428158+586242497+583221319
3678+580507097+577942955+576713243+578325117+581712828+584255960+584698184
3668+584374859+584748297+586315477+589051416+592051508+594040792+594896546
3658+595746434+597522198+599770402+601129889+600926911+600238870+601387472
3648+605119222+609456492+612852519+615386927+616932391+616834280+615804317
3638+616251144+619726684+625047590+629705029+632805238+635488501+638588635
3628+641298032+642953561+644345529+646527954+649700846+653091564+655408071
3618+656253690+656822163+658182801+659911384+660981586+661328594+661781546
3608+662834450+664357084+666009272+667876984+670975559+676341196+683152478
3598+688722429+691195661+691171458+689741701+687080042+684325580+683878493
3588+686255878+688875516+689244575+687094964+683801726+681770978+683036808
3578+687233797+691733398+694101800+693888280+692451469+691282228+690190570
3568+687997156+685446638+685148926+687861219+691462117+693228340+692193403
3558+689573691+686987907+685189908+684480894+684996210+686395008+688241562
3548+690483381+692744132+694116946+694364247+694070322+693488188+692464833
3538+691204051+690140976+689397365+689072333+689484006+690551535+691547050
3528+691759012+690736176+688611956+686864368+687287178+689401449+690121227
3518+687402179+683115653+680919048+682466999+686202647+689373385+690742487
3508+690824079+690436683+689816983+689349999+690368306+694173890+699926551
3498+704109434+703387057+698309777+692567881+688989998+687946003+688589981
3488+690192426+692344412+694343459+695195166+694640576+693543944+692789123
3478+692142770+690902553+689143457+687647995+686993104+686839126+686492191
3468+686078439+686002786+685623186+684351490+683631786+685792384+691039678
3458+696875937+700372005+700217581+697061691+692988463+690179730+688947828
3448+687632033+685391476+683976270+685049813+687590012+689887216+691920414
3438+693714553+693346608+689320005+683716645+680319467+680678577+683501936
3428+686616102+688543728+689008187+688542391+687581251+686331828+685230073
3418+685077802+686408223+688395095+689309759+687986762+684934589+681997417
3408+680526974+680041504+679300418+678128949+677099655+676627548+676992300
3398+678013354+678869590+679221795+679659602+680233866+679913808+678263551
3388+676439344+675924622+677151995+679559746+682255037+684250075+684697236
3378+683643442+682367737+682283992+683627999+685430527+686794432+687765075
3368+688371337+688059743+686889907+685689187+684758857+683841297+682982908
3358+682146495+680954832+679961620+680491190+682318886+683447294+682880528
3348+681819012+681487001+681475271+681107326+681009623+681929930+683248324
3338+683816352+683298586+682194975+681436071+682016200+684097210+686335615
3328+686988501+685706263+683363994+680797736+678627635+677490020+677746305
3318+679144955+680797068+681727100+681969353+682611177+684179025+685669810
3308+685753555+684572584+683512033+683312618+683432594+683342761+683386860
3298+683651460+683014313+680595500+677394174+675622976+676704018+679871341
3288+682806880+684155788+684582903+684877497+684882990+684777938+685193991
3278+685557704+684524326+682452299+681324485+682083760+683790367+685207058
3268+685877243+685867072+685472326+684983217+684337533+683197543+681443792
3258+679339915+677272713+675720159+675306704+676115499+676936247+676498664
3248+675438855+675612137+677409096+679124167+679512305+679632429+681000343
3238+683024261+683666086+682121104+679433015+676671797+674130781+672294399
3228+672093722+673698320+675650223+676059818+674758128+673334013+672980174
3218+673287463+673217601+672587284+672129061+672101888+671564152+669610912
3208+666902703+665083693+664906106+665604577+665970369+665669836+665224605
3198+664830602+664049350+662850338+661935970+661693569+661505588+660744382
3188+660052592+660567388+662177406+663616444+664104958+663861889+663209373
3178+662082821+660359213+658269368+656545685+656102830+657128116+658519044
3168+658556388+656347013+652758216+649576935+647618350+646323862+644905464
3158+642959500+640540539+638696361+639027036+641617497+644412866+645368958
3148+644278265+642195993+640195832+638739793+637741828+637219979+637468988
3138+638339775+638954279+638407336+636566573+634431069+633511282+634120662
3128+634739991+633883532+631901635+630206313+629473839+629122005+628073407
3118+625985715+623832541+622835838+622897682+622754506+621591056+619740679
3108+617867175+616302334+615264390+615083684+615937322+617421128+618457550
3098+618029729+616381328+615020838+614913187+615193934+614364908+612309437
3088+610564261+610720875+612686328+614593017+614660095+612971566+610885916
3078+609160377+607666029+606617840+606618545+607212669+606873010+605223496
3068+603914493+604295059+605454166+605476847+603870282+601883485+600826869
3058+600801924+601103570+601271914+601024242+599667576+596873766+593726562
3048+591766678+591417591+592169850+593405464+594401239+594596310+594220719
3038+593736102+592863422+591076707+588531831+585812894+583421959+581806448
3028+581170637+581149478+581095875+580605839+579598743+578293898+577320173
3018+577274514+577846551+577871571+576619141+574575251+572659393+571303729
3008+570555441+570401537+570620069+570724083+570225175+568808595+566643765
2998+564734514+564229221+565029590+565769080+565467768+564430938+563236380
2988+561871510+560371222+559328267+559080298+559056540+558490406+557375176
2978+556254118+555481738+555091076+555019135+555087401+554850122+553842506
2968+552187387+550617460+549517449+548353294+546591302+544727933+543797603
2958+544173157+545244436+545944800+545386313+543415812+540892355+539188347
2948+539020225+539603621+539364264+537872477+536352144+535841654+535904723
2938+535636708+534896847+533947140+532746346+531161533+529380090+527843313
2928+526894608+526385900+525721283+524555865+523192666+522055497+521161880
2918+520337791+519627961+519327391+519669128+520379738+520706775+520106230
2908+518713519+517091586+515753814+514858341+514220081+513673806+513227016
2898+512747003+511998567+511152539+510600214+510207101+509403948+507944716
2888+506105142+504366202+503142467+502495446+502064581+501482819+500738280
2878+500004395+499325079+498624417+497895915+497223726+496652580+496170599
2868+495782943+495386527+494669829+493505117+492315125+491590297+491180851
2858+490547973+489564338+488609842+487986652+487608425+487225706+486673381
2848+485887044+484930767+483995351+483125900+482097274+480842654+479747395
2838+479146664+478780501+478102001+476966428+475761179+474940654+474557453
2828+474214639+473484838+472360661+471225831+470435040+469981976+469544467
2818+468843880+467937270+467040758+466180476+465283852+464434038+463688423
2808+462896778+462066526+461546237+461452246+461288393+460507625+459167700
2798+457782637+456756163+456076809+455403024+454410145+453137336+452001281
2788+451373674+451144228+450883563+450426639+449923611+449295818+448217115
2778+446719909+445226303+443944176+442740821+441561334+440552642+439812929
2768+439221144+438520185+437613056+436717249+436016402+435337568+434490724
2758+433605608+432769491+431724532+430309734+428842410+427720572+426943144
2748+426239810+425425892+424454692+423324651+422166843+421254405+420639568
2738+419948484+418884370+417717319+416837436+416151364+415391494+414624497
2728+414016787+413460973+412731134+411773261+410758963+409937435+409327906
2718+408637156+407669000+406540963+405330220+403965833+402589085+401519922
2708+400859092+400514607+400407996+400324436+399902035+399040082+397990074
2698+396961559+395997968+395170947+394464903+393570877+392268780+390906694
2688+390022988+389622860+389272436+388728760+388041685+387252787+386416522
2678+385713968+385206782+384659727+383865818+382990539+382353763+381960427
2668+381475625+380656770+379623726+378695104+378095115+377787084+377472186
2658+376803820+375703735+374464483+373515370+373064311+372942814+372820686
2648+372535298+372089102+371430091+370478602+369352124+368375764+367812451
2638+367597111+367381438+366923437+366339819+365823056+365294228+364567879
2628+363692971+362907154+362343952+361914349+361454827+360910705+360322409
2618+359711655+359095742+358523965+358005012+357517685+357115292+356833877
2608+356534198+356052960+355450335+354890140+354331022+353586669+352717144
2598+352096701+351932514+351922232+351612604+350943051+350215662+349670353
2588+349292014+348959557+348651934+348464473+348387001+348177675+347652522
2578+346984825+346452433+346040352+345621291+345346075+345451425+345801551
2568+345984410+345790489+345360255+344967774+344804255+344853589+344899025
2558+344722886+344314887+343856144+343537014+343380548+343206747+342839248
2548+342340600+341914672+341627095+341389482+341143221+340880292+340596835
2538+340391110+340448313+340751704+340999636+340982449+340835115+340761690
2528+340741682+340639450+340412417+340149488+340017337+340124877+340370285
2518+340490075+340286762+339794536+339262627+338936295+338800840+338644301
2508+338385306+338145021+338001474+337874854+337616751+337110047+336393869
2498+335724872+335393269+335482471+335815262+336037321+335837683+335247198
2488+334605893+334150528+333823973+333492222+333098664+332636506+332183591
2478+331884357+331748717+331599193+331325944+331047164+330926558+330948942
2468+330959447+330863749+330709177+330582371+330509650+330455639+330327905
2458+330014269+329538079+329093925+328799851+328555483+328269576+328022869
2448+327882551+327768069+327611827+327458888+327328295+327155311+326935702
2438+326776193+326728678+326681905+326478184+326068924+325554314+325160904
2428+325111607+325370898+325597448+325510325+325218479+325056965+325181692
2418+325442245+325599416+325552161+325340422+325069772+324923032+325086179
2408+325501565+325831609+325820843+325565339+325318966+325192420+325136293
2398+325108563+325154334+325301667+325418153+325279654+324845634+324342197
2388+323929707+323350841+322034340+319512256+315621924+310369210+303824755
2378+296201597+287865305+279194885+270531463+262259669+254768439+248215428
2368+242436429+237265326+232879650+229702192+228168329+228719113+231701555
2358+237076527+244467938+253822315+265762604+280179134+294328910+303902709
2348+306222427+302148012+295543718+290161210+286621190+283565286+280290701
2338+276935805+273602049+270174414+266721072+263853131+262393862+262542439
2328+263639796+264809464+265646397+266451090+267933894+270529310+273960398
2318+277504835+280609145+283286766+286001267+289127015+292576292+295994869
2308+299096729+301683404+303607522+304937591+306023087+307216624+308545672
2298+309755821+310668351+311380353+312081645+312792069+313361322+313697082
2288+313922111+314254976+314766060+315302200+315596979+315455176+314972305
2278+314532234+314405799+314471318+314497674+314461221+314396779+314221158
2268+313889370+313524840+313297770+313283405+313437754+313634348+313738732
2258+313703096+313610776+313604020+313742036+313952364+314118927+314170637
2248+314119706+314067663+314121006+314277174+314450716+314576705+314630456
2238+314634948+314710229+315010428+315544527+316139059+316629095+317004055
2228+317328123+317644766+318043670+318681374+319617457+320734209+321883479
2218+323022875+324193861+325447442+326808785+328309110+330019652+331946647
2208+333921528+335769640+337572242+339580124+341881783+344314665+346682807
2198+348920098+351064214+353225889+355559583+358101304+360663850+363011278
2188+365068494+366903503+368629896+370335908+372032493+373682341+375213996
2178+376476597+377378195+378038320+378575611+378934090+379081461+379040851
2168+378708542+378046227+377332462+376873088+376627643+376299604+375702881
2158+374994276+374479220+374191346+373880197+373359721+372656721+371962928
2148+371429979+370931814+370609306+371683999+375594599+382219496+390005504
2138+397694293+404959900+411814242+418320537+424560488+430591409+436639146
2128+443010877+449692272+456369658+462652483+468140731+472654995+476202141
2118+478511373+479254538+478735918+477667090+476580517+476038400+476918245
2108+480028736+485756415+494251808+505434437+518208709+530041329+538265181
2098+541521335+539378741+532043383+521097512+508816024+496556585+484556883
2088+472441177+459637134+446160345+432770382+420115306+408503594+398258608
2078+389479461+381947064+375610895+370527231+366468518+363155308+360458310
2068+358165041+356037035+353995670+352030960+350257126+348911188+348000459
2058+347317653+346766886+346226700+345498272+344731127+344365335+344638584
2048+345588847+347234613+349586607+352910248+357851441+365003235+374696082
2038+387212845+402668190+420696698+440471383+460716023+479648616+495286931
2028+505901941+510484767+509305243+503841347+495956856+487131196+478009309
2018+468553481+458870509+449515464+440792110+432409454+424008385+415563031
2008+407246450+399203155+391515295+384303699+377740720+371909956+366748597
1998+362124789+357898214+354010704+350544481+347551887+344929353+342600522
1988+340609308+338944276+337511141+336281578+335284801+334489518+333791827
1978+333106645+332454389+331885063+331309982+330595623+329844997+329341411
1968+329175591+329123139+328927845+328574971+328217049+327934929+327686663
1958+327417460+327077728+326625036+326141459+325804807+325654207+325554351
1948+325430775+325372086+325453715+325548449+325398739+324927561+324349436
1938+323896224+323633741+323550181+323601557+323687752+323731963+323737828
1928+323759990+323911444+324284548+324777034+325175344+325421977+325558026
1918+325504423+325186221+324751495+324440977+324362985+324460688+324608096
1908+324758697+324991483+325355047+325718575+325852582+325672210+325387677
1898+325333220+325596186+325930388+326130545+326297256+326561930+326777678
1888+326709263+326389279+326060312+325879383+325823034+325821289+325895680
1878+326117664+326455949+326765613+326981027+327216746+327573035+327898996
1868+327916962+327635584+327373695+327340323+327442925+327471323+327353167
1858+327210027+327177732+327236532+327308955+327457440+327814916+328390888
1848+329118425+329946671+330683711+330978379+330783159+330488306+330400700
1838+330505938+330661699+330854617+331268778+332045834+332990196+333674190
1828+333942427+334008577+334022052+333970602+333914066+333979622+334200679
1818+334543381+335012295+335621527+336317066+337003807+337604723+338076830
1808+338444960+338833655+339385610+340143178+341052014+342024402+342944264
1798+343724105+344455688+345376663+346562906+347708241+348490198+349113424
1788+349983469+351172533+352525005+353972617+355507428+356971893+358144253
1778+359058880+360103989+361694369+363787852+365714959+366851942+367368074
1768+367760073+368357501+369413523+370987199+372752939+374315776+375701694
1758+377118087+378517146+379857144+381429150+383511014+385858814+387835217
1748+389166381+390110334+390945003+391854656+393025271+394434018+395816260
1738+397214242+399107197+401605597+403839844+404981133+405572287+406356248
1728+407438589+408797371+410504683+412530346+414853758+417690369+421190780
1718+424820410+427389118+428462512+428892338+429557066+430847137+432916899
1708+435747237+438940211+441884288+444568999+447678859+451543317+455447198
1698+458655503+461401539+463981531+466507030+469351845+472870074+477062646
1688+481816378+487257371+493223367+498329304+501527141+504007427+507120479
1678+511203284+516085046+521258878+526105895+530677362+535514580+540524484
1668+544971744+548889174+553100195+557948512+562920961+567375683+571338883
1658+575298334+579791884+585330616+591845486+597627993+601575751+605172046
1648+609567744+614331202+618109688+620535776+622477657+624740672+627654607
1638+631070196+634323937+636539920+637722748+638776988+640151361+641590770
1628+642720440+643654927+644942585+646908669+649423328+652380100+655964145
1618+660056082+663434476+664491166+663239813+660680756+657348689+653550752
1608+649860763+647032876+645631256+645856953+647685540+650996002+655421880
1598+660126612+663951128+666037187+666380928+665642663+664421601+662855535
1588+660869703+658660402+656770639+655580239+654959202+654700691+654999961
1578+656107730+657662437+658937845+660129804+662163894+665478143+669736159
1568+674300424+679097217+684543852+690843382+698069529+706896340+718266394
1558+730667153+741387735+751775489+763958050+777437252+790091845+800372542
1548+808003978+813566951+817807298+821118354+823435084+824010535+822234512
1538+819847104+818881657+819085526+819384500+819681543+820798073+822813453
1528+824832249+826326597+828032758+830881137+834374755+836969596+838323552
1518+839545877+841149212+842895316+844879515+847473020+850535513+853374463
1508+855273654+856033152+856485288+857359342+858308603+858962306+859549043
1498+860441435+861438880+862243963+863105915+863945224+863967868+862960920
1488+862149527+862591045+864085913+866093424+868033226+869055616+868810542
1478+868229671+868676535+870381954+872052776+872482342+872359990+872881988
1468+873730725+873867628+872989862+872007043+872171341+873822786+876122959
1458+877495996+877108377+876315766+876275379+876391197+875887017+874680729
1448+873305985+872450492+872181586+871810375+870985098+870349510+870463991
1438+870699562+870145566+869400842+869699964+870841736+871775184+871984473
1428+871846902+872112244+873231075+874800482+875679510+875145857+873577712
1418+871828193+870377277+869338256+868767333+868561385+868352096+867826981
1408+867025907+866026086+864625803+862859208+861415493+860860681+860851995
1398+860622141+859968289+859133657+858235326+857443904+856962888+856467395
1388+855189834+852977489+851060331+851108812+853737285+858126932+862772939
1378+866585724+869359638+871639618+874428231+878260914+882256929+884943534
1368+886127698+887163600+889078531+891245662+892331975+892105684+891630460
1358+891819035+892563388+893114117+893008619+892618179+892686333+893547915
1348+895204408+897681649+900553860+902616013+903161916+903308916+904820117
1338+907720168+910340549+911722791+912538788+913680856+915192429+916744463
1328+918377941+920404681+923042063+926298254+929814293+932817393+934565056
1318+935031891+934967746+935089503+935430795+935576829+935473558+935581952
1308+936160447+937024553+938061866+939368975+940749362+941657641+941780215
1298+941345601+940860799+940690933+940899479+941194518+940798955+938812307
1288+935205469+931140557+927808787+925352037+923347867+921801549+920952886
1278+920338976+918954210+916489812+913671725+911261821+909438728+908180396
1268+907509394+907404935+907859521+908643296+908926531+907903324+905746289
1258+903089901+899933194+895943267+891466830+887396275+884184852+881572415
1248+879223019+877160940+875387812+873560042+871519197+869694396+868495978
1238+867826312+867491183+867533501+867998851+868835636+870049126+871606357
1228+873237237+874603963+875644097+876548293+877406905+878206420+879269049
1218+881176110+883962793+886924763+889533339+891985338+894490420+896588878
1208+897807861+898748288+900689203+903911392+907260980+909876831+912379909
1198+915495708+918572159+920573062+921784696+923414982+925874776+928412080
1188+930336365+931820839+933428332+935553888+938293205+941165861+943188517
1178+944006666+944657920+946411670+949215800+951975014+954105544+956041856
1168+958182929+960251838+962083914+964097067+966361679+968195686+969173679
1158+969430557+969073897+968615748+969139008+970907458+973074813+975070519
1148+976931847+978721827+981025268+984902124+990037239+994331263+996232533
1138+996291110+995983969+996140249+996472038+996444420+996670785+998163203
1128+1000581421+1002941137+1005018065+1006598237+1006894241+1006092499
1120+1005736507+1006786070+1009223889+1012752326+1016624506+1019563757
1111+1020091248+1017811491+1014607566+1013313004+1014686114+1017219038
1103+1019788859+1022283473+1024256239+1025223690+1025567877+1025870562
1094+1026667330+1028668976+1031785220+1034218065+1034004841+1031611345
1085+1029760263+1030698908+1034248059+1038830365+1043742382+1048942532
1077+1052906178+1053097278+1049335348+1044815257+1042971524+1044235944
1068+1046270479+1047375724+1048358394+1050061438+1051636710+1052808550
1060+1055437171+1061189164+1068598319+1073646496+1073741823+1070288296
1051+1066360509+1063001195+1059457761+1056145813+1054777454+1055960431
1043+1058937916+1062604148+1065109082+1064375791+1060534570+1056406998
1034+1054808710+1056046477+1058059185+1058993375+1059001616+1059177273
1025+1059863717+1060472578+1060237601+1059097537+1058003949+1057856578
1017+1058320666+1058553490+1058523645+1058732785+1058979047+1058263425
1008+1056186424+1053619349+1052063454+1052460576+1053837844+1054091976
1000+1052404226+1050062180+1048745345+1048834510+1049417683+1048908158
991+1046127192+1041446588+1036317636+1031989387+1028837580+1026661985
983+1024969930+1022897828+1019882404+1016641359+1014708907+1014566213
974+1014882782+1013856903+1010655131+1005920554+1001730320+1000043388+999844196
964+997270959+990479797+982210991+975615531+970732915+966436293+962902584
954+960841767+960159703+960167796+960120875+959405105+957822409+955711107
944+953683848+952364637+951992981+952082220+951888447+951214773+950537758
934+950597969+951824748+953714436+954994669+954759990+953214860+951201335
924+949475426+948300616+947337323+946319833+945689442+945794791+945967701
914+945469833+944860527+945161356+945903853+945342433+943010410+940765175
904+940273840+940685439+940103751+938483562+937398363+937570308+938123858
894+938061569+937410836+936915937+937140891+937433851+935915300+931618083
884+926441616+923728804+925002949+928772303+932243797+933563453+932255824
874+928834370+924877777+922446269+922553623+924267506+925501560+925101989
864+924185691+924850159+927289388+929020569+927992982+925360426+923741573
854+923955688+924687346+924860182+925161902+926770732+929452065+931790400
844+932844046+932557174+931003654+928391812+925664893+924037058+923622637
834+923425747+922869227+922405807+922443002+922557781+922508410+922892168
824+924220956+926366706+928851965+930781150+931080347+930134426+930437260
814+933953374+939278325+942719528+942293972+939560891+937279501+936535222
804+936329794+935176441+932824668+930693396+930777884+933478891+936830187
794+938660556+938870884+939083365+940518320+942488338+943226900+942139474
784+940354987+939155157+939049585+940084893+941984307+943930197+945021187
774+944847460+943293570+940826870+938716386+937870766+937857774+937601490
764+936799896+936133498+936358229+937147350+936928409+935101233+933788927
754+935183939+938501380+941489780+943175302+943561733+942468218+940588627
744+940138942+942733931+946989052+949159005+947129073+943624022+943396915
734+947330567+951482194+952146217+949734680+946953490+945477851+944760374
724+942994744+940181408+939542925+943392312+948773613+950593291+948342934
714+945320829+943277310+942353217+943252588+945868365+947548245+945224908
704+939467346+934243884+932306532+932168515+929884675+923899413+916645869
694+910835744+906961486+904978550+905414649+907616080+908830090+905682738
684+897204717+887260932+881610724+882346911+886379379+889366442+890132919
674+889724067+887545354+880674678+867673076+855169344+855247892+866977278
664+879246331+885432642+884057155+877312098+870587531+868552699+870761035
654+872608108+870500741+864641023+857888763+853316257+851226337+848938191
644+845373894+843363562+845584891+851353663+858131684+863564658+865695782
634+863378162+857025623+848866250+842090530+839118612+839839727+841471275
624+841440613+839547361+836031842+830465232+824499495+822425612+826108399
614+831540482+832662654+828329950+823135368+821735530+825289210+832782778
604+842708300+851735045+853826004+845789799
##END=
