##TITLE=<SNM>
##JCAMP-DX=4.24
##DATA TYPE=INFRARED SPECTRUM
##DATE=2/5/2025
##SAMPLING PROCEDURE=Instrument type and / or accessory
##ORIGIN=Admin
##XUNITS=1/CM
##YUNITS=ABSORBANCE
##RESOLUTION=4
##FIRSTX=4497.3318
##LASTX=599.83466
##DELTAX=-1.4281778
##MAXY=1.8074919
##MINY=0.28305519
##XFACTOR=1
##YFACTOR=1.683358e-09
##NPOINTS=2730
##FIRSTY=0.30885303
##XYDATA=(X++(Y..Y))
4497+183474358+183620098+183744877+183302593+182541830+182167531+182347794
4487+182604698+182639221+182813075+183531896+184424466+184590229+183567411
4477+181706268+179786295+178622428+178777392+180137225+181724185+182323256
4467+181582782+180421376+180140607+181114598+182528446+183322935+183092835
4457+182163990+181161531+180558848+180477941+180835917+181443787+181895543
4447+181793868+181183342+180403513+179616230+178806232+178104300+177830117
4437+178195317+178961638+179437330+179077122+178120712+177350053+177307032
4427+178001705+179095446+180064037+180445082+180222896+179819490+179614512
4417+179700749+179992990+180270590+180316125+180241573+180310265+180295270
4407+179632818+178467376+177754786+177972830+178513141+178625066+178263212
4397+177796780+177418444+177061264+176631922+176246592+176274158+176930076
4387+177850140+178374234+178157696+177295967+176099294+174968693+174285422
4377+174303799+175102218+176318683+176998414+176383622+174905667+173704975
4367+173298737+173456410+174057003+175126189+176179795+176433689+175713859
4357+174635378+173941006+173888195+174107496+174029775+173602504+173334234
4347+173485498+173670293+173509965+173222769+173274199+173778005+174408412
4337+174691359+174346200+173409848+172052529+170459355+168979948+168149131
4327+168388880+169693105+171495204+172845902+173059413+172334449+171443065
4317+170866673+170642858+170795060+171309364+171850507+172103375+172271475
4307+172732242+173381893+173795054+173859868+173841173+173944175+174142921
4297+174301922+174227317+173758335+173008833+172464698+172678811+173752847
4287+175089152+175793545+175453307+174433747+173425499+172907158+172972380
4277+173372988+173707206+173784555+173746739+173686280+173424065+172932493
4267+172650378+172982755+173714040+174236293+174246685+174015682+174023560
4257+174454885+175082035+175577856+175749426+175468374+174706673+173785936
4247+173288044+173524642+174236594+174867780+175100129+175130048+175363176
4237+175803671+175906320+175260351+174238789+173573275+173476079+173659175
4227+173995570+174506475+174844393+174591720+174082250+174202867+175290961
4217+176693674+177470724+177215360+176240998+175229085+174693696+174705823
4207+175090639+175698668+176348231+176764667+176868059+176960156+177309422
4197+177665433+177499546+176641464+175435249+174400941+173980717+174418875
4187+175438825+176113989+175612998+174155969+172866970+172670826+173538203
4177+174697750+175419864+175633836+175807283+176268244+176836882+177182802
4167+177313034+177481205+177747226+177888417+177750767+177455003+177149165
4157+176767252+176244804+175827377+175876754+176381798+176913682+177148917
4147+177219999+177373086+177517410+177419913+177107825+176723293+176263871
4137+175793704+175525239+175455078+175408729+175547104+176214141+177202312
4127+177791044+177630769+177053846+176492715+176087433+175880047+175980181
4117+176411347+176998910+177472654+177614640+177385461+177032194+176952614
4107+177231524+177420037+177121723+176677386+176759055+177400580+178013903
4097+178231787+178137177+177797276+177175508+176396086+175679902+175185055
4087+175074652+175428911+176002205+176404654+176525697+176517376+176505674
4077+176528459+176568063+176525485+176333325+176137500+176228056+176714264
4067+177285114+177393516+176845982+176143059+175930238+176185212+176336564
4057+176126417+175847755+175721188+175633836+175590797+175877143+176586475
4047+177338315+177616482+177222566+176408160+175707910+175555301+175905859
4037+176283293+176303546+176140934+176366360+177207800+178046071+178005476
4027+177159097+176626327+177198205+178346917+178965108+178705744+178152739
4017+177931792+178039326+178027730+177649323+177142649+176880452+176974443
4007+177342688+177920142+178653216+179446076+180142112+180454766+180085795
3997+179127136+178109080+177450594+177147270+177128823+177515267+178303383
3987+179121719+179519760+179365026+178895000+178515832+178573848+179164173
3977+180066338+180917817+181477956+181657086+181364933+180589264+179662419
3967+179199015+179619345+180766818+181992543+182626102+182445290+181760000
3957+181118776+180922225+181189627+181755716+182692740+184108483+185487012
3947+186004343+185645995+185130133+184764685+184234837+183427637+182735920
3937+182610204+183232520+184436947+185678269+186232638+185809474+185000114
3927+184735881+185204313+185648739+185548906+185483100+186212809+187521584
3917+188382870+188008942+186570839+184974762+184083255+184187426+185288496
3907+187633916+191265096+195046902+197139420+196955686+195435401+193349877
3897+191096146+189585385+189790133+191476695+192985898+193147129+193062946
3887+194143427+195595871+195687365+194932304+195012804+195448449+194709356
3878+193365226+193065584+194103221+195835726+197852168+199319855+199141965
3868+198213119+198482983+199798308+200189923+198996525+197591086+197239217
3858+198528854+202032848+207419760+211114816+209303918+204215443+199572617
3848+196946179+196720700+198550099+201417861+204325528+206868791+208659524
3838+208873496+207411368+205547021+204406577+204003118+203952219+204153692
3828+204408613+204527814+205315682+207821129+211010557+212300441+211788828
3818+211629279+211597447+209989137+207233424+205188814+204936018+206662839
3808+209484730+211799982+213571984+216118311+219013655+220343410+220268592
3798+220262803+220183878+219517708+219188412+220311737+222841616+226241315
3788+230355887+235101539+240039688+245025549+250798234+258124470+266707200
3778+275717148+285100652+295453403+307195711+320068674+332622538+342901852
3768+350322203+355064562+356832138+356554928+356580103+357759974+358754555
3758+358869596+359819810+363865230+371767628+381865120+390536867+396549318
3748+402967015+412380740+423781183+433512732+440767231+448537592+458989024
3738+472231755+486845632+500575048+512038163+521343929+529064364+536393538
3728+544786127+553627550+559977086+562656069+563927294+565765262+567958586
3718+569622416+570269253+569728252+568073167+566018182+564829140+564373154
3708+562897128+560005307+557346294+556127615+555748323+555327390+555316945
3698+556396009+558179555+559961578+562149874+565888765+570831323+574737128
3688+576401348+576687729+576255466+575212554+574108881+573862086+575372599
3678+578768208+581723693+580993577+578008809+576174559+574880567+571618446
3668+566891596+563289663+562020563+562164037+561681282+560071626+559395365
3658+560911225+562302200+561354252+560556435+563576151+569508969+571875970
3648+566827861+559236489+554345309+552848464+553344107+554624680+556093411
3638+557315418+557620707+556457549+554651908+554432909+556923025+559756883
3628+559573079+557666915+557544403+560021347+563498855+565887243+566290365
3618+566029053+567223548+570088707+573185542+576009025+579433598+583078340
3608+584862629+584299993+583422472+584129821+586710192+590035374+592707347
3598+594682450+597022719+599904732+602232820+603421897+604080135+604695246
3588+605060092+605255121+605781074+606372603+606239468+605635900+605837231
3578+607194639+608759114+610060790+611287966+612011356+611983525+612243775
3568+613505581+614661233+614511244+613251917+611221966+608589509+606191879
3558+605056410+605330611+606128782+606254339+605237275+603967042+603325446
3548+602568631+600580037+598129153+597006997+597250322+597018824+595133905
3538+592323451+589909994+588572804+588171806+588152863+588268542+588774489
3528+589617593+590037216+589657782+589116390+588766062+587706614+585378667
3518+582976647+581666297+580674797+578845539+577030197+576962639+578325464
3508+578850390+577235884+574391509+572001846+571017357+571292018+572038954
3498+572630094+572959779+573084133+572800301+571775340+570062930+568257750
3488+566938937+566118777+565364299+564259812+562749512+561153629+559803091
3478+558620210+557451810+556594543+556304019+556197263+555707249+554481206
3468+552509820+550474558+549279107+548957919+548888908+548910968+549163393
3458+549225003+548599730+547598705+546796072+546228267+545569285+544460443
3448+542661176+540432620+538520260+537273007+536206052+534913476+533824639
3438+533386605+533118459+532245010+530832931+529618289+529111669+529322135
3428+530048286+531058411+531888166+531766043+530152280+527481370+524902521
3418+522986372+521261534+519224395+517240722+516241539+516937557+519231547
3408+521869882+522831993+520802431+516511562+512243672+509932969+509903120
3398+511300363+513226391+514921805+515374747+514090917+512161667+511206885
3388+511268814+510947237+509558068+507938639+507104953+507208345+507850331
3378+508703385+509641773+510509769+510931905+510418805+508800864+506598085
3368+504824065+504297580+505145819+506861770+508425962+508560513+506795875
3358+504347860+503029543+503238557+503813834+503809691+503442579+503211187
3348+503112469+503013574+503103546+503646070+504435425+504705731+504050679
3338+503270566+503551105+504757037+505300305+503970019+501270500+498746498
3328+497474955+497314698+497386045+497114854+496595062+496081608+495632030
3318+495140211+494515858+493969439+493870013+494085118+494006476+493495819
3308+493149527+493451134+494197007+494737690+494498473+493491889+492414560
3298+491896927+491712946+491181895+490334117+490034776+490764468+492003471
3288+493174561+494311907+495172574+494828831+493184369+491785994+491983359
3278+493234719+494048435+493856345+493206287+492732737+492653069+492764746
3268+492585723+491968841+491518095+491766519+492273706+492261207+491666278
3258+490877738+490029004+489054713+487847435+486252545+484513543+483461636
3248+483535994+483973356+483670899+482443014+480916142+479701429+479156214
3238+479502789+480598389+481702983+481846174+480614465+478633094+477125661
3228+476729656+476800118+476211953+474760820+473178853+471895660+470614026
3218+469225954+468323117+468377893+469018640+469527066+469607902+469358062
3208+468931783+468474133+467936530+466946411+465297204+463426661+462022585
3198+461227459+460548365+459637986+458807664+458357130+457785005+456405644
3188+454445234+452761681+451748901+451167109+450831511+450852756+451168597
3178+451217106+450397371+448816785+447177776+445889733+444644037+442939629
3168+440828593+438987049+437968073+437550787+437106096+436428313+435776306
3158+435270925+434779885+434237325+433646929+432918547+431997758+431028565
3148+430247992+429864450+429939091+430111706+429680328+428340199+426625451
3138+425267442+424414352+423754662+423007302+422118061+421285650+420758989
3128+420406996+419762921+418724895+417779355+417323864+417208717+417023921
3118+416487027+415595768+414618396+413797563+413003287+411938775+410637596
3108+409422812+408495188+407874943+407577090+407512576+407412441+407141073
3098+406895340+406908194+407126166+407242341+406945018+406235721+405540305
3088+405278178+405340673+405269397+404873002+404331469+403708002+402763029
3078+401500975+400528241+400357361+400596721+400402613+399536246+398367174
3068+397093719+395637982+394116705+392860104+392060233+391670106+391500819
3058+391317617+390979115+390499511+389956102+389380471+388705804+387874668
3048+387087721+386719688+386771597+386668559+385920207+384734033+383682091
3038+383051507+382752379+382538832+382123990+381351135+380380562+379555940
3028+379088694+378930490+378823133+378426915+377555520+376340453+375120605
3018+374188521+373601382+373166393+372658250+372063109+371509679+371008476
3008+370441273+369764693+369026008+368207973+367263530+366307722+365597788
2998+365296570+365331306+365440044+365298624+364692011+363637343+362352274
2988+361149883+360314852+359953724+359958539+360141245+360299874+360173007
2978+359601023+358737736+357863012+357085484+356424732+355946721+355608078
2968+355207717+354618561+353859338+352929661+351823616+350762256+350176640
2958+350248164+350547116+350383990+349540001+348388952+347342781+346562845
2948+346139505+346119287+346329364+346434207+346158944+345404254+344325509
2938+343294210+342543096+341948416+341347043+340812698+340426856+340084777
2928+339678291+339183887+338520833+337625219+336672420+335951863+335484971
2918+334976970+334258078+333601079+333388701+333602601+333891001+333990604
2908+333829072+333411822+332847239+332285063+331686098+330906516+330072866
2898+329535582+329346078+329111676+328550881+327892005+327464735+327192057
2888+326805081+326320236+325932800+325603114+325142737+324586652+324115404
2878+323727968+323290535+322788624+322326441+321989072+321804171+321722378
2868+321604787+321325275+320882921+320409124+320068993+319859801+319547289
2858+318979979+318323228+317741790+317108090+316329995+315653663+315323518
2848+315208087+314999639+314603280+314180435+313911475+313822742+313818174
2838+313770692+313534448+313005911+312271332+311583033+311116849+310824235
2828+310511298+310025816+309417362+308892825+308568097+308358516+308142314
2818+307881851+307553015+307098551+306515733+305921158+305451009+305100928
2808+304722556+304201419+303590344+303039287+302597605+302131031+301520240
2798+300893905+300483064+300297631+300148102+299889092+299475914+298962672
2788+298556505+298415439+298346145+297964338+297147684+296107285+295082962
2778+294177309+293423558+292832985+292352124+291874149+291344779+290805052
2768+290298308+289822263+289421247+289185393+289041370+288675657+287867377
2758+286837866+286056266+285711426+285565491+285285802+284728512+283966068
2748+283220637+282696880+282385712+282120788+281799884+281391362+280813996
2738+280039832+279259684+278726932+278438975+278142732+277679275+277161696
2728+276757175+276450009+276111241+275679793+275174394+274602959+273973455
2718+273379659+272951203+272673709+272386478+272022712+271689344+271450675
2708+271239199+271012375+270788630+270522060+270117875+269575581+269024860
2698+268597678+268271728+267904174+267483755+267195815+267097894+266939248
2688+266495778+265903346+265477934+265335735+265325130+265251499+265041281
2678+264679834+264118278+263368439+262628939+262152734+261959353+261797024
2668+261477022+261169396+261197439+261560285+261881154+261853854+261492726
2658+260931170+260274649+259670161+259244129+258962422+258737279+258573304
2648+258433990+258135198+257585504+256990540+256627305+256518620+256441749
2638+256167353+255659494+255127610+254850594+254879133+254984348+254955349
2628+254828712+254754638+254745095+254657920+254407620+254084733+253812497
2618+253574217+253287482+252966578+252680763+252420637+252159183+252001297
2608+252097997+252385954+252574379+252462542+252128466+251739419+251362321
2598+251056572+250948240+251047543+251135798+251003336+250715680+250500292
2588+250444329+250452756+250445179+250438699+250465627+250519731+250552501
2578+250479330+250258790+249973329+249758667+249689975+249792925+250071498
2568+250445604+250746998+250863349+250849080+250856569+250986216+251217236
2558+251437936+251509779+251351929+251013551+250638277+250348107+250176006
2548+250063425+249880294+249513147+248976784+248399259+247896179+247509044
2538+247237321+247056138+246910026+246751238+246595584+246490350+246417728
2528+246299306+246114776+245937098+245838327+245815949+245788720+245644201
2518+245367114+245114707+245047432+245111290+245124480+245053717+245066605
2508+245293377+245639226+245863767+245797713+245465726+245053823+244771744
2498+244692907+244721871+244747223+244760466+244764591+244676549+244436605
2488+244135423+243916689+243800143+243693706+243540637+243364392+243187652
2478+242985666+242718069+242374468+242004647+241687939+241437993+241194508
2468+240962709+240863247+240958318+241109546+241080600+240733476+240120277
2458+239467793+239067309+239060298+239289654+239440121+239359674+239169851
2448+239054101+239047710+239062104+239003344+238817044+238501805+238130851
2438+237804122+237543093+237286915+237017157+236816535+236759297+236802194
2428+236838328+236822802+236792740+236772805+236726863+236636909+236559489
2418+236529233+236495736+236463851+236574998+236895566+237239521+237365326
2408+237260411+237109254+237060391+237121399+237230970+237357518+237525300
2398+237768625+238085564+238496812+239182173+240516743+242953534+246921658
2388+252837090+261124888+272187236+286315684+303538223+323541756+345835172
2378+369931005+395224485+420804347+445674345+469135132+490653427+509459987
2368+524618158+535433977+541888428+544680150+544395823+540807204+533106278
2358+520613953+503539562+482911854+460088626+437928380+421078158+413216515
2348+415383319+426279089+442178601+457735681+469299568+476268819+479390121
2338+479872911+478977190+477584693+476333970+475538702+474731608+472924516
2328+469544132+464717714+458765953+451942549+444537530+436730734+428397525
2318+419468962+410348806+401597639+393311381+385055681+376396681+367321423
2308+358101557+348950030+339943251+331159012+322770849+315004242+307957943
2298+301469571+295299058+289447963+284103558+279293428+274826172+270566692
2288+266588052+263055147+260062961+257573695+255467156+253651212+252089800
2278+250721646+249455874+248285067+247287920+246472257+245721586+244939242
2268+244150879+243435120+242845840+242421773+242171597+242010826+241788675
2258+241413313+240908410+240348005+239794345+239300277+238911761+238644340
2248+238472327+238337953+238179927+237969867+237701119+237345143+236887351
2238+236412633+236064925+235907660+235896329+235971925+236110655+236299398
2228+236507067+236661942+236672370+236529587+236369736+236356954+236503562
2218+236660756+236696713+236661978+236758624+237128410+237694162+238262782
2208+238748192+239187767+239595652+239962605+240348607+240811374+241298166
2198+241716885+242044853+242328172+242647518+243071053+243598033+244185243
2188+244789749+245331281+245709636+245911551+246017881+246110332+246225002
2178+246336219+246372866+246305945+246173731+246003860+245808690+245636535
2168+245526858+245447172+245335637+245170033+244975394+244782950+244601359
2158+244437632+244308321+244210064+244131369+244090986+244133192+244338312
2148+244802177+245539110+246575950+248198742+250799597+254417853+258731401
2138+263453224+268489967+273868062+279690920+286028347+292825443+300008913
2128+307573977+315545031+323940630+332674978+341469343+350009088+358112109
2118+365664249+372540057+378519685+383181844+386100718+387178507+386630955
2108+384822270+382152458+378864879+375039450+370785653+366163433+361047836
2098+355333664+349046304+342187421+334757085+326893743+318867487+311018768
2088+303634958+296838659+290707166+285341198+280661263+276407749+272437625
2078+268787962+265530622+262737288+260417503+258443975+256690562+255159176
2068+253899459+252921698+252156828+251460898+250754310+250069215+249419492
2058+248833328+248426488+248204443+248016797+247847723+247826195+247942493
2048+248072353+248197025+248417335+248840710+249453325+250108394+250780618
2038+251672444+252887316+254266182+255650712+257018725+258387234+259779820
2028+261155693+262362616+263357374+264310916+265333611+266324331+267125141
2018+267606710+267692822+267436520+266932502+266179335+265191677+264122934
2008+263132727+262232173+261320518+260311881+259224779+258147644+257110468
1998+256098945+255241252+254775458+254693505+254610455+254173926+253442747
1988+252701299+252145196+251861311+251842120+251935722+251969731+251918495
1978+251848352+251812235+251848387+251941670+252024295+252141833+252454558
1968+252924283+253223517+253152789+252927328+252873861+253075210+253439383
1958+253903089+254425713+254923535+255329666+255659671+255985992+256382440
1948+256906304+257626170+258572277+259515161+259939404+259578471+258848107
1938+258398971+258454846+258777149+259072648+259289027+259559386+259970086
1928+260517797+261271195+262290897+263358542+264175869+264826796+265514015
1918+265975419+265839629+265417776+265424379+266131870+267213732+268182995
1908+268818802+269243966+269666864+270123842+270524574+270844770+271170578
1898+271598061+272106434+272561996+272980113+273605794+274434133+274949959
1888+274787489+274255463+273774160+273407225+273165723+273148444+273268973
1878+273297495+273180896+273103033+273398107+274453377+276304588+278124072
1868+278626284+277554231+276005619+275016190+274739581+274822968+274949481
1858+274998911+275014951+275123282+275411186+275919683+276679684+277696873
1848+279068975+280944121+282872929+283581730+282554574+281020408+280277545
1838+280452798+280951858+281430294+282229261+283801243+285793874+287160948
1828+287552421+287600824+287538417+286996513+286136466+285703229+286018078
1818+286700447+287275600+287760303+288552100+289767575+290899521+291382028
1808+291339716+291430803+292209748+293809277+295850346+297545743+298297034
1798+298389909+298844834+300515958+303184814+305234983+305162998+303759808
1788+302946553+303448782+304725176+306167529+307696171+309213588+310354440
1778+311191489+312574143+315335627+319178796+322297832+323073200+322062155
1768+320649793+319601676+319571012+320991093+323174751+324812344+325769037
1758+326825086+328065683+329332233+331312507+334670300+338596111+341230657
1748+341901925+341690928+341859364+342979715+344934706+347021204+348549315
1738+350046231+352987801+357549048+360967814+360603641+358196168+356226906
1728+355206089+355048451+355710407+356923279+358730725+361920294+366940608
1718+372308027+374916902+373791170+371191678+369236439+368734775+369916701
1708+372654957+376080521+379001661+381611031+385382923+390475753+394539656
1698+395976555+395498084+393452164+390764011+389604286+390901713+393891084
1688+397924182+403476893+410180759+414427404+413670908+411015790+409899795
1678+411343564+414833890+418789479+421862485+424507582+427509381+429911118
1668+430501408+430610961+432355239+435799357+439101772+441021285+442673360
1658+445941535+451958766+460990295+470825661+475688833+475652362+476853124
1648+480987879+485257575+486792095+486896797+488213273+491646662+497265268
1638+504981348+513612977+520047989+522731646+524560054+528555831+535251802
1628+543514548+552281791+561613688+571541859+581001119+589443102+598175467
1618+608371182+618537791+625798664+630452290+634661473+638978509+642867319
1608+646107097+648845990+651298715+653837411+656852984+660500735+664730667
1598+669390737+674320052+679458558+684789118+690201683+695497685+700483298
1588+705089195+709346391+713110422+715993710+717899237+719637141+722666170
1578+727906580+734462334+740049958+744505723+750182079+758539897+768711180
1568+778512660+787424262+796945097+808357225+822311447+839656994+858739313
1558+870612455+871529031+869603746+869325155+870130408+870668541+870261205
1548+869041748+867753315+866861595+866092530+864798644+861862102+856634084
1538+851353591+848181726+846257575+843539218+839420397+835678248+833978655
1528+834109807+834896718+835703458+836396042+836184585+834673364+833429970
1518+833359720+832982694+831351156+829909051+830463473+833513887+838630299
1508+843996621+845002072+839445041+832904088+829814511+829962163+831474872
1498+832560062+832248116+830864151+829889010+830581807+832571959+833774279
1488+832650777+830165336+827914296+826347909+825332261+824889446+825154157
1478+826176250+828029089+830697945+833335997+834207604+832945232+831548450
1468+831628968+832837449+833528263+832621955+831296627+831616859+834108532
1458+836596240+835288333+830365321+825979239+824036463+824023008+824593150
1448+824210105+822310951+819985200+818516823+818066360+818414352+819825014
1438+822098786+823343737+821886903+819161464+817359117+816596142+815695428
1428+814356787+813628724+814238948+815747054+817363225+818557755+818534315
1418+816594584+813538079+810771921+808793524+807474145+806510688+805606859
1408+804871077+804533637+804109376+802956273+801638735+801347963+802414245
1398+804329757+806534411+808242219+808328048+806744524+804974894+804149175
1388+803790844+802867469+801864214+802586753+805909103+810959159+816206793
1378+820723461+824408886+827391175+829593281+831074476+832376931+833933757
1368+835576626+837140322+838965260+841108588+842658546+842840260+842250077
1358+841927792+842094706+842405306+842701390+842995348+843177346+843271107
1348+843630429+844489361+845631487+846686155+847389645+847612433+847616045
1338+848071394+849303103+850889673+852385456+853925216+855883643+858342316
1328+861050971+863729033+866287699+868791695+871288255+873710741+876085426
1318+878754849+882100285+886168968+890800925+895794824+900732636+905034588
1308+908401411+910967512+913005961+914869211+917020258+919647474+922352446
1298+924317884+924899074+924440679+924171365+924604619+924613613+923005869
1288+920339066+918162030+917147515+916699105+915795559+913855829+911233924
1278+909037979+908205391+908608973+909137334+908803081+907817742+907357082
1268+908321388+910651742+913470658+915456066+915734870+915019412+915239085
1258+917720490+922263289+927590379+931811459+933182534+931699994+929399453
1248+928310723+928693768+929402357+929358521+928630742+928194159+928353779
1238+927818620+925300248+921493161+918326253+916807242+916462225+916419664
1228+916383335+916446503+916294956+915308343+913658463+912377891+911959791
1218+911970626+912238595+913200140+914805901+916115579+916462437+916314856
1208+916571211+917502305+918654558+919581615+920424613+921545777+922926413
1198+924569282+927034187+930562612+934147053+936727247+938803654+941391496
1188+943951012+945068140+945111055+946592745+951313293+957866356+962614735
1178+963428627+961729176+960133967+959531319+959457529+959955580+961684279
1168+964653042+967969089+970770513+972601612+973163327+972766543+972796215
1158+974450698+977056528+978956814+979931601+981174995+983237167+985288930
1148+986554418+987561356+989359808+992152664+995110593+997093946+997396686
1138+996319640+995262565+995922785+999123756+1003988486+1008246957+1010543531
1128+1012478872+1016308550+1020898654+1022549879+1019921601+1015758448
1120+1013679422+1015071742+1018616030+1022021093+1024520698+1026809412
1111+1028512758+1028332318+1026691007+1025542154+1026362632+1029874415
1103+1035871286+1042392624+1046935422+1049075422+1050092982+1049963247
1094+1047302818+1042645580+1039227345+1039204400+1041360971+1043658749
1085+1045648193+1046976708+1046501035+1044383342+1042315859+1041339230
1077+1041622071+1043792451+1048504005+1054606251+1059091830+1059533936
1068+1056610495+1053748098+1053799581+1056363275+1058545269+1058752619
1060+1059143526+1062667135+1068701398+1073264804+1073312039+1069625693
1051+1065591355+1064664723+1067844945+1072223166+1073741823+1071572151
1043+1067687874+1063696664+1060693271+1060530960+1063615508+1066644678
1034+1066084379+1063278210+1062334299+1063899411+1065293289+1065830715
1025+1067376069+1069703520+1069861016+1066885808+1063461058+1062178573
1017+1062777538+1063072063+1061405117+1058243237+1056106283+1057161872
1008+1060770957+1064096918+1064577053+1061767626+1057827050+1055922160
1000+1057303363+1060332816+1062599081+1062991828+1061560913+1058909336
991+1056164494+1053964230+1051519932+1048309401+1045540340+1044462161
983+1044360894+1043455294+1041512305+1040067014+1040011565+1040336612
974+1039247811+1035813075+1030899765+1026662044+1024665164+1024399957
965+1023812252+1021352728+1017278876+1013068772+1009819080+1007402047
957+1005106464+1002546665+999715427+996666711+993738880+991417094+989519995
947+987243886+984352171+981633531+979666323+977892940+975885650+974574485
937+974737575+975743592+977207933+979549193+981531555+980662497+977164027
927+973898614+972302909+971371461+970217933+969456374+970110930+972250080
917+974435402+974730210+972700259+969715279+967301220+966323883+967098827
907+968861234+969870296+969062919+966997418+964790638+963024124+961828886
897+961070867+960232189+959025832+958321705+959446481+962415741+965539450
887+967019512+966620533+965567706+965041187+964808059+963646812+960996510
877+957488480+954091631+951282205+949173294+947970548+947923456+949009708
867+950839886+952782095+954107919+954160182+952625662+949911696+947169757
857+945553303+945633396+947349206+949627581+950413288+948593024+945731264
847+944540133+946065447+949090155+951626160+952529210+952063663+951191772
837+950439915+949924938+949890876+950476173+951631684+953011611+953502156
827+951992351+949058642+946556204+945675815+946788128+950007864+954381554
817+957769408+958638325+957249333+954978182+953566882+954982572+960361995
807+967841407+972259994+969781988+962636475+956166409+952772393+951428157
797+951395653+953473971+957733788+962347261+965329763+966328982+966283376
787+966231893+966511617+966432728+965202152+963335574+962455115+963488750
777+965932765+968564017+969061219+965004079+957828044+952851708+953630688
767+958020948+961027952+961083614+961189697+963890350+967982544+970459771
757+970455027+970116524+971473224+973473149+973548214+971631074+969517560
747+967470117+964524369+961132761+959199686+960012658+963597524+968973407
737+973734391+975171184+973267569+970859034+969910874+969260921+966890627
727+963225809+960914930+962123411+966185862+969943024+971059940+970558348
717+970950175+972288037+972900316+973191158+974626606+975761792+973474211
707+967992388+962319855+957792636+954517592+954070457+957422196+961609072
697+962514388+960481958+958811542+958236726+957242676+955601224+954288926
687+953224910+951145034+947254029+942310905+937970004+934960379+932764859
677+930956422+929342305+927811751+926446765+924537344+920754404+916198788
667+915122946+918028824+921568580+923981931+925021728+924761336+923328437
657+920616808+916680764+912928205+911207297+911107021+910240653+906664498
647+899780864+891216192+885624036+886856170+892727979+896125253+893232334
637+888171230+886656610+888523329+889134332+886942920+884746267+883741242
627+881076847+874669524+867413538+863481247+864721808+869521387+874160567
617+875944006+873122753+866915770+862652412+864587469+871872278+878406291
607+876801026+867689226+858725220+855428294+856900283+858626361
##END=
