##TITLE=<SNM>
##JCAMP-DX=4.24
##DATA TYPE=INFRARED SPECTRUM
##DATE=3/5/2025
##SAMPLING PROCEDURE=Instrument type and / or accessory
##ORIGIN=Admin
##XUNITS=1/CM
##YUNITS=ABSORBANCE
##RESOLUTION=4
##FIRSTX=4497.3318
##LASTX=599.83466
##DELTAX=-1.4281778
##MAXY=1.7630306
##MINY=0.23508897
##XFACTOR=1
##YFACTOR=1.6419502e-09
##NPOINTS=2730
##FIRSTY=0.25864047
##XYDATA=(X++(Y..Y))
4497+157520284+156453030+155354177+154656615+154496654+154620295+154806684
4487+155110161+155500743+155638125+155322577+154877235+154753502+155013437
4477+155432697+155885880+156396092+156947198+157484291+157970291+158239082
4467+157980818+157199200+156506230+156483469+156812611+156558431+155460903
4457+154469265+154625704+155755468+156737414+156956890+156834773+156848640
4447+156783298+156228472+155219754+154084327+153083342+152508260+152748410
4437+153738287+154600384+154416719+153295849+152205653+151783244+151748631
4427+151477825+150844225+150341001+150330119+150343206+149573604+148077335
4417+146871076+146697683+147261240+147853965+148264476+148720155+149272767
4407+149683796+149783098+149604188+149268420+148934268+148658888+148282336
4397+147755571+147443699+147715667+148437624+149194856+149689268+149654093
4387+148877158+147681798+146895878+146923240+147211372+147031844+146445164
4377+146074647+146212419+146535871+146596349+146399007+146403172+146833522
4367+147223496+147023186+146333810+145555813+144710060+143735157+143176674
4357+143836374+145630330+147342800+147873840+147409067+146958525+147095181
4347+147576897+147853384+147532446+146572199+145348543+144503670+144513118
4337+145234539+145947766+146052522+145680753+145388583+145473800+145929234
4327+146719146+147580037+147855971+147171903+146104723+145575851+145732718
4317+146014460+146070600+146004631+146013144+146291782+146988864+147910658
4307+148575051+148738887+148611161+148532388+148629911+148724502+148499281
4297+147831549+147005762+146615089+147141074+148422259+149696320+150403384
4287+150653553+150688666+150395117+149661362+148777947+148199996+148145563
4277+148479070+148803684+148755621+148405488+148272816+148771721+149673831
4267+150331680+150515264+150677467+151186889+151723166+151763288+151334190
4257+150986208+151271308+152289200+153463614+154001888+153910264+154000780
4247+154587461+155009607+154786046+154292170+153947853+153654214+153292346
4237+152980846+152760316+152653410+152882978+153456826+153831309+153597203
4227+153204352+153389125+154116545+154686273+154760363+154697454+154851243
4217+155093626+155255075+155546537+156151223+156704561+156634591+155899148
4207+155046271+154647630+154896856+155627833+156484213+157104763+157357582
4197+157436700+157577149+157718397+157662403+157464089+157351774+157352699
4187+157326545+157268935+157314601+157485108+157583919+157412814+157085196
4177+156929192+157039693+157291423+157787732+158719074+159741713+160137268
4167+159734834+159198957+159262810+159906248+160433739+160378725+160069113
4157+160032358+160213954+160285958+160322259+160547689+160785697+160741809
4147+160506215+160282182+159951733+159344343+158630172+158144064+158113517
4137+158667345+159738664+160955768+161977844+162792478+163419943+163655610
4127+163405459+162965471+162741475+162862321+163091998+163053392+162684700
4117+162431282+162729749+163424335+163945057+163911242+163371463+162679672
4107+162306351+162521345+163162259+163898011+164637101+165422059+166091397
4097+166361387+166196979+165898475+165772383+165777356+165578535+165042676
4087+164581470+164814414+165941056+167515890+168758550+169120073+168696511
4077+168041893+167518558+167030362+166423934+165836436+165529456+165606650
4067+165968300+166408288+166788560+167196095+167758036+168241513+168179511
4057+167578546+167098463+167280713+167961123+168629881+169027687+169173073
4047+169123449+168994888+169026561+169301887+169437290+168904535+167804593
4037+166965528+167044610+167863763+168818356+169577122+170144327+170579687
4027+170944803+171305364+171610512+171693351+171428135+170849949+170249782
4017+170135143+170788981+171791709+172272935+171796501+170814392+170163948
4007+170302074+171054215+171939073+172672392+173350860+174057698+174424902
3997+173992955+173010719+172339747+172413347+172821935+173088567+173314723
3987+173788779+174390779+174723642+174640022+174422942+174466811+174891807
3977+175478179+175885078+175894589+175518128+174933735+174339612+173918755
3967+173933639+174635049+175889779+177083306+177663507+177660512+177450619
3957+177195948+176808525+176368065+176323505+177117157+178510666+179533687
3947+179541019+179032332+178877308+179174487+179374579+179184506+178846833
3937+178762487+179280976+180547486+182102445+182855566+182174412+180889098
3927+180387199+180933494+181462075+181187203+180816096+181413958+182681448
3917+183121563+181922791+179960188+178594921+178336729+178930198+180203043
3907+182394106+185505095+188575698+190256640+190337065+189580132+188309284
3897+186639850+185350561+185249136+185993617+186197212+185397353+185169128
3887+186653354+188409276+188432763+187594642+187751372+188118232+187174457
3878+186109944+186877622+189338548+192229280+194800743+196171147+195477414
3868+193901582+193244695+193134993+192024886+189948861+188474727+188713733
3858+191118792+196091193+202821713+206729148+203548262+196834296+191515400
3848+189233130+189676167+191699610+194325851+197444808+201090675+204142475
3838+204821524+203131252+200901692+199120758+197577489+196402621+196299217
3828+197308479+198792995+200934181+204474358+208182827+209100083+207460725
3818+206274785+205768929+203803404+200480544+198216443+198619077+201481711
3808+205003410+207460743+209608807+212919488+215934678+215767747+213221786
3798+210984983+209249063+207283412+205744843+205564190+206575449+208202774
3788+210347989+212999659+215713840+218232031+220988866+224166594+226921450
3778+228593825+230026195+232693565+237396413+243766880+250248700+255314559
3768+259229145+263217241+267637339+272543636+278622587+286169046+294069696
3758+301172175+308350052+317726488+330557339+345653090+358890550+367536390
3748+374287673+382685939+392339970+399465663+403652526+408893647+417968529
3738+431107940+446693720+461804936+473491830+480694736+484939826+488762988
3728+493377660+497768245+500358439+501581533+503204883+505950664+509698066
3718+514511958+520195880+526241143+532594494+539475082+546562768+553329262
3708+559830576+566596489+574185748+582500376+590437944+596734883+600976960
3698+603679361+606169473+610139546+616453328+624068434+629937309+631243206
3688+629371810+627857255+627324572+627199188+628320893+631536447+636016804
3678+639913876+641121396+639052522+636730702+636602632+637186499+636041997
3668+634049719+634081591+637135968+641817362+646243848+650147309+654378931
3658+658679961+661642496+663421614+666506702+672347336+679201497+683416784
3648+683071995+679926793+676636386+674742629+674660734+675735175+677097919
3638+678699089+680865976+683891602+688595575+695708853+703680581+708033449
3628+706648634+703672377+702631406+703297531+704506286+705911648+707441378
3618+708876507+711013772+715338325+721472417+726166516+726633493+724214168
3608+722041328+720739642+719516875+719477234+722356277+726871048+729578386
3598+729099647+726298507+722108993+718328376+717793588+721431542+726918965
3588+731083213+733163848+734570372+736379620+738625571+740588445+741400284
3578+741099928+740295931+738895070+736798680+735178634+735713422+739055957
3568+743882555+746968078+745872074+741599504+737060194+734150949+733080211
3558+733109251+733244219+733035633+732495399+731543003+730738933+731638185
3548+734680001+737426980+737459651+735877358+735317376+736570274+738704780
3538+741009248+743668959+746854092+749795210+751231863+750663460+748622248
3528+746030129+743621477+741337410+738395131+735004606+733532958+736304767
3518+742260620+747190822+748116936+745949323+742945913+740209171+738213916
3508+737820121+739560470+742772684+746195663+748196290+747297184+744078073
3498+741125847+739972488+739261784+737099544+733823803+731082124+730208719
3488+731966710+736077377+740520054+742745676+742204789+740780188+740621334
3478+742012902+743078703+742058641+740606305+742469933+747793493+751626747
3468+749957258+744757194+740393871+738480294+738127882+738186255+738100293
3458+738442758+740302610+742767965+743161905+740977666+738886358+738852598
3448+739854582+740480268+741033279+742016023+742886234+742779001+741655408
3438+740766829+741213841+742427460+743356624+744063117+744523778+743531015
3428+741084028+739163916+738560301+738121784+737649724+738309678+739751196
3418+740258178+739619568+739257646+740214834+742242833+744481378+746258972
3408+747136515+746782652+745290095+743587354+742921374+743706494+745165727
3398+746148762+745819728+743695023+740195304+737157408+736781836+739605701
3388+743761962+746488976+746440550+744565669+742951721+742848626+743723265
3378+744358826+744390843+744014183+743600568+744170641+746247283+748521185
3368+749147307+747613585+744777523+742227078+741752985+744308512+748016527
3358+748946780+746337019+744648363+747994819+754674590+758768558+757016883
3348+751664500+746224631+742354858+740681231+741503597+744209773+747482175
3338+750223273+751948375+752631852+752321260+751242245+750268794+750249264
3328+750558477+749846903+748713944+749313566+751702181+752954933+751010572
3318+747105587+743391618+740924594+740171854+741306046+743718038+746211345
3308+748024223+749271094+750156914+750265890+749498267+749116234+750380239
3298+752348631+752731027+751189318+749870135+750557170+752868899+754630447
3288+753789858+750735554+747759152+746322571+746366496+747835457+750854840
3278+754286966+756047498+755110639+752223828+749187093+747740421+748477987
3268+750232058+751078019+750642333+750396937+751608379+753881918+755651235
3258+755722821+754120053+751471523+748199775+744706445+741699986+739830115
3248+739256194+739866706+741099638+741591591+740679053+740068032+741726268
3238+744819850+746948475+747342633+746989713+746841750+747229228+748232156
3228+750065581+753113423+757006937+759717760+758849147+754347371+748935454
3218+745194695+743448321+742529830+741340750+739702044+738248112+737847638
3208+738931517+740878782+742515237+743574213+744504175+744846422+743794851
3198+742296776+742034537+742843834+743175046+742527216+741762061+741354326
3188+740971132+740527169+740619011+741248545+740898530+738601902+735880697
3178+734572477+734141583+732963829+731344363+730807397+731378196+732000542
3168+732499610+733177498+733713375+733753161+733415270+732739924+731565001
3158+730220190+729471878+729441168+729381126+728893747+728456681+728396058
3148+728289841+727597216+726069737+723522995+719973180+716160691+713463807
3138+712879214+714082233+715780763+717139877+718292293+719065507+718588946
3128+716898039+715283510+714556834+714310713+713932673+713199027+711921736
3118+710049904+708270423+707655119+708247335+708699212+707850274+706293609
3108+705666906+706538859+707822177+708359578+708186640+707787908+707208905
3098+706627289+706638615+707143418+706861649+704732152+701392521+698819061
3088+698619405+700508225+702354573+702326404+700791519+699291194+698428316
3078+697853742+697559848+697942099+698814487+699259249+698584919+696999867
3068+695153228+693343472+691544316+690016982+689108437+688522464+687708375
3058+686635387+685619609+685050625+685480648+686994187+688534444+688779259
3048+687436916+685199968+682940295+681339125+680599671+680323129+679964692
3038+679330220+678656326+678434381+678793182+678748096+677053777+674217424
3028+672175486+671634018+671409387+670694400+670172608+670398909+670734041
3018+670333276+669142019+667735786+666713328+666063828+664915914+662550460
3008+659856481+658783347+659927631+661567353+661795832+660765461+659833538
2998+659336576+658544485+657367748+656622050+656562734+656312329+655000479
2988+652754601+650368528+648545195+647643620+647772344+648724014+649832796
2978+650277630+649686502+648275259+646504490+644915227+644079503+644220351
2968+644858743+645087875+644086763+641610590+638436202+636135872+635942314
2958+637592056+639540700+640445179+639937471+638098311+635211282+632077406
2948+629633251+628201317+627773617+628478875+629799365+630085563+628187232
2938+625038400+622425517+620919383+619955661+619100770+618298515+617406886
2928+616206045+614729460+613397354+612705019+612642944+612822998+613324607
2918+614469254+615517921+614946614+612447499+609362992+607123539+606340125
2908+606824599+607596434+607548843+606615904+605575441+604697390+603410624
2898+601299786+598915673+597428924+597474300+598387927+598755621+597678204
2888+595305163+592490954+590261339+589128526+588668155+588080113+587123143
2878+586198190+585785555+586038828+586610498+586737589+585791436+583947484
2868+582119686+581041833+580523779+579819102+578691371+577760610+577622847
2858+577947053+577791321+576722035+575199384+573802771+572563160+571272836
2848+569998268+568905967+567945802+567020631+566188646+565502809+564773628
2838+563657332+562085638+560509225+559407886+558618808+557701370+556895267
2828+556908444+557648987+558014793+557219363+555623094+554058116+552965270
2818+552233512+551403741+550065863+548316403+546687716+545487020+544492624
2808+543488280+542699021+542313249+541908274+540890608+539329079+537822219
2798+536734201+536014568+535466856+534792164+533712024+532353708+531223182
2788+530578910+530114945+529483160+528836492+528510798+528322795+527682261
2778+526461237+525161184+524072078+522870438+521285603+519650637+518475097
2768+517810242+517323843+516789382+516208782+515566724+514717423+513504675
2758+511925575+510217172+508726865+507632495+506853292+506190433+505400375
2748+504264803+502851419+501541348+500522375+499485869+498123887+496644834
2738+495449837+494507641+493457558+492264377+491310528+490737116+490096110
2728+488896903+487243858+485666393+484490708+483632876+482881189+482116070
2718+481332728+480666021+480235417+479797335+478887811+477516899+476275037
2708+475510572+474886083+473959824+472737165+471487172+470417415+469597336
2698+468885325+468004297+466956284+466145570+465813451+465608169+464951372
2688+463631209+461954351+460495881+459668433+459355190+459004957+458175368
2678+456938261+455757967+455008457+454615969+454234481+453689456+453022931
2668+452219442+451220906+450126210+449110069+448238297+447475901+446742073
2658+445972308+445214195+444518956+443752712+442791022+441829478+441174824
2648+440794243+440307408+439414219+438279083+437450183+437225624+437173205
2638+436658491+435757752+435069845+434691914+434091094+433045186+432010786
2628+431380017+430969052+430471364+429951967+429578755+429163071+428368476
2618+427282782+426375471+425827578+425285711+424433143+423444591+422670977
2608+422213402+421967498+421775864+421451114+420931282+420421832+420144129
2598+420021649+419838001+419548064+419167193+418541506+417588094+416639690
2588+416161314+416148246+416119568+415715064+415025779+414323098+413740682
2578+413284305+412942275+412698622+412527680+412398448+412224021+411856327
2568+411252059+410619802+410273344+410326525+410619693+410920448+411071751
2558+410949634+410469080+409721058+408987994+408535210+408387282+408315588
2548+408085112+407736911+407542047+407651822+407925278+408157170+408328765
2538+408514264+408644875+408521742+408085693+407545278+407153734+406955639
2528+406823611+406627658+406301129+405859780+405399010+405002239+404670265
2518+404374447+404121791+403936837+403828478+403774861+403709810+403560430
2508+403335908+403149211+403084269+403044846+402838873+402456005+402121127
2498+401994037+401986051+401960349+401916425+401867854+401721125+401395105
2488+400943990+400497414+400144313+399895723+399729101+399679731+399834083
2478+400123040+400225954+399883998+399218017+398546410+398020697+397638337
2468+397475999+397671879+398177010+398634004+398611570+398037650+397325276
2458+396940630+396908757+396884072+396643105+396303908+396068495+395997708
2448+396086391+396272072+396284233+395817908+394965340+394157858+393652364
2438+393379961+393224592+393155112+393174061+393296904+393456484+393461602
2428+393233268+392962099+392839800+392776164+392563875+392225875+392009557
2418+392023932+392051122+391858326+391572927+391510199+391688074+391779662
2408+391568026+391250755+391184686+391419337+391657218+391673481+391557027
2398+391462172+391361001+391177971+390963104+390799604+390687397+390594648
2388+390474201+390170614+389438203+388072772+385961825+383077011+379528467
2378+375574367+371490308+367451554+363556951+359906147+356594867+353606340
2368+350760622+347923834+345298718+343366664+342584665+343273878+345631418
2358+349601019+354763294+360687710+367518021+375499151+383610529+389700587
2348+392211536+391368007+388942039+386571939+384323955+381587612+378289147
2338+374641065+370810715+367008354+363459265+360404670+358108878+356617664
2328+355701532+355157959+354923708+355021576+355609328+356849519+358644429
2318+360671375+362559070+363967880+364826256+365527449+366564863+368013060
2308+369556184+370843422+371714577+372290531+372865250+373583068+374327423
2298+374972167+375551425+376151155+376742428+377111066+377009459+376500227
2288+376016696+375929610+376203030+376563936+376821782+376933517+376896454
2278+376677812+376238750+375619598+374982223+374537425+374426198+374635837
2268+374965488+375116392+374949334+374642553+374454622+374405942+374380350
2258+374387211+374466965+374537026+374587630+374773455+375083902+375230087
2248+375053192+374773056+374711779+374974091+375418272+375788906+375917703
2238+375896104+375990995+376329938+376735930+376927818+376847302+376728670
2228+376837791+377184866+377543195+377744049+377857744+378034676+378276078
2218+378451195+378452139+378297423+378168518+378300110+378733509+379260238
2208+379687829+380036973+380417082+380848231+381260176+381586414+381843172
2198+382133545+382552351+383094254+383674419+384219335+384724284+385221645
2188+385700966+386105759+386424120+386705164+386972630+387209386+387435179
2178+387719562+388127333+388685354+389352460+390040003+390757168+391678999
2168+392940064+394432730+395930514+397318996+398639304+400054177+401804799
2158+404021673+406571790+409237564+411981348+414872769+417830948+420592992
2148+422931002+424865235+426682615+428706185+430991668+433296172+435403852
2138+437419109+439639649+442181309+444884581+447590249+450330113+453189989
2128+456134917+459034361+461724238+464017235+465801726+467096987+467832738
2118+467698750+466485131+464440107+462015882+459426486+456704664+453965417
2108+451308501+448592015+445562432+442184866+438687507+435288705+432044800
2098+428981928+426149533+423444845+420628277+417666105+414860318+412514830
2088+410631237+409030865+407642129+406494832+405459996+404274256+402968105
2078+401969679+401536243+401364503+401002907+400365423+399637549+398983403
2068+398533523+398376230+398386395+398254041+397804197+397166531+396593591
2058+396228329+396045698+395927973+395798850+395685700+395620067+395575743
2048+395571859+395657312+395733907+395647366+395487749+395526011+395863212
2038+396383371+396986950+397651188+398316479+398881469+399312436+399662198
2028+399942951+400058424+399941426+399669422+399347503+398994184+398596251
2018+398098055+397329778+396173224+394791385+393511915+392550698+391945921
2008+391599427+391284152+390776081+390080842+389417076+388928571+388517098
1998+388024201+387525206+387304604+387454020+387614253+387325477+386585443
1988+385798398+385255224+384927788+384703447+384558823+384454603+384262170
1978+383926276+383581742+383375624+383282802+383220836+383209111+383266285
1968+383262728+383025863+382538883+381935413+381368063+380958296+380780674
1958+380799551+380871500+380864712+380730942+380484421+380203958+380005174
1948+379968872+380196589+380810405+381596252+381864771+381188735+380040966
1938+379205677+378945289+378981300+378956325+378791772+378684684+378781172
1928+379031396+379445192+380079555+380694133+381027704+381365595+381992442
1918+382324126+381611825+380270390+379402284+379418874+379830093+380003250
1908+379790343+379470313+379282890+379194642+379090821+378995567+379032340
1898+379245827+379476593+379513293+379505960+379889809+380598624+380851280
1888+380184719+379122185+378345740+377997177+377981458+378237817+378598360
1878+378825133+378830505+378747666+378987689+380152266+382366816+384516242
1868+384865459+383152409+380922793+379507304+379033646+379067261+379268261
1858+379441490+379504436+379534348+379641981+379865450+380256886+381017975
1848+382531151+384932071+387253492+387652514+385761044+383427680+382203098
1838+382072160+382288079+382560192+383421945+385355814+387679377+388954236
1828+388908025+388536955+388160803+387282352+386042269+385254026+385275262
1818+385790303+386426335+387179728+388235401+389482599+390405483+390646196
1808+390476415+390478630+391094079+392525723+394590640+396554204+397645307
1798+398050500+398912107+401123572+404233526+406377834+406145579+404619661
1788+403863944+404641587+406425061+408516442+410652255+412620248+414120211
1778+415400043+417421871+420986496+425600297+429115117+429784764+428560835
1768+427285286+426837476+427729285+430143927+433074154+435034597+436084099
1758+437216912+438477868+439734576+441928544+445878179+450576162+453755088
1748+454569613+454273868+454334563+455448064+457604460+460114973+462111354
1738+463969064+467260850+472342427+476521957+477062771+475515581+474258691
1728+473906316+474627256+476532848+479325893+483018262+488428219+495913584
1718+503603143+507934194+507981748+506399056+505536940+506327288+509073323
1708+513595718+518877495+523660968+528292991+534435868+542030282+548029769
1698+550748687+551669538+551438372+550634012+551309866+554600092+559813660
1688+566322815+574877139+585275670+593127313+594954784+594401918+595643598
1678+599707945+605812960+612286394+618001063+623721758+630213125+635855773
1668+638630703+640080425+643154985+648372038+653918342+658330527+662303903
1658+667394845+674899886+685680304+697857517+704803738+705837812+707779849
1648+712737857+717552766+718913478+718420000+719249263+722351993+727427181
1638+733911942+739984467+741970211+739001578+735185240+733685713+734550116
1628+736270644+737721745+738775277+738776366+736617755+733300486+731103106
1618+730177137+728127430+723598356+718544150+714692092+711700444+708524386
1608+704788201+701016514+697916398+695813183+694528486+693489548+692303445
1598+691209910+690478006+689728461+688458647+686843247+685504171+684809295
1588+684572031+684259841+683551098+682626218+681942740+682176156+684240020
1578+688416247+692779135+694095559+692904519+692859723+695395430+698781816
1568+700912039+702330978+704833795+709524845+717417436+729593778+743904335
1558+752134817+752811543+753767424+758140403+764764270+772336467+780386896
1548+788590588+796832904+805376301+814313566+823096987+829491576+829969008
1538+826202912+824012792+825308307+828038950+829514954+829920292+831573736
1528+835495492+840758357+846224943+851862581+857412225+861291581+862946259
1518+863838686+864581189+864566959+864345159+865987422+871007650+878856317
1508+886503585+888887117+884937772+880736861+880059700+882578199+886999386
1498+891577684+893908652+893075033+891480615+892057077+895275172+898727917
1488+899490168+897668142+895686173+895147755+895909933+897236667+899234245
1478+902779050+908072626+913597004+916331786+914022308+908654315+904779533
1468+904556354+907090027+909754675+910417243+910078917+911355482+915211896
1458+919745108+920899266+917578076+913574715+911892739+912736958+914422637
1448+914875893+913628005+912037653+911275765+911307492+911973473+913762537
1438+916683181+918983002+919040503+918243113+918702903+920445865+922031716
1428+922457601+921995923+921404651+921310413+922251266+924404866+926754638
1418+927218930+925260556+922734288+921078231+920152625+919344416+918620354
1408+918214217+917719360+916463414+914939347+914525805+915437108+916404751
1398+916535000+916047185+914622366+911247595+906579198+902852814+901083570
1388+900172121+898710565+897150270+897234271+899693237+903524240+907199439
1378+910246483+913178162+915830467+916974969+916425007+915958175+917193938
1368+920080022+923483253+926268348+927780072+928100321+928104024+928657761
1358+929645587+930089187+929471995+928689053+928905988+930036986+931405684
1348+933077932+935391185+937961740+940230125+942352579+944767766+947249746
1338+948829789+948835815+947873037+947279731+947607458+948140431+948098176
1328+947829984+948279755+949649687+951362374+953033532+954587293+955658540
1318+955906839+955771436+955913083+956039048+955181543+953303613+951875091
1308+952239119+954034572+956001730+957565728+958524223+958312951+956946068
1298+955552758+954909139+954278734+952455255+949466075+946704649+945317510
1288+944673310+943107715+940280293+937621453+936049687+934413740+930926799
1278+925635547+920588456+917664691+916992829+917327235+917151538+915476314
1268+912537519+909828512+908640666+908496042+907610367+905098475+902073502
1258+900020165+898883431+897650790+896148359+895094174+894764851+894726807
1248+894597575+894307747+893923536+893559944+893296180+893253998+893836050
1238+895369047+897329090+898621555+898848292+898571605+898359606+898565506
1228+899815426+902394767+905200045+906575277+906355365+905998162+906713657
1218+908368916+910014519+910907599+911164829+911624546+913006603+915270341
1208+917862024+920373771+922886680+925754978+928961166+931829971+933765547
1198+935009805+936148934+937249439+938146150+939258053+941306526+944349286
1188+947645574+950306664+951833998+952589715+953860182+956507187+959689852
1178+962034687+963502197+964787402+965883551+966517368+966953490+967653739
1168+968932700+970788414+972723264+974449165+976635945+979870883+983236724
1158+985153641+985422342+985274451+985505399+985673110+985621563+986733103
1148+990164358+994790864+998359846+1000105930+1000968082+1001699332+1001849038
1138+1000724574+999078536+998759739+1000229354+1001946543+1003003704+1004397740
1128+1006679847+1008708934+1009619875+1009983757+1010951763+1013608280
1120+1018284736+1023183646+1025153127+1023687868+1022135632+1023183138
1111+1025106299+1024400460+1020617519+1016588239+1015300566+1017644021
1103+1022010321+1025795004+1027867362+1029164547+1031001384+1033911500
1094+1037394739+1040180269+1041680958+1042626021+1043675560+1044798716
1085+1046226730+1047975065+1049219686+1050324692+1053077406+1057631528
1077+1061483658+1062569207+1061719398+1061064235+1061407862+1061433345
1068+1059664246+1057106323+1056012280+1056895704+1058601421+1060800762
1060+1064362628+1068241186+1068773506+1064595972+1059615312+1058378097
1051+1061203051+1065169965+1067695798+1067802741+1065808720+1063679877
1043+1064022559+1067456501+1071701482+1073741823+1072700634+1069985745
1034+1066866825+1063516376+1060436952+1058939312+1059621991+1061952596
1025+1065387119+1069016287+1070578180+1068664457+1065747226+1065703519
1017+1068913410+1072115678+1072497057+1070463686+1068513952+1068488614
1008+1069804530+1070331768+1069063697+1066666588+1063561825+1059452175
1000+1054759673+1050877994+1049173365+1050409999+1053804445+1056225295
991+1054516601+1049232246+1043754115+1040198783+1038689745+1039163692
983+1041073132+1042236583+1040436483+1035822537+1030428117+1026127885
974+1023868212+1023582450+1023816011+1022479767+1018482650+1012586185
965+1006827955+1002951213+1000727478+998002135+993148093+986679014+980303447
955+975338833+972328525+971412358+972024758+972496817+971256626+968513858
945+965768912+963977887+963036889+962410985+961533369+960278003+959369531
935+959668435+961216460+963444623+965523226+966224563+964741880+962113896
925+960532692+960841905+961632108+961108283+959130162+956980772+955744573
915+955553702+956182800+957414062+958718071+959196810+958328415+956511180
905+954306323+951802706+949401459+948107469+948139342+948377405+947864179
895+946798596+945677254+944547854+943284284+941941433+940969579+941202196
885+942888239+944672221+944635339+942403836+939403621+937269187+936452557
875+936141384+935693428+935806469+937297066+939487186+941085379+942129908
865+943398415+944412232+943837658+941386679+938337674+936529080+937078897
855+939540403+942019843+942518766+940841944+938894171+938359528+938811404
845+938722249+937455339+935590042+934228387+934325093+935810608+937534694
835+938649792+939384526+940254156+941435976+942818032+944004861+944159577
825+942199534+937914984+933313308+931779222+935113989+942260810+950839492
815+958420692+962779078+963084589+960572768+957467134+955705513+955826323
805+956730439+956678238+955292769+953800720+952722650+951576623+950883489
795+951821002+953702490+953914996+951075667+947111875+945461771+947723621
785+952259520+956011749+957436424+957104922+956155647+955403052+955212762
776+955034741+953728046+951038931+948157638+946647511+946999704+948176224
766+948755154+948459590+947963209+947487737+946964637+947247931+949474062
756+953242046+956317260+957020267+956239212+955676908+955342502+954269223
746+953014438+953140984+954657935+956057126+956261138+955502880+954971069
736+955791329+957727268+959367716+959673807+958356657+955193885+950718900
726+947553877+948528345+953069108+956805220+955970584+951912118+948957787
716+949078307+950923203+952466799+952509344+950851980+948809606+948260805
706+949231135+949442480+946695283+941115001+934897925+930710372+930568362
696+934783939+941347546+947360247+951168671+951985156+948327962+939558844
686+928364666+919360389+915181839+915394854+918341707+921965576+923344728
676+920418276+914456107+906860604+895745126+881476678+874181385+883615903
666+899433684+906643814+904457034+899895942+897726224+897946572+898886263
656+899255881+898877841+898302032+897253656+894819738+890745227+886325782
646+883624398+883725387+885199721+884613676+880312501+874475860+870809882
636+871482469+875552842+879325255+879866868+878242973+876938238+876094455
626+874512524+871872997+868560083+866191289+866659792+869331337+871652141
616+872181121+872523803+876193557+883999751+890924482+891717589+888339333
606+885647605+885032228+884964563+884500053+883056285
##END=
