##TITLE=<SNM>
##JCAMP-DX=4.24
##DATA TYPE=INFRARED SPECTRUM
##DATE=3/5/2025
##SAMPLING PROCEDURE=Instrument type and / or accessory
##ORIGIN=Admin
##XUNITS=1/CM
##YUNITS=ABSORBANCE
##RESOLUTION=4
##FIRSTX=4497.3318
##LASTX=599.83466
##DELTAX=-1.4281778
##MAXY=1.7084798
##MINY=0.1790223
##XFACTOR=1
##YFACTOR=1.5911458e-09
##NPOINTS=2730
##FIRSTY=0.19943358
##XYDATA=(X++(Y..Y))
4497+125339603+125237262+125583722+126089922+126172128+125324226+123711948
4487+122283591+121904690+122605561+123902976+125384715+126654400+127227017
4477+126906976+126084528+125502546+125712389+126578927+127263550+126959635
4467+125753988+124544314+124049661+124171585+124452134+124819834+125542123
4457+126595045+127402143+127310413+126273552+124962894+124139041+124008989
4447+124248331+124359588+123872849+122664130+121303407+120714008+121309092
4437+122611199+123734527+124207790+124287964+124335829+124107537+123185585
4427+121885014+120962182+120640717+120586606+120513811+120264776+119607274
4417+118430415+117049089+116129516+116213586+117194940+118309878+118814270
4407+118616349+118118962+117666171+117367248+117216105+117042946+116560589
4397+115784002+115154530+115044191+115446673+116207452+117109072+117710496
4387+117659990+117210084+116942496+116999829+116935201+116269842+115023410
4377+113785846+113289152+113770300+114763801+115598649+115965009+115988769
4367+116031099+116392945+116926014+117021884+116313361+115267088+114665796
4357+114650297+114784657+114941672+115460954+116386474+117151599+117131061
4347+116151308+114571462+113144097+112511563+112649079+113105335+113679825
4337+114341466+114753200+114585893+114125030+113942262+114089424+114141419
4327+113980021+113986642+114303649+114449379+114058613+113534713+113494612
4317+113969401+114544481+114878589+114850812+114596045+114504586+114854427
4307+115428252+115808819+115986006+116331305+117007077+117705588+118015862
4297+117831614+117368896+116938497+116760571+116985247+117718981+118753884
4287+119423467+119131071+117962069+116570441+115623578+115420554+115856422
4277+116740305+118031708+119516846+120614092+120981568+120916752+120772165
4267+120518166+120166949+120018194+120174731+120321481+120283487+120362463
4257+120795643+121321575+121610037+121661021+121574525+121481989+121727588
4247+122449277+123124020+123191027+122762398+122225050+121743724+121512126
4237+121805720+122460955+122764973+122152658+120879301+119819927+119630303
4227+120322521+121568934+122931062+123795644+123766481+123229732+122961620
4217+123217164+123751422+124459701+125317661+125908998+125730416+124864271
4207+123829236+123018316+122707837+123140090+124111227+124978712+125406535
4197+125603595+125746843+125826127+126040268+126634762+127340119+127543013
4187+127020724+126090512+125144174+124444454+124263952+124770770+125723842
4177+126616182+127233704+127858811+128836335+130051198+130924002+130982983
4167+130389688+129737488+129374948+129157650+128883648+128682102+128804307
4157+129198969+129520509+129556096+129438930+129393528+129484397+129636944
4147+129724742+129701011+129747302+130072972+130484453+130498838+130015601
4137+129574320+129800795+130713972+131644203+131913054+131541693+131015246
4127+130524892+129982543+129544717+129459224+129645916+129977167+130548623
4117+131239838+131640700+131752537+132071923+132769348+133401966+133508934
4107+133054027+132363335+131932337+132107904+132741983+133331850+133594961
4097+133720715+134056115+134740260+135602032+136179959+135943622+134857295
4087+133651021+133165415+133480118+133978516+134152051+134052098+134060845
4077+134478685+135245992+135913917+135988228+135346994+134262764+133196310
4067+132686898+133080942+134091684+134945673+135215340+135220463+135449213
4057+135911987+136264366+136346985+136360526+136513289+136723019+136833761
4047+136926194+137150384+137382001+137292152+136734164+135987001+135594194
4037+135843126+136445346+136907333+137083256+137177899+137402697+137767007
4027+138063383+138118421+138133209+138443164+138931692+139210124+139297509
4017+139528892+139883893+139988416+139711585+139320707+139090504+139083677
4007+139334501+139958476+140924060+141881083+142399158+142312250+141771475
3997+141099504+140586796+140270379+140017710+139926944+140327496+141214357
3987+142049804+142342397+142136852+141810480+141637470+141684520+141972018
3977+142537265+143351172+144283060+145087059+145373611+144875278+143912869
3967+143268478+143380194+143961698+144526364+144937087+145269181+145441704
3957+145285663+144862035+144543736+144831852+145991704+147548007+148323929
3947+147658458+146408861+145945544+146533931+147341189+147685926+147648110
3937+147674107+148266231+149751978+151707354+152821177+152188324+150595797
3927+149569481+149542913+149692145+149432133+149346022+150264977+152015829
3917+153278631+152726215+150482527+148061746+146870623+147275709+149082508
3907+152293381+156739102+161169698+163799592+164091800+162597456+159619014
3897+155878613+153248542+153249684+155340834+157069576+156807467+156127265
3887+157125214+159168312+160359340+161073313+162585769+163411298+161540891
3878+158836040+158432650+160659809+164002326+167313471+169230872+168300136
3868+165910999+164897363+165359453+165046305+163135666+161289646+161254358
3858+163940854+169913022+177984554+182048368+176995904+168120196+161497962
3848+158721243+159505997+162892287+167486837+172205193+176583673+179631136
3838+179580976+176490041+172929243+170729879+169692906+169097514+168908077
3828+169262189+170151906+172272397+176362396+180637598+181530686+179570094
3818+178295230+177652019+175152450+171339507+169157712+170297570+174352600
3808+178812124+180995717+181854642+184019804+186700101+186901824+185100531
3798+183666030+182368521+180173672+177932259+177052900+177643254+179122276
3788+181259119+183899819+186548743+189208473+192750767+197232206+200888677
3778+202462118+203311135+205604280+210328218+217095179+224240076+229907056
3768+234141145+238322621+243159708+249127493+257072090+266811500+276325661
3758+283963291+291017253+300433344+314130199+331043275+346148915+355658337
3748+362863583+372213200+382997393+390575892+394688198+400187843+410299813
3738+425042988+441565036+455457789+464272587+469150917+472423665+475564966
3728+479213889+483360434+487380738+490596809+492590179+493336274+493832359
3718+495708516+500122489+507700651+518346241+529833825+538337553+542897659
3708+546434277+551815697+560109311+570767339+581529468+589438778+593023532
3698+593092946+592229338+593357864+598384387+607390869+617263543+622112204
3688+619867776+615291488+612706771+612951986+615405292+619181056+623859798
3678+629217319+632755884+631008441+626344046+623681750+623447848+622884484
3668+620852905+618954684+618774912+620452305+623179745+626819491+632157720
3658+638380309+642240209+643040958+645351054+653274112+664564093+670297077
3648+666190315+659374806+656485275+657858641+660741803+662566415+662820095
3638+663280931+666147461+671847630+678961922+685728883+690300451+690394701
3628+686769153+684296779+685741994+690460781+697381704+705451231+711845762
3618+713578072+711323792+707251418+702843851+700729747+703168481+708195266
3608+711638608+712799724+713763425+714290940+712770805+710390284+710157581
3598+713068688+717745819+722528214+726400850+728916003+729719000+728305027
3588+724349079+719072061+714928213+712752899+711736828+711891389+714319335
3578+718494949+721343273+720599688+717993207+717410176+720672285+725922857
3568+729358707+728754924+725357508+721764550+719643179+719322594+720109858
3558+721013773+721149903+720002048+718118474+716887531+717155821+718689367
3548+721372042+725600250+730488058+733043518+731217258+726850897+723432054
3538+722284048+722348705+722343685+721638609+719651420+716272510+712961177
3528+711939413+713913566+717610139+721351289+723877306+724937879+725377512
3518+726062734+727437598+729520760+731890493+733544511+733005458+729448087
3508+724390810+721160317+721699444+724959531+728684199+731420742+732149567
3498+730259326+726746982+723331510+720713492+719288506+719773016+721885547
3488+724066779+725382307+726234976+727025161+727617782+727743274+727016621
3478+725590735+725015721+726898022+730553313+733233666+733015872+730543274
3468+727888170+726577512+726773953+727933272+729364401+730048275+729803210
3458+729895362+730907387+731609167+730602386+728100194+725976276+726156984
3448+727957021+727807630+724132260+720678354+721653143+726093751+729445315
3438+729189088+726689218+724315965+723242880+723574178+724665169+725735482
3428+726929113+728846252+731021416+731974853+731256516+730416134+730865806
3418+731838198+731465844+729511995+727833702+727753538+728359269+727970582
3408+726105139+723652919+722208978+723233290+726606956+730108736+731593358
3398+731332710+731174179+732104840+733413849+733697273+732083188+728681652
3388+724306749+720361890+718732147+720239545+723622202+727138966+730016134
3378+732196543+733469290+733272849+731856928+730996917+732334771+734879892
3368+735600926+733233216+730013437+728566874+728792834+728928739+728458014
3358+728524693+729970283+732209354+733612014+732783544+730467604+729606319
3348+731848088+734992722+735847938+734082364+731327616+729040221+728525143
3338+730043854+731497835+730588601+727618681+724443404+722651608+723543835
3328+727217632+730956160+731161068+727636362+723586315+721786727+722757845
3318+725540464+728702405+731043068+732169122+732230032+731145035+728891728
3308+726376051+725119336+725904877+728079966+730367885+732089257+733400514
3298+734951965+737252022+739597480+740072026+737981222+735424488+734875472
3288+736592198+739183095+741167437+741460451+739812202+736941252+733549680
3278+730148144+727982794+728349155+730951290+734029021+735753389+735626024
3268+734938704+735233816+736409991+736929489+735611115+732568972+728856366
3258+725916939+725033327+726702779+729997329+733123383+734972119+735207819
3248+733568335+730987552+730318812+733420218+738444605+742030071+743253296
3238+743594784+744073150+743962118+741915667+737922784+733845241+731531699
3228+730845728+730103566+728173392+725768147+724430743+724456066+724715965
3218+724807592+725720722+727563315+728892553+729123008+729297647+730063858
3208+730844679+731257715+731395868+730827747+729472586+728665843+729257115
3198+729573729+727139340+722211076+718066629+717609389+720684947+724739939
3188+727615759+729016171+729106450+727515965+724509334+721379309+718937728
3178+717030105+715630816+714964849+714999837+715676368+716759717+717513267
3168+717336604+716255203+714528962+712455165+710614895+709469737+708901840
3158+708503039+707999424+707287005+706547466+706330871+707007552+708332595
3148+709580394+709873782+708731846+706519970+703873407+700892249+697731657
3138+695608787+695985187+698684420+701762524+703389196+703040891+700993467
3128+697971477+695363273+694489027+694991743+694751997+692357241+688994589
3118+686998110+687324987+689123452+691246621+693045086+693730907+692594664
3108+690444448+689361624+690245310+691640403+691559039+689680935+687238379
3098+685347913+684038229+682834183+681806425+681494232+681564507+680627552
3088+678178105+675602191+674598632+675618898+677843510+679563008+679137386
3078+676748249+674409983+673559262+673651563+673565555+673164955+672667409
3068+671612455+669608708+667459467+666570611+667344314+668717156+669433769
3058+669114683+667863213+665679208+663073701+661482466+661719590+662736559
3048+663109588+662834555+662529629+662142965+661527718+661117754+661281905
3038+661863662+662488348+662590464+661669917+660030584+658389677+656827662
3028+654999079+653065683+651616648+650702319+649601139+647881416+646155849
3018+645023277+643863359+641929963+640110671+639934983+641150267+641962928
3008+641561804+640756635+640076882+638985516+637368734+636186415+635811738
2998+634991210+632591509+629616645+628137266+628728913+630032078+630546032
2988+630121308+629552737+629380495+629621889+630166560+630657289+630237135
2978+628357495+625747567+623649721+622273283+620934755+619459947+618483022
2968+618456725+619076991+619706847+619869050+619365023+618320033+617095909
2958+615959179+614934492+613971465+612866539+611157305+608733330+606329059
2948+604727711+603751685+602680323+601381391+600365470+599940147+599889575
2938+599852040+599647882+599316846+598981765+598586035+597877550+596887777
2928+596216865+596350036+596716883+596009335+593660131+590503921+587900999
2918+586778429+587127858+587825592+587482306+585874739+583968577+582568277
2908+581775769+581452862+581203002+580229224+578202253+575978615+574712348
2898+574526770+574454584+573577603+572008770+570585507+569738082+569065222
2888+568029073+566570934+564988053+563694103+563114556+563380374+564058965
2878+564403712+563948795+562817684+561466345+560241883+559253084+558500208
2868+557812963+556811652+555387902+553986891+552894776+551736469+550335794
2858+549366249+549308373+549448362+548758345+547216446+545564638+544322495
2848+543525604+542982806+542445739+541852594+541469226+541380858+541010039
2838+539661659+537447761+535265480+533977073+533746169+533889416+533431465
2828+532172952+530941261+530425322+530264430+529701740+528612735+527397301
2818+526268625+525119308+523935941+523021350+522630865+522441316+521712490
2808+520133618+518178644+516504473+515382240+514727923+514283270+513754370
2798+513010934+512123540+511177445+510159014+509029439+507803404+506536575
2788+505268098+503934627+502468884+501101137+500273304+499997484+499632547
2778+498639777+497247194+496031760+495199806+494585272+493954517+493046519
2768+491699038+490129193+488819472+488067196+487713534+487225091+486064536
2758+484187518+482187817+480791451+480223929+480116305+479911061+479279332
2748+478190326+476713945+474945973+473157586+471761144+470921211+470295289
2738+469330764+467894727+466520087+465787291+465508287+464952040+463874310
2728+462729564+461826249+460917127+459732935+458425461+457330912+456569870
2718+455979497+455275208+454171518+452532147+450664307+449246850+448568446
2708+448133720+447379197+446353536+445399724+444635124+443985302+443358256
2698+442617555+441587549+440213359+438712104+437437596+436504387+435726901
2688+434971328+434239206+433440030+432528960+431753497+431337726+431096932
2678+430641228+429764435+428560014+427336976+426374586+425664341+425002943
2668+424280036+423532218+422857260+422374473+422065614+421630139+420746790
2658+419492585+418288464+417421073+416799833+416192491+415496930+414720230
2648+413864152+412952220+412071306+411287564+410586609+409924050+409263664
2638+408565293+407815228+407056284+406291796+405402903+404324686+403279322
2628+402621071+402404813+402253399+401733414+400825603+399939145+399420171
2618+399144202+398755965+398196983+397678909+397238751+396746786+396282055
2608+396052312+395990353+395820096+395428412+394837328+393978028+392833244
2598+391632083+390630846+389863586+389244594+388721462+388260140+387864672
2588+387624103+387590838+387640211+387549707+387200653+386669542+386138282
2578+385751355+385539031+385395071+385125170+384620881+383992149+383445342
2568+383069991+382795558+382498199+382139967+381840735+381743263+381803125
2558+381843919+381784245+381660663+381494303+381265983+380972370+380658640
2548+380408706+380246765+380067294+379773156+379423428+379137456+378954613
2538+378867406+378876471+378945585+378971620+378860251+378640996+378465046
2528+378420655+378398142+378242420+377995033+377853845+377909136+378014212
2518+377915879+377497748+376913631+376463247+376291043+376223427+375982933
2508+375557197+375203723+375052758+374921648+374611777+374169297+373744011
2498+373391810+373121797+372979299+372993234+373079655+373012826+372590499
2488+371936894+371485123+371474447+371627248+371507450+371039160+370499021
2478+370134571+369944872+369775552+369540639+369320036+369225374+369228895
2468+369209416+369112095+368964539+368790574+368603422+368459500+368444741
2458+368560343+368617582+368362778+367824025+367400875+367427247+367772555
2448+368031293+367960156+367607543+367144385+366669277+366160605+365636424
2438+365251821+365077031+364962927+364836087+364844478+364981807+364921983
2428+364467291+363856803+363469839+363440320+363599264+363653918+363456765
2418+363142886+362932547+362866205+362852232+362860960+362909621+362943223
2408+362891004+362790985+362727602+362690030+362600949+362448636+362307411
2398+362269089+362387688+362615259+362788213+362794169+362733821+362760605
2388+362782369+362493026+361700294+360437847+358690029+356195891+352737865
2378+348579520+344363636+340462306+336622897+332475678+328239753+324569028
2368+321777081+319656122+318021321+316915796+316318605+316300325+317516208
2358+320859119+326431474+333469123+341404205+350016531+358285721+364324718
2348+366688120+365365774+361973191+358690966+356309508+353959742+350701978
2338+346584277+342358429+338604018+335426231+332907519+331237319+330246309
2328+329438742+328638517+328095831+328041177+328566144+329761050+331583189
2318+333625219+335267400+336188546+336697818+337423909+338681822+340315762
2308+342033799+343575961+344681748+345253054+345497856+345717523+346058898
2298+346522543+347021887+347429117+347718347+348019078+348439194+348917336
2288+349276242+349382030+349294748+349259198+349439756+349696995+349744720
2278+349478078+349048072+348669949+348442191+348322318+348216231+348060546
2268+347844364+347608477+347420351+347321044+347321457+347434287+347625184
2258+347754459+347683397+347435410+347173901+347048372+347113028+347348166
2248+347687780+348027207+348269874+348410949+348525615+348623236+348590496
2238+348361914+348083809+348011886+348255602+348684558+349103925+349463356
2228+349816081+350132583+350329361+350449945+350602071+350761839+350874782
2218+351056576+351419640+351827957+352116587+352402484+352864668+353372778
2208+353662308+353757232+353920184+354288792+354795928+355336479+355830767
2198+356251894+356714565+357382256+358210950+358964462+359526440+360008179
2188+360529625+361090366+361671112+362261934+362769146+363096435+363347194
2178+363739702+364287745+364766149+365045864+365298384+365798665+366624812
2168+367622265+368648225+369786153+371250847+373122247+375278943+377580236
2158+380009755+382653771+385631895+389023579+392762182+396585296+400156302
2148+403252163+405848867+408126372+410408673+412935626+415644523+418336001
2138+421051154+424064715+427494534+431133231+434702963+438127350+441512217
2128+444978559+448610551+452462996+456392983+459886409+462316977+463466519
2118+463611265+463082402+461933647+460069815+457548556+454654755+451734769
2108+449053855+446784628+445011599+443708509+442739938+441870112+440786238
2098+439163612+436713565+433245574+428820400+423784588+418530007+413320716
2088+408386908+403920790+399882093+396061152+392431483+389222642+386572108
2078+384331464+382333336+380644855+379374130+378387241+377441558+376514980
2068+375793309+375350155+374997654+374479617+373730114+372910259+372251372
2058+371857253+371592447+371209454+370683138+370328128+370444179+370954275
2048+371544311+372040096+372495725+373030095+373754612+374830544+376449462
2038+378708312+381591549+385088722+389176716+393634705+398051113+402066960
2028+405448530+407919405+409116445+408813917+407204589+404881569+402366754
2018+399687937+396625116+393274862+390056919+387229760+384699061+382272314
2008+379914643+377748544+375891043+374316628+372879317+371464296+370059988
1998+368701606+367490779+366641931+366246838+365973342+365304190+364137754
1988+362843991+361750415+360875045+360119510+359492464+359083886+358895498
1978+358792108+358646538+358418667+358087332+357711306+357539813+357755022
1968+358099581+358077330+357554198+356862870+356336966+356053018+355966785
1958+356001473+355991284+355764237+355324454+354856052+354580158+354637846
1948+355029268+355664256+356432153+357036461+356945283+355970418+354669013
1938+353711156+353230916+353021588+352932695+352908758+352914752+352922806
1928+352988623+353382105+354311306+355389823+355989635+356192220+356444440
1918+356460697+355670587+354480888+353844664+354036947+354608140+355031778
1908+355070811+354801585+354434887+354060098+353643390+353248035+353107897
1898+353435823+354107110+354660959+354941349+355409714+356230092+356606343
1888+355879128+354640656+353816457+353520259+353376674+353215782+353114490
1878+353169331+353367234+353644664+354288942+356044964+359148280+362133446
1868+362604058+360153299+356932996+354894561+354322544+354547305+354870774
1858+354888680+354586863+354261034+354164687+354374688+354979933+356191546
1848+358311569+361329512+364001174+364125654+361448486+358472498+357132546
1838+357200948+357516064+357700668+358652756+361278529+364789749+366906063
1828+366689056+365548281+364573341+363455829+362099544+361208553+361149291
1818+361516476+361888831+362460661+363700406+365520597+367065719+367581546
1808+367298571+367126404+367877369+369873361+372644442+374899022+375567237
1798+375188739+375604922+378207994+382468043+385590089+385075798+382276022
1788+380425600+380847927+382768661+385109100+387504081+389684789+391204624
1778+392358473+394434106+398575706+404385147+409268496+410606725+408976794
1768+406601854+404989904+405256996+407852426+411410845+413777169+414876551
1758+416075690+417545516+419106258+421933005+427063517+433096670+436933082
1748+437470561+436492287+436010100+436938813+439232801+441955334+443954060
1738+445761590+449520684+455688469+460522783+460342862+457555785+455500232
1728+454749342+455196692+456916377+459670601+463653145+470091618+479588454
1718+489568114+494711438+493410932+489656146+487043371+486851762+489420221
1708+494628426+501216365+507173885+512477651+519330658+528032588+534866791
1698+537648698+538278254+537382768+535401310+535078740+538210039+543971755
1688+551239110+560685861+572214089+580728719+581884066+579860429+579832408
1678+583504819+590342805+598066200+604503998+610316735+616776710+622117299
1668+623906923+624259948+627111269+633199863+639798253+644305465+647777052
1658+653189826+662692581+676873366+691913712+698140797+696390132+697117010
1648+702698505+708100491+708309819+705670598+704770879+707021263+712323080
1638+720195042+727931174+729886372+724935182+719310907+717238009+718202459
1628+719863520+720957058+721531173+720738890+717668502+714451344+714212798
1618+716637747+717265879+712600511+705214932+698907008+694614968+691459845
1608+688319481+684991367+682248381+680707717+680045421+679536562+679018187
1598+678820697+678935625+678846395+678158026+676944016+675487788+673974545
1588+672408934+670766528+669238077+668126933+667659279+668388105+671310376
1578+676404739+680586496+679994325+677010845+677229537+681831374+687178518
1568+689608187+690280597+692227629+697076178+706394703+722248012+742308925
1558+754143577+753450938+751238613+753117692+758622319+766283979+774798834
1548+783448245+792944107+804439669+817661997+830821542+839987904+839348084
1538+831405996+825655630+825291667+827219744+827604160+826915492+828151529
1528+832233043+838058404+844821020+852448966+859426753+862957677+863292871
1518+863169402+862996036+861921603+861160561+863214504+869574423+880106958
1508+891863693+896553336+889071560+878381316+872836157+873416791+877817091
1498+882339137+884161276+884080512+884874144+887485120+890453916+891530972
1488+889946930+887156594+885206116+885394990+887554496+890236347+892653205
1478+895795366+900669089+906450247+910667367+910772256+906928839+902638297
1468+900908310+901872610+903294899+903137117+902684448+905031330+911112319
1458+917443169+917488945+910896998+904192296+900845302+900567946+901599975
1448+901924006+901246650+901225373+902703702+904746707+906761392+909372817
1438+912390686+913598778+911675796+908829120+907466093+907414772+906940077
1428+905353637+904126216+904925317+907915615+912280104+916911983+919619681
1418+918092129+913683288+910039909+908562778+908089206+906884261+904654255
1408+902910782+902789486+903247774+902794506+902019379+902249610+903236386
1398+903891940+903813199+902687969+900020278+896585552+894099543+893092987
1388+892193193+889613534+885769143+883329510+884163299+887653616+892078340
1378+896699581+901711456+906624962+910002598+911429532+912394282+913961542
1368+915541614+916764989+918447851+920749781+922163904+921637138+920208256
1358+919328691+919409080+920265196+921631219+923277745+925243357+927711984
1348+930376379+932467482+933868344+935527457+938140231+940936635+942378478
1338+942008896+940963681+940699212+941933151+944326484+946543154+947250028
1328+946522476+945644708+945500337+945929256+946481195+947057033+947837629
1318+949047743+950789343+952792115+954403953+955021747+954593502+953736337
1308+953188444+953045346+952822983+952277112+951587395+950818487+949952257
1298+949299026+949192639+949421296+949467597+949056134+947994437+945847593
1288+942472953+938725659+935922137+934564355+934064711+933552405+932315244
1278+929741354+925818072+921443394+917643656+914995519+913745097+913593309
1268+913319699+911737980+909094113+906422452+903929101+901024436+897467965
1258+893715876+890447023+888028518+886231102+884620089+883304336+882756444
1248+882835559+882746479+882051442+881073581+880345655+880213870+880840129
1238+882109506+883664404+885332881+887290102+889460771+891006379+891096059
1228+890124416+889447360+889948803+891383528+892971841+894229455+895260734
1218+896469126+898112055+900209377+902725804+905466392+907946408+909942587
1208+911909547+914186304+916298160+917857029+919487971+921913520+924653209
1198+926615599+927731164+929045568+931318953+934259953+937083853+939296552
1188+940955515+942604663+944764768+947214890+949254748+950877599+952903822
1178+955706294+958585336+960646396+961844523+962868610+964162111+965574885
1168+967063629+969053215+971541097+973552261+974243102+974120532+974523304
1158+976130197+978437596+980755708+982905174+984290003+983685246+981375524
1148+979943421+981347654+984723343+987959680+990043516+991181332+991985228
1138+993367659+996315628+1000686334+1004516266+1005553239+1004125481+1003108886
1128+1004154850+1005873074+1006345073+1005984930+1006865245+1010129677
1120+1014929153+1019339643+1021913608+1022179651+1020465846+1018535297
1111+1019229959+1023644944+1029049627+1031227863+1029460566+1027414340
1103+1028616213+1032929980+1037696416+1041121702+1043152120+1043790742
1094+1042844947+1041427153+1041533090+1043656559+1046299751+1047346689
1085+1045534140+1041947850+1039263901+1038754517+1039633184+1041397934
1077+1044536350+1048533578+1051970927+1055029178+1058780892+1062655626
1068+1065190183+1066020151+1065443489+1063618203+1061832175+1061966208
1060+1063502526+1063710280+1061554221+1059391868+1060166620+1064055588
1051+1068179282+1069744819+1069232139+1068951862+1069250045+1068530285
1043+1066365310+1064372127+1064315937+1066313090+1068624609+1069287130
1034+1068399848+1067968906+1069118335+1070918897+1072198013+1072964674
1025+1073562913+1073741823+1073019141+1071148453+1068360365+1065648696
1017+1064154858+1063945905+1064037458+1063694397+1062952011+1062023147
1008+1061239105+1061334104+1062697506+1064236896+1063883496+1061026182
1000+1057807526+1056852066+1058133505+1058852441+1056604154+1052039104
991+1047684056+1045058320+1043911888+1043555717+1043511289+1042908105
983+1040778492+1037329906+1033762645+1030620858+1027336647+1023557062
974+1019701284+1015737095+1010978675+1005825500+1002171107+1000933796
965+1000474609+998653144+995262097+991513229+988195829+985052693+981495772
955+977802570+975269436+974357130+973440854+970991331+968006427+966332555
945+965873668+965210847+963705097+961658271+959546115+957940571+957332517
935+957697829+958687677+959932929+960682957+959881384+957381889+954534914
925+952960986+952950497+953282245+952792265+952071456+952797659+955211220
915+957376195+957688164+957068797+957385935+958577544+958561137+955634970
905+950295393+945046244+942540157+943141468+944299962+943364955+940887412
895+939568663+940424105+941923262+942700561+943145064+943649353+943175107
885+940816538+937213465+933616761+930977241+929930752+930554764+932288797
875+934460515+936459916+937601029+937750045+937604700+937698950+937825865
865+937560422+936665273+935104531+933270554+932032569+932102995+933278721
855+934440961+934547423+933872315+934012941+936124797+939300598+941365480
845+941185296+938968101+935035155+930325358+927213689+927535622+930080968
835+932014514+932243620+931614738+931046917+930976716+931470292+932292019
825+933734087+936752031+941074788+944494381+945551283+945350796+945665012
815+947013354+948846207+950120304+949658120+947431260+945513223+946113785
805+948619798+949925061+947896441+943417849+938952368+936370686+936350682
795+938910637+943464450+947980502+949480184+947112624+943573084+942108840
785+943584772+946514984+948620247+948584735+947300824+947413954+950621297
776+955141320+957030363+954709478+950876625+948827028+949136074+950568103
766+951724350+951647182+950290448+948162783+945584997+943174133+941998257
756+942200992+942830398+943553530+945173534+947832384+950204439+951040326
746+950412343+949138921+948058869+948053624+949658869+951952482+952948399
736+952321091+951987770+953043099+954208261+953715809+951228526+947944465
726+945653849+945140794+945324049+944681232+943111949+941953904+942788518
716+946063139+950067859+951932104+950261304+946110638+941502059+937926333
706+936152967+936184584+936664149+935355439+931678346+927918990+926239948
696+926138356+925968961+924859839+922552740+919203349+915749443+912987427
686+910501044+907543186+904317263+901391471+898817581+896552737+894509208
676+892165697+888932507+884476841+878478713+871526624+867937112+871996899
666+877635259+877055450+871672419+868136101+870329845+875328385+877629041
656+875808400+872943069+871442563+869996150+866425443+862069046+860741981
646+863387870+866364907+865671594+861525648+857398358+855294818+853879571
636+851278035+848155877+846973408+848534075+851047055+852009333+849570224
626+843147822+834236190+826447314+823365988+826135046+833310923+841665072
616+846777191+845428250+838735160+831445479+827423752+827137631+829629109
606+834784982+841562956+845337296+842173557+833924371
##END=
