##TITLE=<SNM>
##JCAMP-DX=4.24
##DATA TYPE=INFRARED SPECTRUM
##DATE=2/5/2025
##SAMPLING PROCEDURE=Instrument type and / or accessory
##ORIGIN=Admin
##XUNITS=1/CM
##YUNITS=ABSORBANCE
##RESOLUTION=4
##FIRSTX=4497.3318
##LASTX=599.83466
##DELTAX=-1.4281778
##MAXY=1.7332915
##MINY=0.21084119
##XFACTOR=1
##YFACTOR=1.6142535e-09
##NPOINTS=2730
##FIRSTY=0.23322956
##XYDATA=(X++(Y..Y))
4497+144481372+144290780+143921457+143019248+141794111+140760950+140229411
4487+140335291+141090709+142159381+143075382+143738305+144200353+144232477
4477+143704049+143116543+143183864+144029442+145074067+145579048+145289970
4467+144655783+144373130+144756834+145559709+146145176+145872483+144797922
4457+143855207+143734391+143856554+143183652+141798292+140874649+141222712
4447+142452973+143548156+143864216+143482635+142857235+142344158+142048803
4437+141930148+141865992+141652055+141170806+140611224+140236621+139956220
4427+139553786+139268557+139532324+140080811+139945106+138583553+136635168
4417+135324588+135327875+136285092+137265377+137612877+137317440+136674713
4407+135873039+135075887+134689201+135141547+136281815+137270611+137348003
4397+136592327+135685825+135154766+135145286+135623857+136314954+136683030
4387+136447825+135856958+135126759+134171647+133163087+132579735+132404004
4377+132070775+131385281+130759254+130612195+131178525+132545617+134254015
4367+135350048+135345912+134638467+133795512+132980535+132135678+131322944
4357+130827831+130971428+131706593+132494911+132747572+132367754+131839483
4347+131807137+132436036+133190503+133522773+133596907+133854507+134226045
4337+134332875+134060773+133511105+132815919+132206913+131834360+131576169
4327+131418817+131609677+131992191+131889515+131199498+130828975+131459932
4317+132565353+133161435+132983793+132531807+132373339+132678451+133200943
4307+133565715+133590925+133345187+133072346+133159912+133886972+134964607
4297+135563625+135097848+133897366+132913066+132797715+133387096+133996904
4287+134034511+133372437+132371345+131600077+131416879+131778420+132375647
4277+132851892+133021050+133043924+133262413+133763480+134268914+134516369
4267+134579675+134745002+135158744+135591281+135632082+135197995+134629661
4257+134224070+134023748+134134446+134758895+135731814+136442286+136422209
4247+135766374+134920760+134352611+134377627+134927323+135499026+135651439
4237+135518587+135612254+136172723+136855742+137084523+136741435+136367414
4227+136508519+137096994+137668356+137895290+137804014+137711021+137895826
4217+138207556+138262998+138036202+137849246+137882062+138073042+138264309
4207+138261549+138057608+137909109+137920750+137913042+137915534+138285623
4197+139123012+139936826+140092174+139492243+138687346+138208498+137996084
4187+137815682+137866213+138411940+139130545+139412404+139185792+138992394
4177+139252172+139786711+140222442+140589965+141133679+141745140+142086576
4167+142159732+142268879+142454496+142356546+141765808+141044250+140729833
4157+140872895+141072127+141053268+140877381+140706220+140662363+140788985
4147+141010769+141194327+141213334+141009338+140745498+140757166+141143464
4137+141571191+141621943+141211727+140687250+140590860+141176714+142077382
4127+142601887+142357303+141473361+140396169+139644102+139599239+140279536
4117+141264132+141983724+142203422+142197764+142386463+142867869+143369573
4107+143571834+143392743+143018731+142743324+142720099+142816794+142783175
4097+142568212+142333431+142172951+142046818+141953142+141939360+142037929
4087+142335970+142904747+143568095+144012457+144127512+144004269+143804879
4077+143849954+144408891+145143752+145288567+144625801+143760875+143282396
4067+143211751+143386346+143788208+144288066+144520032+144227982+143510651
4057+142706963+142184757+142170366+142648854+143391432+144074110+144500905
4047+144844677+145416066+146041318+146129418+145540813+144816494+144419451
4037+144285962+144155020+143931732+143783999+144040260+144770810+145563263
4027+146029585+146312054+146750544+147299133+147604946+147504328+147184216
4017+146885354+146607371+146189715+145604830+145061993+144855145+145152909
4007+145851113+146659425+147411585+148159323+148863564+149195622+148886070
3997+148206632+147803653+147949576+148240380+148221798+148007390+148053120
3987+148621454+149625306+150682079+151241172+151008939+150375665+150163851
3977+150803817+151879671+152571737+152444174+151698236+150839855+150275398
3967+150122210+150348212+151040343+152265370+153665379+154595761+154729767
3957+154253531+153640483+153524948+154513642+156659405+158991172+159981270
3947+159177047+158004120+157941276+158495948+158125176+156646260+155244700
3937+154812800+155749931+158301672+161682449+163660928+162754758+160352614
3927+158977473+159397760+160411674+160920117+161338096+162564304+164403764
3917+165394969+164148878+160962838+157653712+155797489+155756115+157503837
3907+161628632+168471161+176304857+181756349+183008754+180725265+175992277
3897+170283241+166268129+166157265+169344191+172021400+171245960+169666500
3887+171352670+175529491+178106950+178381147+178571380+177815158+174364540
3878+170981381+171300423+174935366+179420539+183509425+185865894+184675982
3868+181886247+181440464+183081661+182681627+178591282+174065105+172784951
3858+176370305+185219411+197450198+204503452+198444598+185972992+175933421
3848+171259474+171767012+175820821+181468877+187700868+194052067+198687797
3838+198864405+195026269+190777594+187825615+185264273+182717738+181350665
3828+181618862+182867317+185855851+192327238+200172012+203045804+200119247
3818+196765720+194043630+189101357+182739246+178827632+179565945+184605476
3808+190980122+195089815+197709977+201903709+206011943+205350137+201031399
3798+197474125+194918506+191730509+188580655+187126866+187718370+190052463
3788+193937621+198490550+202157543+204812228+208196993+212863629+216565607
3778+217608599+217896107+220592886+227361972+237708031+248801302+257415202
3768+263542956+269175449+274929939+281432545+290785275+303721569+317380298
3758+328656177+339079739+353048888+373069507+396894771+417199150+429644078
3748+438829284+449265881+459503789+465177120+467559824+472519857+482987064
3738+497421160+511019445+519449925+522418427+522432458+522066911+522943966
3728+525436445+528730764+531808783+534118820+534610722+532074045+527605543
3718+524407558+525144450+531060113+541721613+553072262+558628212+557211476
3708+554110786+554532199+560280412+568503527+572868051+570801121+567290759
3698+567198560+570376126+575179454+581999902+591679040+601451005+605081739
3688+601247074+595971784+593497509+593880927+596091048+599740909+605513786
3678+613631447+619926466+618066495+611262553+606967704+604219195+597170705
3668+586316277+578220254+576074565+577952629+580327209+581985982+584347860
3658+587870037+591187213+594790069+601741006+613119718+624899460+629577210
3648+624458071+615476611+608803158+606411186+607146269+608432811+608828968
3638+609507113+612276042+616939465+622157265+628283246+636484724+644017509
3628+644447083+638210920+631556778+628573173+631487065+639690094+647887732
3618+651584560+653208697+656322274+660548813+664485942+667998076+669899438
3608+667849272+662708865+658811688+659349892+663846566+669331769+673862119
3598+677893773+681573837+683637518+684069823+685106870+688450704+693490457
3588+698018960+700183665+700355435+699310708+696158657+690833556+686465155
3578+686397363+690180962+694586065+697210325+698098420+698975734+700845785
3568+702428716+702030971+699949493+697417173+694790919+692107654+689712913
3558+687520811+685521452+684819085+686468109+689455406+691202131+690870332
3548+690107114+690617920+692277505+693646793+693740432+692787941+691732433
3538+690988489+689751462+687470078+685453660+685442730+687281839+689274404
3528+690224975+690239671+690106449+690696051+692160308+693277775+692887488
3518+691698094+691265788+691789074+691762341+689842960+686361989+682681187
3508+680105445+679589321+681141310+683380084+684909327+685865436+686600814
3498+686254836+684696719+683846433+684895591+686049834+685465623+684349042
3488+684320389+684646650+684029207+682773940+682137371+683208904+686353128
3478+690377102+693015836+693352583+692348546+690452279+686742602+681322016
3468+676683036+675257549+676843581+679527141+682110638+684306063+685713309
3458+686385399+687262639+688647878+689517881+689267610+688705332+688726970
3448+689418408+690435294+690732163+688534817+683670011+679008729+677265548
3438+677698962+677977886+677696377+677837205+678339888+678351039+677811802
3428+677533912+678241154+679787677+681119672+681319431+680462056+679408025
3418+679313278+680819480+682993785+683946571+683231649+682061233+681069751
3408+679868836+678415213+677211418+676768995+677254693+678057051+678285758
3398+678089248+678588608+680226334+682024236+682808722+682545897+682103917
3388+682264611+683326249+684923358+685811453+684903419+682918608+681776771
3378+682572704+684954817+687590745+688698464+687291809+684334937+681732315
3368+680291985+679369624+678164573+677066528+677364874+679519831+682489404
3358+684779797+685483790+684594218+682925402+681349709+680200561+680093407
3348+682292820+686870654+691308915+692331635+689185048+684386336+681129199
3338+680440640+681102835+681923802+682977317+684434263+685873412+686971973
3328+687417572+686671855+684874397+683500456+684031866+685745950+686105516
3318+684089393+681772783+681283836+681933255+681802766+680744525+680390055
3308+681798187+684295503+686562117+688042325+688888623+689096135+688459123
3298+687472589+687107189+687250749+686629762+685075263+684565712+686635744
3288+689840744+691414370+690745086+689318122+688251758+687763845+687834887
3278+688095201+687971284+687397781+686497279+685018917+683183796+682168682
3268+682722099+684085184+684974904+684994326+684693026+684989082+686514190
3258+688655706+689394186+687370678+684145074+682649875+683410878+684090648
3248+683157284+682198517+683474461+686542622+688683325+688249100+686235340
3238+684459002+683747182+684052469+684916712+685457869+684948466+684027435
3228+684265077+686009735+687569256+687037920+684396305+681309904+679479214
3218+679420062+680164671+680281720+679527954+678916567+678874621+678612387
3208+677940888+677924641+678865612+679272661+677654727+674479340+671687740
3198+670491994+670339646+670246745+670406109+671606581+673641683+675446157
3188+676250509+675766952+674218140+672606778+671872212+671621055+670618274
3178+668693723+667176148+667027492+667487860+667201256+666072786+665183805
3168+665171103+665521068+665428832+664787610+664023358+663433239+663178168
3158+663233038+662865570+661315133+659422706+658855258+659409413+659119117
3148+657416922+655961674+655935754+656531559+656255589+654495645+651938956
3138+650120893+649974896+650627195+650507487+649373700+647902280+645982824
3128+643266697+640752914+639980095+640921287+642109205+642779522+643611493
3118+645207938+647077989+648342192+648404889+646923942+644273466+641846380
3108+640819524+640920031+641093500+640827648+640237233+639501339+638847268
3098+638520417+638400488+638150291+637703880+637126684+636384734+635717223
3088+635569158+635814259+635819354+635461783+635269335+635526104+635894015
3078+635789889+634777508+632988837+631272094+630349881+629971115+629394953
3068+628393871+627313254+626431362+625749672+625202606+624581693+623392962
3058+621253883+618683643+617078927+617335770+618772814+619936584+620315276
3048+620564069+621092304+621242510+620044475+617382220+614252582+612018312
3038+611479223+612405350+613846603+614856215+614722181+612935135+609750849
3028+606515460+604656301+604432468+604954647+605186714+604683034+603667662
3018+602701768+602154148+601871791+601432876+600719800+599993948+599390279
3008+598831582+598431474+598251986+597858635+596974048+596090864+595703088
2998+595421063+594392583+592365789+590096664+588788743+588867945+589242575
2988+588379699+586181135+584088691+583365941+583920502+584692841+584759858
2978+584117418+583538376+583537674+583484762+582287835+580102453+578342952
2968+577673742+577234716+576264022+575189978+574577335+574127527+573234890
2958+571845811+570396213+569248985+568494075+568245982+568685156+569523441
2948+569926909+569330439+567959452+566425188+565179041+564431552+564171792
2938+564042078+563542792+562550608+561425239+560512073+559725629+558672004
2928+557025269+554932012+553194739+552684672+553250051+553635538+552868258
2918+551248145+549686630+548711579+548333330+548253943+548111823+547823705
2908+547606371+547579268+547522479+547131565+546284936+544961544+543104194
2898+540739583+538273247+536483099+535940280+536405522+536976551+536858468
2888+535930126+534638378+533477968+532512148+531401844+530006118+528715367
2878+528005356+527964887+528399298+528886510+528651489+527208057+525264047
2868+524102936+524016460+524136869+523760651+523054073+522365220+521561422
2858+520380741+519119529+518499022+518706202+518956325+518391832+517142694
2848+516015479+515321382+514534274+513162992+511600702+510733173+510685541
2838+510470274+509227414+507296918+505590329+504469502+503678701+502877377
2828+501913403+500884443+500041617+499482219+499038356+498505912+497770165
2818+496791237+495730596+494924878+494468239+493990221+493041719+491571480
2808+489944499+488612172+487808374+487488908+487420524+487195214+486364351
2798+484989893+483901855+483797139+484256990+484215672+483188004+481578267
2788+479998142+478716733+477698813+476877624+476249473+475697645+474957541
2778+473938070+472796012+471582505+470228356+468896434+467862009+467155395
2768+466719176+466596736+466617524+466309430+465429348+464216875+463014262
2758+462022447+461406149+461180248+460963837+460245850+458991322+457700238
2748+456763994+455998855+454979052+453647242+452312219+451127218+449922758
2738+448616536+447449591+446646642+446123319+445726460+445494134+445396987
2728+445038123+444059490+442796174+442025644+441981410+442046950+441535922
2718+440397482+439043332+437768496+436512121+435114733+433684188+432549440
2708+431781422+431043238+430166884+429534857+429474154+429599289+429311393
2698+428642035+427960124+427185385+426016926+424653656+423627391+423130653
2688+422902205+422529974+421712625+420515328+419404065+418787730+418565448
2678+418304100+417791300+417164146+416498702+415631211+414542729+413555382
2668+412908400+412448365+411907170+411242760+410610031+410107348+409638561
2658+409112506+408663215+408369226+407936108+407128507+406261828+405748769
2648+405455740+404922189+403937944+402675144+401485565+400655809+400215011
2638+399939890+399541702+398859717+397981480+397209991+396815052+396798436
2628+396906513+396793968+396209684+395157277+393909579+392817220+392056956
2618+391534888+391074630+390700591+390586459+390679285+390606250+390082003
2608+389219238+388321764+387546767+386862012+386200297+385574584+385100812
2598+384865717+384679104+384119299+383044369+381898507+381281545+381355319
2588+381783120+382038486+381729986+380879775+379915063+379199144+378669765
2578+378087179+377415162+376765042+376208339+375834964+375747713+375816908
2568+375657988+375024188+374069002+373141472+372505382+372282620+372396604
2558+372525764+372409971+372188833+372083674+371883324+371220391+370212035
2548+369370944+369006246+368990774+368971131+368709746+368334599+368150090
2538+368141892+367963365+367454368+366840950+366394281+366140687+365909248
2528+365569104+365198941+364953655+364812901+364626398+364339721+364019701
2518+363759830+363652049+363726672+363871820+363882676+363597586+363031984
2508+362437915+362118670+362101242+362112245+361902000+361445066+360846012
2498+360232631+359735634+359417903+359211166+358987185+358665171+358255094
2488+357881940+357715930+357741371+357691671+357388341+357016184+356858851
2478+356898581+356878458+356641110+356220546+355697223+355142920+354685063
2468+354477070+354547263+354724092+354751342+354487520+354003077+353493157
2458+353103905+352840268+352610896+352340945+352060064+351867432+351789559
2448+351736315+351645113+351586367+351638983+351729004+351697840+351494980
2438+351186148+350803357+350373156+350046010+349913785+349762803+349367532
2428+348920050+348757031+348823494+348834202+348784133+348908234+349262778
2418+349644018+349864676+349925157+349908099+349837500+349691540+349448174
2408+349072214+348579168+348137336+347967744+348103292+348325316+348360024
2398+348124117+347773524+347507671+347385379+347351889+347320282+347173953
2388+346837723+346356308+345726459+344691997+342940841+340496992+337709010
2378+334834959+331840610+328682134+325542600+322585027+319698607+316793540
2368+314206351+312487282+311780668+311677022+311856694+312647938+314566507
2358+317554136+321204108+325630073+331528123+338984290+346559612+352183353
2348+354666416+354343775+352870841+351851998+351157421+349585346+346836689
2338+343620833+340330612+336673219+332628974+329063153+326994118+326483053
2328+326577173+326256709+325196881+323809463+322836516+322784933+323576916
2318+324752870+325939274+326996813+327879739+328631401+329441106+330474460
2308+331690957+332910039+333952624+334697639+335121453+335299278+335342332
2298+335377446+335534078+335840104+336173453+336413939+336606461+336912265
2288+337397741+337904523+338194524+338205527+338067394+337909360+337790465
2278+337766501+337861396+337987232+338015775+337919292+337772852+337651077
2268+337593623+337629365+337743276+337867414+337997608+338218155+338504648
2258+338658547+338570299+338401741+338409052+338686055+339097610+339413199
2248+339544169+339619900+339761281+339894171+339895279+339794107+339725724
2238+339784137+339997226+340378355+340941371+341668626+342488855+343287631
2228+343938084+344388519+344785120+345431104+346495364+347791469+348953725
2218+349808699+350478279+351172744+352043449+353224462+354816845+356779981
2208+358976108+361297186+363637094+365853530+367880286+369781944+371652808
2198+373550441+375511658+377570538+379773496+382134304+384518374+386663693
2188+388414332+389899304+391415882+393110249+394812037+396232466+397268257
2178+398058245+398816553+399603993+400197915+400308982+399965626+399463461
2168+398944051+398301352+397468902+396512534+395405775+393930662+391949987
2158+389630128+387178930+384551458+381661308+378598945+375458081+372255333
2148+368975340+365547725+362316435+360550952+361492550+364838047+369087921
2138+373239578+377251885+381234467+385128505+388938985+392767373+396730348
2128+400891089+405215735+409686858+414348989+419174287+424107329+429208818
2118+434556553+440132774+445828222+451396061+456562057+461295599+465778907
2108+470214398+474869477+480108250+486319267+494001926+503658578+515170179
2098+527385476+538664641+547828801+554444025+558543914+560611398+561419184
2088+561138562+558877966+553546957+544839805+533337325+520063675+505817374
2078+490940560+475944629+461746477+448996927+437890197+428574723+421034036
2068+414860164+409618622+405048617+400918819+397215086+394166680+391762229
2058+389689391+387731941+385821457+384010558+382572813+381689038+381133591
2048+380586931+379943974+379257373+378724043+378549393+378722086+379304931
2038+380747218+383508614+387803462+393954811+402458511+413565462+427088016
2028+442390601+458330641+473502736+486735253+497380949+505345855+510847453
2018+514076454+515273086+514928622+513491394+510994336+507131240+501583562
2008+494351892+485823083+476444026+466511294+456366470+446452016+437038878
1998+428233361+420329933+413710463+408190920+402909501+397246545+391521041
1988+386431072+382280781+378968738+376241054+373813709+371552375+369552573
1978+367933087+366666891+365596576+364498124+363325862+362467343+362360005
1968+362714328+362562201+361374061+359713738+358494472+358054597+358155141
1958+358415565+358491998+358172901+357563139+357021870+356847589+357086820
1948+357639091+358546461+359948021+361384068+361606867+360003333+357664901
1938+356080494+355597713+355634969+355636077+355476750+355288031+355144028
1928+355112753+355594353+356945364+358632568+359744681+360394764+361169429
1918+361447208+360117723+357752005+356128126+356074992+356933917+357559557
1908+357393399+356717026+356079460+355672779+355351504+355082217+355173013
1898+355972048+357263981+358271267+358760435+359536983+360927355+361677798
1888+360666524+358732373+357311760+356642624+356236313+355920982+355839565
1878+356076691+356575496+357295071+358658525+361602953+366347683+370858241
1868+371801722+368503969+363872079+360669257+359435996+359390432+359711080
1858+359975271+360117428+360225726+360336867+360608775+361473535+363343180
1848+366504093+370960151+375199540+376014304+372489320+367935561+365380829
1838+364901703+365090163+365411513+367002640+371002725+376159932+379171968
1828+378843824+377250555+375628412+373271333+370337059+368339473+367949962
1818+368368901+368747445+369411080+371285156+374240070+376582416+376817585
1808+375491756+374419484+374950192+377404861+381018942+384042535+384976674
1798+384346788+384490496+387368904+392426158+395785169+393799065+388479540
1788+384669245+384319464+386169244+388499590+390804347+392741194+393596870
1778+393880409+395729155+400869451+408418150+414187890+414336324+410086080
1768+404887702+400975423+400007831+402538119+406390397+408425055+408749321
1758+409378469+410314861+411165552+413823745+420104180+428122367+433112789
1748+433091743+430635560+428769940+428824994+430787244+433441634+435159374
1738+436626622+440916965+448797648+454909968+453679255+448293377+443484067
1728+440434665+439605980+441238942+444474405+449097655+457025489+469783237
1718+484122956+491691003+489068441+482165727+476883236+475579008+478897956
1708+486364831+495676761+503795012+511049353+521059588+534366322+544763262
1698+547741069+545937333+541241380+535536996+533212042+536548971+544188393
1688+554446425+568109290+584573429+595388274+594117351+588405546+586316166
1678+589816484+597659024+606587203+613918863+620905764+629186333+635582229
1668+636133873+634300893+636017562+641813591+647285207+649256282+650132488
1658+654230014+664252878+680730124+697819571+701912002+695823092+694515540
1648+699894771+703054429+696728393+686778492+681233398+681828982+687679732
1638+697310463+705969059+705074023+694148590+683313030+678566823+679193940
1628+681923138+684525170+686857066+687878974+685524332+681580779+680622011
1618+683453710+684948614+680578367+673834130+669749675+668982173+669392694
1608+669063849+668060108+667432179+667366750+667127039+666343882+665631471
1598+665798441+666779142+667562668+667246082+665995024+664732889+664089083
1588+663927504+663838738+663775008+663940131+664550189+666419797+671102052
1578+678896406+685752744+685633997+680829671+679042108+682382841+686300253
1568+686062905+683355788+682225619+684887985+693548501+710422755+730237559
1558+734780093+722254523+709547952+702693756+700600684+701455548+703546921
1548+706601936+712466644+722732910+736846432+752797291+765453129+765271463
1538+753984766+745334292+744788482+748179580+749073804+747534813+748800715
1528+754909047+763431172+771965261+780837574+789383257+794019726+793970764
1518+792040675+788687462+783639660+779823494+780906326+788262836+801394107
1508+816532860+821906109+810087264+794636577+787141160+787909917+793051358
1498+797406392+796950898+792976254+791050079+794577425+801985703+807809794
1488+807612324+802899497+798147161+796000918+796278512+797466061+799351030
1478+803574984+811142920+820460241+827362364+827172132+820279239+813247808
1468+811118551+813383910+815467899+814092333+812444195+815989487+826182126
1458+837826026+840388697+832160117+822963981+818280102+817864707+819772716
1448+821355647+820522790+817612812+814521907+812722602+813382359+817618941
1438+824840014+830932395+831578121+828545334+826342746+826325613+826940397
1428+826904655+826871645+827656943+829062344+831327629+835363936+839846210
1418+840565489+836295306+830648450+826505728+824140452+822789774+821999822
1408+822059639+823210042+824544844+824925973+824965260+826249993+829213880
1398+832992088+836170429+836777976+833699625+829305673+827453492+828868567
1388+830410142+828809119+825274904+824091491+827332234+833447582+839726946
1378+845003233+849863165+854686691+858563043+860675906+861437057+861360034
1368+860867173+861614514+865415245+871140011+874538936+872730843+867566140
1358+862782345+860210074+859204929+858277252+856917490+855499978+854021247
1348+852232281+850635541+850277379+851829219+855227701+859435778+862388218
1338+862459039+860335763+858215736+857408948+857564619+857735651+857578133
1328+857524076+858161236+859654663+861636816+863525329+864868032+865416648
1318+865367983+865701701+867429965+870124233+872070569+872488696+872523552
1308+873390305+874859953+876170828+877243248+878335459+879394438+880199011
1298+880510354+879998293+878543931+876511488+874358378+872144122+869617784
1288+866596000+863089922+859214751+855235824+851664095+848987255+847231077
1278+845962222+844713380+843355685+842194574+841657478+841782577+842226994
1268+842817482+843629957+844498113+845188887+845986075+847162325+848019478
1258+847595591+846219656+845297221+845829222+847846083+850749045+853598542
1248+855568952+856612498+857255935+857758618+858161901+858962043+860870643
1238+863861189+867109169+869947810+872360127+874456448+876079330+877230841
1228+878419793+880177374+882433576+884652485+886370040+887366249+887739993
1218+888165210+889489451+891633256+893545844+894667594+895719337+897617155
1208+900339337+903273980+906185952+909458523+913476885+918008194+922299867
1198+925527613+926951327+926454700+925449039+926081768+929033839+933112977
1188+936957796+939967321+941915799+942939627+943491271+943788066+944106867
1178+945317678+947975318+951394108+954301649+955750028+955551968+954838375
1168+955800392+959943926+966182452+970991651+971634424+969050558+966536553
1158+966394174+968696531+972274242+975678337+977754867+978396162+978857712
1148+980776798+984456419+988212916+990023889+989875455+989603768+990445782
1138+991830727+992954249+994383650+997195631+1000900582+1003349971+1003504608
1128+1003217487+1005040350+1009180634+1013286727+1014778382+1013464258
1120+1011783922+1011921205+1013188510+1013500443+1012881967+1013410423
1111+1015879971+1018515826+1019542386+1019682032+1020645526+1022431317
1103+1024149168+1026278130+1029363571+1031420457+1030165559+1027407413
1094+1026949555+1029122753+1031353846+1032835531+1035275467+1039389093
1085+1042972121+1042988219+1039341978+1035816994+1036202628+1039917770
1077+1042922569+1042829446+1041281963+1041185296+1043518669+1047359648
1068+1051512191+1055111097+1057347507+1058021961+1058005936+1057908013
1060+1057070135+1055277107+1054225364+1055580991+1058454562+1060463890
1051+1060726567+1060387458+1060688240+1061562600+1062557036+1064273853
1043+1067516442+1071439983+1073741823+1072537880+1067950299+1062553861
1034+1059559032+1059662492+1060649470+1060527473+1059342731+1057701608
1025+1055572277+1053311718+1052173204+1053140095+1055942920+1059331580
1017+1061971939+1062853462+1061630097+1059409120+1058102455+1057972113
1008+1057087932+1054343226+1051243459+1049326514+1048163483+1047167053
1000+1046711263+1046380794+1045018447+1042702871+1040519852+1038773348
991+1037070932+1035877180+1035962401+1036494844+1035532827+1032602098
983+1029355004+1027112686+1025164946+1022226020+1018274638+1014182946
974+1010773313+1008949638+1009037148+1009450327+1007947152+1004418476
965+1000623579+997680738+995139114+991803181+986908318+981237536+976904729
955+975064808+974359265+972503392+968940968+964998670+961863308+959418794
945+957142283+955192402+953935880+953322868+953454244+954723320+956652819
935+957599771+956614566+954746804+953553643+953450551+953940163+954277796
925+953681917+951857430+949577596+948538703+950246068+954190877+957162592
915+956087070+951700872+947452622+945440856+945157576+945189183+944965054
905+945540034+948279423+952100020+953650236+951421727+947641082+944938395
895+943700261+943139090+942622819+941772091+940829127+940709641+941662722
885+942516257+942145835+941108789+940791833+941244004+940986792+939105959
875+936358151+933890079+932262914+932100448+934030169+937155783+938907308
865+937521404+934097223+931222987+930109139+929906352+929614431+929817366
855+931619624+934414178+936281866+936577849+936443815+936491816+935994376
845+934783713+933747922+933006636+931711565+930037506+929438526+930594541
835+932629347+934442388+935536002+935611622+934602933+933022514+931468532
825+930466858+930890671+933201004+936214074+937917155+937797743+937311528
815+938022314+940080899+942580578+944537548+945139483+944156050+942274183
805+940501685+939529181+939500159+940431972+942031593+943288854+943822627
795+944647803+946234796+947446862+947629488+947791067+948559676+948970492
785+948366638+947922073+948898934+950426626+950672466+949194990+946896399
776+944601131+942440710+940768719+940623017+942625552+945924782+948389457
766+948142362+945439970+942509758+941307366+942315464+944795868+946928818
756+947044834+945970272+946421335+949420152+952997199+954898635+955163306
746+955242324+955846547+956352997+955426574+951928102+946218771+940693542
736+938206713+939364648+941534744+942097022+941767882+942581834+944604824
726+946200752+946311154+945193613+943184728+940237605+937211907+935925254
716+937395419+940870260+944349605+945952401+945208088+942666685+938628901
706+933690394+929804073+928853207+930293389+931564165+931110812+929697436
696+927946871+925151136+921410221+918294503+916753223+916230675+915589158
686+913758984+910515214+907348983+906103390+906497738+906232181+903518343
676+899069005+895622079+894312460+891652678+883598379+874434368+874853381
666+883991694+892135718+895132689+894243855+891790626+889259415+887028542
656+884300378+879985665+874361406+868865938+864603287+861757779+860239908
646+860375419+861673814+861741901+859214603+856763664+857696142+861187820
636+863645627+863880242+863846568+864403898+864462755+863416773+861870914
626+859886989+856413182+852011402+849028315+847610434+845168357+841098597
616+839103004+842383773+849119960+855107477+857748353+856107673+850812628
606+845652873+844982334+848021029+850409493+849575159
##END=
