##TITLE=<SNM>
##JCAMP-DX=4.24
##DATA TYPE=INFRARED SPECTRUM
##DATE=3/5/2025
##SAMPLING PROCEDURE=Instrument type and / or accessory
##ORIGIN=Admin
##XUNITS=1/CM
##YUNITS=ABSORBANCE
##RESOLUTION=4
##FIRSTX=4497.3318
##LASTX=599.83466
##DELTAX=-1.4281778
##MAXY=1.7384253
##MINY=0.17894986
##XFACTOR=1
##YFACTOR=1.6190347e-09
##NPOINTS=2730
##FIRSTY=0.20496966
##XYDATA=(X++(Y..Y))
4497+126599919+126518447+126492217+126534241+126608174+126661805+126477307
4487+125753286+124640499+123966390+124509309+126089673+127655126+128273967
4477+127877756+127060970+126440924+126331151+126696447+127123703+127022232
4467+126162594+125044267+124580335+125247034+126526859+127346433+127112152
4457+126206919+125434321+125181117+125234821+125211287+124999877+124848568
4447+125042555+125478011+125662058+125222939+124293675+123329262+122676368
4437+122349157+122100518+121711476+121257861+121005992+121112976+121561741
4427+122185146+122624063+122547782+121964542+121042641+119774146+118173994
4417+116685475+116007675+116429951+117503870+118521637+119204527+119666619
4407+119863818+119538613+118678175+117639165+116876802+116751235+117306101
4397+118047240+118285092+117862816+117239512+116819582+116596852+116507336
4387+116682354+117135565+117468666+117157295+116112367+114775019+113636278
4377+112886459+112520473+112484238+112675243+113073203+113772595+114635454
4367+115198685+115208800+114893462+114504411+114027418+113513657+113219542
4357+113195180+113191940+113182019+113494909+114193205+114799676+114950295
4347+114832147+114710280+114633613+114751402+115167972+115477614+115211994
4337+114537885+113836892+113026632+111934582+110917045+110528739+110827391
4327+111350264+111655092+111706292+111726126+111832025+111954167+112021548
4317+112116438+112455660+113181190+114103110+114750648+114781867+114298358
4307+113726466+113402733+113304364+113231489+113203887+113499842+114243936
4297+115130081+115642324+115515294+115004468+114672959+114849882+115383846
4287+115937414+116290680+116293073+115857709+115137812+114463132+114068025
4277+114021675+114279555+114671026+115029631+115342356+115613856+115806325
4267+116042907+116489260+116933662+116920317+116414977+115993529+116245674
4257+117119983+117949957+118162489+117853879+117597297+117889433+118779857
4247+119731947+119945114+119174688+118069136+117460889+117589097+118147312
4237+118727157+119043600+118989279+118660678+118296579+118098938+118058763
4227+118045897+118094244+118380360+118883685+119337668+119606951+119855617
4217+120198125+120460965+120464647+120307235+120190210+120180398+120275722
4207+120506257+120860103+121233066+121516559+121676088+121755424+121839012
4197+121966484+122070670+122061779+121986382+122000271+122127310+122196292
4187+122140821+122166969+122459583+122875693+123076325+122913539+122619314
4177+122557704+122815105+123201726+123600919+124032666+124445813+124737801
4167+124898894+124930454+124805669+124622543+124590026+124827206+125270403
4157+125680806+125682187+125028418+124001779+123348608+123552839+124237827
4147+124569493+124205789+123516862+122982309+122767825+122772933+122774240
4137+122633589+122545233+122881915+123647794+124342473+124592106+124684116
4127+125157307+125938235+126228594+125452821+124137212+123468873+123985507
4117+125074262+125827698+125969307+125826778+125863151+126335891+126996507
4107+127199422+126708191+126131550+126165456+126737091+127189537+127103593
4097+126770685+126783920+127128277+127039967+126078159+124878904+124385989
4087+124737037+125379660+125951737+126418614+126538622+125989757+125091850
4077+124652050+124912644+125278640+125193920+124719292+124158187+123603404
4067+123094392+122941325+123480857+124490193+125219037+125198844+124727870
4057+124430894+124623555+125105868+125404768+125280343+124949404+124737056
4047+124816383+125311028+126121776+126683396+126520886+125943757+125639914
4037+125752310+125797795+125396706+124768781+124453065+124693789+125289657
4027+126011837+126850822+127737610+128329502+128310487+127819836+127434099
4017+127617198+128165068+128344339+127657980+126360760+125206234+124798509
4007+125155982+125845084+126550992+127346019+128282812+129087476+129539140
3997+129768837+129859163+129564146+128821368+128161046+128147793+128644003
3987+129008011+128930377+128716354+128731034+128963943+129313078+129915287
3977+130862958+131886413+132646448+133073925+133159197+132732890+131751247
3967+130678249+130374176+131384341+133192478+134459841+134370519+133418439
3957+132555884+132120464+131934632+132043208+132859588+134387794+135619318
3947+135525633+134589816+134194323+134698844+135164221+134832859+133992660
3937+133457564+133951795+135624040+137646146+138656402+138124215+137029523
3927+136746932+137566561+138514849+138750253+138787049+139601322+141039028
3917+141748000+140688853+138387626+136296400+135309907+135396220+136600620
3907+139724845+145222538+151558332+155788017+156475775+154355401+150375616
3897+145656494+142237980+141819716+143988180+146023263+145805935+145008321
3887+146269104+149060347+150902870+151739563+152945859+153067440+150267637
3878+146957294+146562371+149216516+153184024+157318156+160040804+159374123
3868+156731234+155519544+156008410+155448216+152581584+149458905+148644338
3858+151607121+159092617+169793042+176407451+171876987+161822591+153744338
3848+149774860+149567703+152147085+156394525+161337997+166138000+169415486
3838+169461081+166573282+163288010+161157290+159656401+158069162+156877666
3828+156763300+157910490+161067554+166981799+173210038+174741262+171778636
3818+169059099+167276318+163814905+159031100+155990536+156623109+160839357
3808+166218717+169621061+171608441+174883699+178401053+178423436+175639473
3798+173483628+172099957+170143962+168331710+168220842+169894632+172560696
3788+175969777+180123366+184421766+188466383+192975310+198374108+203468300
3778+207286376+211112313+216849385+224997762+234509193+243251266+249635287
3768+254503932+259486630+264901664+271304940+280497259+293153495+307054260
3758+319522021+331235059+345387858+364252048+386445154+405896063+418503924
3748+428726583+441900584+456798628+467017347+471746151+477179703+487266773
3738+501710226+517464254+530528546+538664130+542859338+545163584+546298294
3728+546341478+545704617+544476360+542097490+538141468+533311828+529254823
3718+527431932+528687395+533383213+540407758+545600504+544605507+539148798
3708+534918874+535566780+541069212+547977533+551845346+552286831+552989812
3698+555744268+559296283+563402583+570114423+580102902+589117589+590653471
3688+585422769+580967611+580633405+582601052+585084477+588930312+596263256
3678+606008057+610701666+604588915+595191610+590943646+589638741+585410841
3668+578907742+574289935+572112737+570813134+570096568+571072237+574274804
3658+578714096+582962244+587289802+593606581+602730093+612135607+616052163
3648+611899513+603616302+595688133+591189681+591902123+596872212+602461196
3638+605318366+604673037+602180519+601410793+606275481+617047749+626926483
3628+628374267+624750353+622919988+624405618+628188351+633639980+640004102
3618+646293712+652090590+656199578+656383358+652785067+648938570+647825287
3608+649710137+653446190+657928481+662490366+666832097+670586263+673394506
3598+675294745+676294123+676202454+675500025+675784236+678102619+681209063
3588+682384048+680383967+676430412+672076678+668837922+668322292+670527948
3578+673264770+674275340+672826819+669300465+665358470+664178183+668031675
3568+674699742+678199664+675950124+671517975+668883204+668704946+669334555
3558+669547787+669865868+671189586+673161246+674414942+674291023+673455250
3548+672489079+670774240+667682301+664515702+663088756+663017114+662412244
3538+660439995+658338525+658126913+660296859+662801894+663183664+661683088
3528+660586887+660751229+660851660+659995934+659247928+659995418+662073989
3518+664190332+664958659+662883107+657535445+651652640+649295454+651011030
3508+653364902+654081247+654362881+655077680+654525456+651670385+648724013
3498+648700157+651819044+655138646+655735857+653698225+651299217+650353368
3488+651207916+653218600+655417040+656966949+657384872+656705194+655450321
3478+654076682+652532517+650551506+647954949+645104074+643356102+644111618
3468+646920008+649431743+649810053+648268023+645898099+643363833+641060102
3458+639557464+639296888+640017724+640964825+641736098+642325431+642358491
3448+641564025+640840243+641236740+642322559+642909389+642608906+641586040
3438+639911034+638095764+637006705+636731182+636625597+636505138+636793031
3428+637544792+638226531+638710794+639581099+640840096+641160091+639282824
3418+635714353+632278490+630316181+629834568+630264345+631325351+632615788
3408+633014788+631547787+628707442+625776385+623274074+621499521+621542815
3398+624059778+627612861+629389549+627594453+623064229+618943755+618146638
3388+620481515+623013866+623786243+623522059+622920872+621107516+618154296
3378+616372637+617326033+619699786+621275686+621392316+620722652+620052915
3368+619854998+620199880+620841123+621636988+622432485+622319905+620219245
3358+616949674+615450902+617716124+622253196+625676101+626375732+625348448
3348+624149975+623636480+623959200+624734817+625178068+624490145+622555005
3338+620128091+618423045+618116744+618687155+618959365+618179698+616819350
3328+616204356+616998123+618373713+618989553+618315987+616645215+614326243
3318+611605767+609212428+608366016+609602298+612091797+614521951+616227476
3308+617087215+616886721+615505793+613680656+612922379+613995056+615629933
3298+615824905+614683863+614582070+617008431+620365179+621557688+619526830
3288+616305892+614386177+614473686+616084524+618381002+619788289+618905467
3278+616684717+615650623+616602326+617995182+618664551+619194980+620181105
3268+621000531+620681861+618964592+616498434+614591899+614270063+615198830
3258+616200233+616694437+616682913+615965832+614564067+613074388+611841235
3248+610837439+610375522+610619789+610695849+609787441+608655529+608550975
3238+609530914+611069447+613112933+615353674+616502373+615425794+612361172
3228+608369845+604396704+601198113+599287087+598685089+598948022+599403606
3218+599531317+599363073+599318564+599452239+599311864+598588156+597462171
3208+596354263+595662179+595604343+595959312+596039569+595240979+593692359
3198+592155115+591371694+591609555+592447904+592778686+591676926+589698050
3188+588377278+588075027+587533774+586025172+584581254+584290048+584678703
3178+584483657+583050673+580722129+578584176+577833814+578707800+579897990
3168+579682328+577696421+574944100+572403023+570289625+568412027+566835133
3158+566148756+566950438+568926258+570647430+570736043+569290358+567560203
3148+566258832+565031018+563565416+562229107+561327178+560509040+559256707
3138+557604416+556193558+555641591+555864948+556238730+556288062+555776702
3128+554485603+552624314+551106765+550706293+551246368+552021027+552571079
3118+552712817+552211913+550897841+548998080+547013350+545291958+543895936
3108+542824253+542177489+542008876+541999930+541471489+540101826+538478141
3098+537460134+537221684+537325060+537303156+536725088+535403653+533974828
3088+533384096+533601083+533763474+533437110+532782724+531888784+530750835
3078+529494047+528300507+527562441+527828392+528933171+529719575+529355586
3068+528226141+526948147+525579700+524208049+523293934+522980860+522799215
3058+522415641+521910798+521215989+520165770+518999804+518018944+517080200
3048+516149961+515766165+516181364+516646189+516153164+514506800+512370430
3038+510570217+509522427+509173900+509301943+509657133+509862082+509543191
3028+508617001+507266592+505728097+504195491+502871884+502055145+501992302
3018+502525051+503065494+503048817+502251111+500727893+498764369+496829229
3008+495339587+494457501+494027576+493655488+493006882+492047228+490926471
2998+489777992+488711096+487843552+487290518+487127060+487230289+487211771
2988+486751953+485921886+485022645+484324892+483980194+483832492+483406801
2978+482506639+481580597+480994945+480300689+478880737+477080524+475899648
2968+475646472+475611535+475153336+474519125+474283178+474426352+474368368
2958+473729629+472680772+471550590+470463666+469411569+468364001+467299276
2948+466344444+465714430+465311785+464710414+463780211+462976836+462801228
2938+463205861+463575814+463211567+461967554+460432629+459313713+458736603
2928+458291584+457554770+456461219+455344622+454547285+453913884+452974404
2918+451687612+450514430+449696034+448999975+448262093+447645627+447173623
2908+446453854+445233771+443960195+443331249+443434625+443688464+443498646
2898+442727116+441697255+440902568+440527019+440228487+439542919+438422015
2888+437247214+436365533+435689648+434856968+433840876+433101264+432890204
2878+432873674+432686654+432274769+431652486+430998690+430788734+431136562
2868+431373282+430866230+429787184+428684319+427818690+427119096+426368440
2858+425425462+424493750+423955332+423799015+423551251+422839692+421713229
2848+420456330+419375370+418693300+418439682+418455881+418520749+418409457
2838+417970329+417290357+416628204+416068286+415420048+414571391+413722659
2828+413121619+412739553+412364225+411894356+411370774+410796682+410097493
2818+409242209+408276332+407274120+406352421+405632542+405072219+404480161
2808+403804386+403197897+402703878+402187143+401675563+401346916+401036567
2798+400260839+398956155+397711737+396979120+396490733+395756238+394749939
2788+393790100+393042868+392434501+391839903+391154115+390318931+389392962
2778+388502446+387691008+386930191+386246427+385660849+385019349+384111750
2768+383027882+382174586+381797638+381631639+381154223+380127418+378826857
2758+377767397+377204460+376909351+376453656+375623148+374493666+373265299
2748+372174915+371428934+371002507+370551598+369732797+368600480+367492682
2738+366575696+365747323+364905071+364031232+363157945+362473519+362209593
2728+362235731+362063842+361426024+360597136+360004415+359677867+359252213
2718+358500967+357610009+356742060+355705168+354400116+353208232+352548325
2708+352333510+352099109+351477231+350504655+349573679+348994801+348629891
2698+348119231+347332754+346384475+345404572+344530144+343935804+343666687
2688+343542804+343339991+342982187+342520969+342054193+341679159+341382431
2678+340993481+340384341+339621205+338791654+337877392+336924511+336102508
2668+335502756+335072131+334729532+334387852+333948577+333382142+332719547
2658+331982696+331236826+330598823+330069940+329497910+328820220+328210123
2648+327863879+327737162+327596492+327268876+326759174+326186260+325667095
2638+325194097+324627258+323917650+323268640+322887642+322648345+322232962
2628+321585056+321003601+320736693+320625475+320263143+319478028+318537553
2618+317838917+317540311+317548226+317666917+317636729+317228415+316478347
2608+315692091+315112955+314746058+314524726+314414318+314319373+314126499
2598+313893866+313804295+313867506+313827525+313462947+312861502+312277617
2588+311830095+311478843+311176630+310889510+310550150+310090663+309506299
2578+308910634+308485587+308260114+308056675+307820526+307757903+307948365
2568+308133784+308082335+307864372+307680132+307696496+308036813+308654273
2558+309229635+309389302+309027190+308337278+307597869+306999553+306598969
2548+306336295+306132800+306001886+305974423+305941160+305754085+305459750
2538+305245285+305194277+305235068+305254157+305161236+304929247+304628137
2528+304358855+304167270+304074846+304119447+304254263+304279132+304030134
2518+303602989+303240252+303054483+302997199+302976951+302874532+302607845
2508+302262576+301976064+301703431+301324642+300911671+300651039+300562573
2498+300486789+300314809+300080150+299810923+299443234+298988551+298630102
2488+298463312+298290650+297876040+297246027+296595525+296073747+295739044
2478+295566290+295481045+295441230+295396629+295216585+294851013+294450485
2468+294142197+293885247+293679599+293630028+293693312+293645195+293362806
2458+292927507+292488783+292173003+292024381+291946463+291808609+291609937
2448+291429139+291277701+291129871+291022647+290989422+290930371+290681943
2438+290245447+289835808+289644591+289636252+289622465+289466296+289190387
2428+288941941+288863028+288961140+289096122+289099583+288940321+288781594
2418+288801437+288958232+289064682+289055828+289003091+288922779+288793117
2408+288703896+288771083+288928283+288983395+288901776+288892038+289117106
2398+289409196+289438169+289149890+288836061+288748000+288854911+289006883
2388+289085188+288903654+288180921+286746612+284650977+281989497+278754919
2378+274962393+270817658+266633383+262622673+258859065+255351651+252076393
2368+249069552+246564830+244850617+244011457+244101930+245460548+248459989
2358+253026623+258701497+265189981+272701293+281313943+289906382+296451321
2348+299445019+298928616+296619234+294590290+293241759+291455002+288431944
2338+284343076+279763188+275237732+271275286+268341872+266605533+265713176
2328+265052808+264292064+263556502+263174326+263401695+264347637+265947448
2318+267858676+269551832+270740935+271632943+272583559+273676815+274824742
2308+276038972+277327089+278478697+279248571+279727919+280280383+281071315
2298+281900865+282550225+283026334+283385924+283593340+283666123+283756559
2288+283981203+284269078+284442052+284423443+284328939+284319404+284391561
2278+284385744+284201301+283916096+283665607+283500897+283420770+283429992
2268+283489393+283517096+283491215+283434980+283298765+283005626+282608430
2258+282279820+282136131+282126394+282103844+281994927+281859541+281781898
2248+281793016+281895417+282055985+282190562+282231445+282184322+282123393
2238+282183291+282481363+282984752+283523759+283949101+284230311+284463479
2228+284823308+285432797+286262201+287188428+288101107+288929001+289650665
2218+290339509+291161163+292256334+293618284+295135114+296746374+298487831
2208+300379787+302337237+304222603+305988302+307722451+309528168+311449944
2198+313536540+315811114+318162667+320431276+322576446+324644929+326638163
2188+328471878+330054478+331431246+332777715+334188610+335608930+336951423
2178+338074720+338784217+339066809+339116803+339041775+338807779+338430610
2168+337951132+337285739+336315224+335122347+334000228+333123922+332334353
2158+331390160+330256076+329031612+327826475+326734949+325803127+325116639
2148+324780187+324704680+325035756+326876908+331497696+338691002+346964568
2138+355254848+363430744+371471382+379173396+386408560+393261475+400139939
2128+407555423+415562964+423733227+431623034+438905358+445204245+450074823
2118+453144562+454400025+454402492+454088718+454359087+455891103+459278997
2108+465224276+474355630+486736490+501546915+517033445+530795896+540615358
2098+545067166+543585034+537011140+527622155+517347145+506632971+495233118
2088+482752195+468689445+453103109+436716122+420230544+404343357+389825206
2078+376974072+365762491+356411867+348987180+342994078+337976093+333850796
2068+330573899+328044824+326045222+324107836+321969588+319890060+318151365
2058+316811338+315936800+315455739+315110636+314901417+315090204+315859636
2048+317413005+320033896+323905796+329320756+336864135+347111901+360536575
2038+377548311+397959280+420640111+444075868+466761852+487020260+503187609
2028+514036858+519029293+518697885+514512396+508024465+500385404+492300809
2018+483988293+475376324+466347794+456774919+446689212+436379044+426034528
2008+415547428+404852066+394198194+384013491+374640889+366160203+358406721
1998+351250525+344877346+339628457+335434943+331615320+327562218+323438651
1988+319797360+316874586+314590883+312806463+311339352+310033195+308856369
1978+307808690+306892642+306172745+305632136+305130680+304708689+304607834
1968+304778306+304720046+304077846+303102858+302283174+301806384+301583433
1958+301527161+301558693+301532057+301367807+301147801+300997026+300966654
1948+301086008+301511073+302414125+303438334+303590361+302361884+300558413
1938+299294648+298825258+298749346+298718237+298646540+298576610+298557043
1928+298714905+299398430+300787181+302291973+303126291+303494054+304041805
1918+304381367+303624968+302167685+301364954+301785454+302773457+303357967
1908+303187146+302635953+302224086+302115703+302169894+302261656+302458100
1898+302923846+303593196+304091118+304363328+304999306+306212118+307048977
1888+306587483+305309490+304225824+303613831+303297425+303248903+303470345
1878+303795476+304024354+304194458+304886357+307021053+310716774+314209922
1868+314881794+312340828+308872530+306494710+305494337+305270061+305310189
1858+305342476+305257360+305172483+305329002+305908782+306993018+308642603
1848+311078407+314416454+317543624+318057340+315351995+311992080+310280370
1838+310224338+310640052+311030953+312273162+315289593+319174341+321513010
1828+321504837+320687729+319814185+318169036+315897113+314353353+314209627
1818+314850870+315471827+316114689+317413005+319439372+321213226+321756651
1808+321325180+321028267+321793245+323937088+326940193+329446995+330295100
1798+329916274+330158222+332608918+336882395+339923014+338822247+335111413
1788+332548100+332654164+334531836+336922192+339299001+341185029+342026214
1778+342382288+344034137+348370935+354683738+359601145+360081616+357217488
1768+353797050+351386409+351052056+353306565+356749865+359008866+359884362
1758+360786401+361885474+363021656+365547602+370676952+376964611+381030635
1748+381553812+380349007+379490851+379877702+381473040+383360910+384382524
1738+385258388+388544268+394870913+399835553+398713986+393973733+389613299
1728+386673370+385402703+385970462+387889146+391080301+396780503+405755430
1718+415341853+419680456+416847179+411247076+406995725+405641267+407545814
1708+412305910+418170786+422949621+427104333+433402484+442119706+448791124
1698+450462926+448918835+445103777+440309590+437936868+439628440+444264875
1688+450838254+460277381+472006396+479301384+477343824+472123799+469909013
1678+472208179+477850582+484071752+488852760+493382321+498957721+503125060
1668+503005338+501346384+502699185+507505080+512269373+514176975+514910991
1658+518148864+526470842+540726208+556835205+563538982+560865777+560320364
1648+564476953+567612407+564913873+560028569+558017995+560041601+565931658
1638+575444967+585911893+590651962+587238482+582465205+581861146+585489846
1628+590845351+596496331+603096364+610370331+616260683+621045887+628104340
1618+638801727+648630944+651319612+648180330+644242605+641149709+638076915
1608+634465149+631100560+629467670+630675863+634900228+641357125+648648763
1598+655360713+660640784+664406067+667024640+668746326+669466574+669143633
1588+668305946+667778683+667903559+668438922+669400454+671704848+676580101
1578+683945222+690650398+692561167+691730401+694125359+701821299+711693737
1568+719465516+725665371+733567695+744631611+759690831+781100258+808205543
1558+828274906+833757974+835749441+840850149+847875468+854532122+859674284
1548+863230974+866367680+870512820+876180920+882632515+885791088+879310704
1538+866698131+857843183+855023160+854183264+851087497+846813873+845191439
1528+847147637+850883248+855021540+859532252+863476015+865133423+865153082
1518+864967755+863805655+861429252+860103841+861796002+866611616+874188643
1508+882820345+885501134+877129714+866098784+860363681+860178060+862647900
1498+864381588+863136875+859952016+858406894+860552247+864833307+867257497
1488+865525207+861477038+857998690+856341576+856108979+856345184+857081335
1478+859481227+864256270+870458775+875088694+874173254+867747135+861327201
1468+859206146+861191059+863997903+864615289+864085743+865905652+871638252
1458+878321266+879031794+872250853+864437768+859657938+857925796+857571195
1448+856268314+852973378+849266262+847127462+846700483+847372650+849427144
1438+852900117+855311936+853851046+850304370+848222191+847887912+846984252
1428+844696794+842999846+843231191+844539078+846232712+848767052+851078882
1418+850127069+845707658+841011104+837983002+836449955+835656446+835107757
1408+834661560+834172510+833218635+831868853+831294025+832385661+834436694
1398+836058833+836687117+836179660+834193421+831237035+828737302+827230172
1388+825584398+822700169+819881250+819853344+823540727+829260147+834776790
1378+839498968+844253174+849259120+853267235+855308328+856265811+857374603
1368+858646338+859921901+862002755+865282155+868212034+868909971+867906397
1358+867208606+867518220+867923552+867663344+867083288+866869762+867320524
1348+868375566+869662763+870823317+872292895+875051585+879045047+882617568
1338+884396760+885057661+886131921+888198932+891035669+894513060+898558211
1328+902657553+906021407+908226326+909626619+911218938+913949133+917957542
1318+922471421+926438597+929202441+930770021+931729786+932708474+933751809
1308+934466313+934890053+935844369+937945029+940512502+942029719+941654649
1298+939933477+938131975+937114705+936567636+935434546+933540639+931977256
1288+931402943+931045912+929814747+927527877+924708958+922084790+920546221
1278+920568163+921343779+921283108+919777820+917892748+916953673+917128102
1268+917794894+918448359+918812827+918733307+918271721+917633718+917054251
1258+916664087+916185124+915057115+913095984+910649190+908125012+905662903
1248+903053534+899940170+896305579+892347901+887844846+882655340+877785535
1238+874626373+873304643+872930972+873091779+873921293+875033472+875647471
1228+875561324+875154225+874815380+875048198+876483759+879047256+881832674
1218+884344924+886954146+889750018+892077679+893545932+894600459+895849221
1208+897366070+898914506+900575080+902788099+905742423+909187269+912833788
1198+916286071+918878873+920355740+921241066+922089355+923199473+924975057
1188+927417433+929582224+930758166+931719993+933582902+935952826+937516945
1178+938274965+939714723+942642614+946172356+949028384+950816632+952128127
1168+954157072+957676726+961792120+964447654+964794230+964224629+964594398
1158+966243339+968137909+969590110+971059026+972944466+974639351+975511350
1148+976024402+977103816+978932561+980905031+982387494+983371926+984807708
1138+988092262+993375720+998729420+1001781746+1001956543+1000705498+999901534
1128+1000601091+1002881039+1005860692+1008098745+1008677034+1008011568
1120+1007602407+1008678801+1011268437+1014329304+1016790455+1018283816
1111+1018955173+1019130412+1019236734+1019992986+1022166392+1025972761
1103+1030204858+1032531488+1031541829+1028390692+1025904948+1025943972
1094+1028170391+1031567820+1036165563+1041619989+1045405300+1045511032
1085+1044078710+1045123518+1049070078+1051797402+1049966448+1045591804
1077+1043146041+1044306374+1047449191+1049862704+1049174854+1045157609
1068+1041427299+1043058569+1051492280+1062788057+1071052272+1073741823
1060+1073323458+1072808417+1071911164+1069026273+1064219568+1059365226
1051+1056794955+1057739626+1060802628+1062442217+1060574670+1057010690
1043+1055292390+1057381122+1062349370+1066879005+1067560523+1063961128
1034+1059161492+1056809312+1057928118+1060680991+1062781651+1063306190
1025+1062452084+1060650287+1058795993+1058102326+1058375051+1057576904
1017+1054678612+1051858220+1052012622+1055311460+1059026749+1059906184
1008+1056939490+1052373776+1049566491+1049778839+1051451121+1052185431
1000+1051012066+1048862516+1047456406+1047729573+1048539060+1048010324
991+1045946184+1043234765+1040331098+1037468369+1035003242+1032465662
983+1028579037+1023422296+1019159864+1017544351+1017973687+1018868069
974+1019627193+1019676819+1017144909+1011223155+1004519745+1000133100+997631010
964+994030363+988066050+981611509+977076794+975049469+974336438+973278819
954+970851463+967160767+963432814+960974607+959606270+957825311+955008233
944+952542443+952233124+954124454+956169007+956040155+953522014+950905504
934+950539784+952317282+953950687+953508540+951341761+949421788+949244709
924+950714581+953011391+955263876+955989792+953976752+950122818+946893192
914+945662469+945542305+944878164+942925279+940083756+937460324+936105461
904+936332609+937805942+939914481+942112921+944244579+946218301+947265317
894+946402375+943816716+940884259+938815997+937875523+937772662+938162016
884+938644366+938621761+937734816+936503430+935914244+936109216+935700202
874+933365547+930086441+928275294+928675693+929518681+929132198+927964061
864+927341373+927562852+928089010+928822585+930010971+931315544+932242839
854+933374382+935672886+938374291+939152338+937038057+933568765+930592794
844+928720755+928037249+928538815+929596361+930205501+930092847+929896329
834+930068770+930193352+930010971+930416745+931951265+933328805+933095104
824+931438138+929321501+927743171+928211236+931675005+936590019+939747414
814+939695432+938227694+938012842+939811914+942142005+943103831+942571488
804+942439322+944263428+946806750+947416111+945838223+944315779+944009331
794+943892260+943090725+942269090+942566186+944411866+947279381+949790011
784+950251523+948082093+944964973+943560705+944727222+946785766+947709894
774+947142871+945802881+944205776+942769331+942121756+942640184+944175808
764+946191794+947410442+945992110+941780777+937806237+937457084+940590035
754+944024278+945765256+946976099+949411554+953069411+956657910+958850754
744+959045947+957882963+956740743+955774499+953838549+951465680+951508974
734+955118383+959223910+959928327+957043509+953248406+950398341+948409746
724+946299220+943673727+941639775+942081996+946012652+951961282+956224083
714+956279673+953286251+949884037+947184693+944709846+941972950+939092256
704+936953309+937030105+938914514+939920739+938736550+936669907+934564609
694+931188386+926006095+921084087+918538408+917722516+916178719+912835334
684+909004078+906166384+904438438+903778715+905006493+908121109+910685490
674+909264286+902090161+889663872+874765975+864778527+867342318+877750855
664+885466381+886005499+880845739+874289958+869965382+868761755+868709993
654+866937133+863503552+860990492+860000980+858670562+856572185+856155145
644+858954994+863601701+868319166+871631773+871633393+868836194+866858496
634+867137995+866697762+863243712+858333264+854025107+850731644+848052842
624+845321396+843121851+843517980+846240664+848280064+848259742+846251488
614+842323409+837644673+835125428+836384646+839315924+841041145+840407265
604+837085602+832116986+829429717+833379811
##END=
