##TITLE=<SNM>
##JCAMP-DX=4.24
##DATA TYPE=INFRARED SPECTRUM
##DATE=2/5/2025
##SAMPLING PROCEDURE=Instrument type and / or accessory
##ORIGIN=Admin
##XUNITS=1/CM
##YUNITS=ABSORBANCE
##RESOLUTION=4
##FIRSTX=4497.3318
##LASTX=599.83466
##DELTAX=-1.4281778
##MAXY=1.8247643
##MINY=0.31410721
##XFACTOR=1
##YFACTOR=1.6994441e-09
##NPOINTS=2730
##FIRSTY=0.33556467
##XYDATA=(X++(Y..Y))
4497+197455547+198227504+198161620+197177436+196352728+196344469+196689605
4487+196711648+196455001+196427522+196868372+197555418+198026010+197903359
4477+197274044+196706002+196638626+196849924+196792948+196280811+195565409
4467+194968221+194648180+194602357+194823317+195381574+196071618+196177206
4457+195310797+194296450+194231003+194914752+195258626+194916751+194513113
4447+194581856+195081524+195632469+195768535+195235127+194275564+193459239
4437+193206433+193587133+194405790+195276793+195757364+195721747+195591486
4427+195824301+196190674+196059097+195337926+194435725+193414223+192053284
4417+190695888+190192783+190889053+192207869+193413521+194335731+195023022
4407+195136028+194327963+193060617+192303302+192411836+192865891+193004412
4397+192622520+192034152+191759039+191922479+192046077+191721897+191155994
4387+190702254+190330796+189844911+189245145+188772554+188754912+189231800
4377+189765015+189931156+189720051+189186503+188364917+187818550+188414370
4367+190166777+191993204+192829310+192501342+191522279+190498480+189792582
4357+189475592+189531288+190120357+191433684+193128623+194253310+194137937
4347+193017038+191423724+189646696+188190482+187853307+188691675+189638822
4337+189656096+188720628+187508995+186676748+186472535+186629469+186701404
4327+186658317+186860495+187363548+187673102+187397831+186847606+186683464
4317+187121333+187762188+188070129+187767712+186938322+186038050+185649774
4307+185935777+186478269+186798907+186799556+186705139+186865686+187398305
4297+187734901+187081473+185674781+184829381+185428358+187117125+189038986
4287+190531904+191157940+190852507+190060435+189278026+188572041+187756699
4277+186870929+186270883+186248594+186751173+187593153+188621459+189399484
4267+189271362+188231009+187184044+186904740+187238565+187587997+187681362
4257+187666859+187801680+188155076+188481798+188472223+188214226+188178276
4247+188612358+189212194+189607432+189859607+190172564+190448430+190466318
4237+190177597+189609694+188842139+188163405+187845661+187780689+187712840
4227+187730710+188139643+188902324+189584547+189932962+190147434+190359696
4217+190243201+189606836+188968437+188925297+189285409+189441712+189239165
4207+188927559+188715542+188797508+189301893+189897749+189970122+189441396
4197+188964596+189071323+189557909+189904658+189950867+189901028+189863939
4187+189748811+189613552+189758772+190270698+190704043+190572133+190056226
4177+189783499+189962336+190271890+190536341+190893788+191343003+191647665
4167+191604718+191121920+190297739+189562959+189277062+189217104+189044072
4157+189008227+189445780+189981784+190109941+190157342+190785956+191811999
4147+192347319+192003393+191285431+190804667+190620376+190444958+190197869
4137+190144645+190463898+190868535+190922232+190634089+190390542+190384299
4127+190451096+190362800+189959600+189134683+188062290+187348396+187579492
4117+188659531+189791302+190228575+189984607+189638910+189509000+189287426
4107+188603204+187720012+187412071+188147149+189541828+190708199+191076711
4097+190743938+190120989+189550807+189277132+189398835+189683418+189718771
4087+189413461+189118847+189214526+189787076+190621288+191320925+191549110
4077+191288991+190808701+190364203+189990096+189511121+188766083+187940008
4067+187565200+188002894+189006684+189944080+190355469+190211407+189768628
4057+189264435+188733097+188170367+187766730+187719100+187904426+188083579
4047+188416352+189338422+190733171+191634214+191248236+190062487+189347576
4037+189671931+190479944+191050056+191239187+191210287+190981593+190491605
4027+189857783+189381193+189329198+189745848+190427615+191048793+191385284
4017+191474842+191474509+191385459+191085514+190589126+190063188+189670826
4007+189598892+190050281+190983908+192037537+192851880+193326172+193517706
3997+193451891+193080696+192353509+191333042+190250303+189418494+189070762
3987+189206968+189585003+189966667+190373006+190953061+191650067+192252604
3977+192759813+193431058+194400248+195361951+195763870+195383240+194616368
3967+194099567+194184181+194832576+195720625+196338927+196300066+195657230
3957+194838924+194397355+194799204+196184115+198190660+199990958+200703993
3947+200320329+200027662+200797884+201933408+201819455+200023752+197757561
3937+196537826+197215981+199635967+202516286+204099588+203793541+202958575
3927+203282527+204702879+205470505+204645990+203729147+204608620+206841421
3917+207839582+205903621+202329154+199540200+198445255+198642629+200344582
3907+204761170+212159281+220190267+225250445+225956658+223361359+218476687
3897+212627015+208520227+208447889+211808779+214757754+214333388+212982743
3887+214326426+217503130+219224549+219605740+220508818+220006186+215955427
3878+211840362+212044522+216343879+221913019+226902665+229547995+228109405
3868+224921933+223959354+224788375+223608712+219489473+215773784+215558278
3858+220011307+229515272+242221334+249220875+242431948+229193144+218724022
3848+213941552+214721120+219473322+225882356+232353749+238383486+242719055
3838+242929266+238971029+234153013+230682169+228011990+225329728+223255807
3828+222508331+223272186+226785100+234429108+243191489+245960610+242184350
3818+238001488+234716373+229522269+223258929+219762516+221105725+226675918
3808+233226875+237286928+240108640+244842254+249473769+249006947+244655718
3798+240930226+238051871+234780294+232364306+232493849+234835061+238303011
3788+242737820+248175331+253938460+260022998+267881828+277811492+287038047
3778+293247796+298461086+306147023+317584126+331701614+345631391+356245576
3768+362960867+366791718+367991531+367866601+369200183+372531419+375081368
3758+375325441+376367951+382567459+395375987+411185889+422262967+426506978
3748+430864451+439769071+449745908+453924403+454081390+458191282+470086333
3738+488653009+508889162+523991571+530728713+532306368+534420289+540615518
3728+551038975+562820109+572024533+577155646+579235266+579315864+578607810
3718+578561584+579919576+583152888+587984267+590689484+585889776+574504091
3708+562930133+555851976+554392587+556572341+558547233+558463794+558070766
3698+558694294+559829783+562064917+567706448+577372468+587250960+591130773
3688+587282771+580466996+575371692+574001494+576577292+581910286+588946846
3678+596916349+601997799+599966019+595298080+594251571+594416905+589374176
3668+579858444+571517973+566238747+562904810+561200787+562319477+566462969
3658+570849832+572048207+571190006+573134629+580448267+590605379+595824947
3648+589948602+577432758+566339722+560072804+557582304+556055435+553893042
3638+551962272+551928357+554358216+559261916+567419971+578335433+585921096
3628+583307069+574676755+568355754+567800022+573089560+581621109+587817495
3618+588531091+587379082+587924994+588921874+588649076+588451966+589538037
3608+590704215+591125162+591915918+593849704+595751855+595747085+593910380
3598+592838619+594636883+598288406+601427231+604247663+608750408+614344275
3588+616568676+613117841+608427105+606986095+608486799+610363066+611039204
3578+610537309+609626532+609037025+609184682+610755112+614464856+619126411
3568+621025826+617776100+612143863+608227119+607040598+607055960+606143571
3558+603951577+602635076+604283929+608295301+611847987+613250207+613398426
3548+613018444+610764301+605679484+599606731+595118927+592933807+592275487
3538+591976173+590774572+588063778+585025051+583933824+585886444+589428399
3528+591841353+591942012+590476311+587982198+584446486+580865881+578849428
3518+578841607+580081473+581533917+582336423+582124266+581002315+579002206
3508+576223405+573595734+572290878+572068830+571380522+569721673+568553882
3498+569001940+569991666+569759342+568153173+566337372+565168984+564611253
3488+564186764+563649516+563241617+562954193+561919925+559425987+555991847
3478+552821211+550800794+550074467+549853752+548987519+547471031+546436623
3468+546491337+547259506+548068956+548287076+547699392+546706966+545650742
3458+544298922+542574381+541234381+541007038+541636003+542299304+542308353
3448+541217161+539136383+537049924+535881957+535334959+534532067+533443400
3438+532597228+531859853+530535882+528525636+526852022+526601179+527284577
3428+527071053+525270123+523556911+523768892+525341427+525847530+523891613
3418+520456666+517436704+515946065+515935999+516527435+516593583+515656186
3408+514378196+513767715+513887278+513684802+512410073+510820283+510201735
3398+510710294+511508451+511928731+511772130+511087013+510320948+510064950
3388+510211275+509894460+508570489+506768928+505490060+505117023+505259455
3378+505493813+505805647+506208847+506347210+505777624+504500194+503121929
3368+502453403+502875050+504229290+506160130+508048848+508818735+507597107
3358+504764469+501973007+500881851+501737246+503263484+504091804+503941305
3348+503106041+501605407+499645070+498202798+498196800+499377218+500623292
3338+501092219+500587868+499176600+497273573+495892467+495909723+497027080
3328+497961495+497689364+496283567+494688761+493841222+493839082+493950474
3318+493443564+492307268+491193208+490721932+490832693+490894807+490490029
3308+489739677+488894908+488167318+487886348+488291547+489161779+489940084
3298+490233540+490167603+490353876+491262302+492423851+492772371+492054917
3288+491240732+491210043+491790011+492405577+492876819+493209942+493304850
3278+493077506+492445947+491409048+490382741+489906344+489900662+489722000
3268+488851418+487334404+485911807+485663876+486866214+488377195+488809926
3258+487882701+486123859+484149809+482645527+481959358+481461426+480359221
3248+479141626+479080564+480388472+481887248+482477632+482113539+481321415
3238+480493481+479760595+479095014+478390152+477525146+476431534+475275036
3228+474492031+474349389+474576066+474702223+474555899+474186685+473572591
3218+472618605+471296668+469722801+468156054+466932216+466332011+466350705
3208+466449891+465765406+463974157+461798998+460275286+459661718+459377171
3198+458829856+457966464+457110436+456568032+456384740+456373377+456359839
3188+456275839+455875690+454684470+452645570+450483529+448958203+448111856
3178+447493729+446679123+445553840+444523394+444179328+444399727+444268484
3168+443221624+441718815+440408627+439200607+437554244+435439201+433632940
3158+432821175+432666187+432230370+431158012+429872656+428803560+428042651
3148+427562080+427210508+426651620+425730321+424746207+424072174+423663117
3138+423146597+422306738+421354506+420721297+420605697+420752197+420667004
3128+420027483+418991040+418095626+417585032+416974937+415779789+414371397
3118+413432702+412966511+412495200+411794336+410964368+410163300+409473028
3108+408869807+408385028+408166102+408132607+407948614+407585924+407341991
3098+407210713+406879378+406259918+405515388+404800179+404274364+404038007
3088+403957935+403816275+403567537+403329462+403205198+403061293+402435766
3078+400972765+399009693+397387109+396661063+396695610+396957219+397013652
3068+396737592+396207884+395526310+394751968+393951742+393190762+392469380
3058+391780932+391194406+390762832+390455943+390202997+389802849+388971162
3048+387843564+387090476+387030852+387044075+386353908+384972592+383467994
3038+382245594+381384060+380812019+380371327+379880830+379285150+378676458
3028+378142015+377664356+377175578+376627702+376003367+375333964+374683745
3018+374044399+373352689+372720532+372439948+372514899+372379447+371476001
3008+370058876+368977715+368620285+368479432+367845207+366609339+365298765
2998+364477776+364166608+363916362+363475880+363059177+362811281+362476404
2988+361810753+360910674+359998249+359231588+358739092+358542613+358464856
2978+358305414+357999052+357466187+356601006+355611245+354993364+354879832
2968+354760233+354141194+353132669+352131896+351314835+350639784+350053749
2958+349591837+349354182+349283651+349037193+348325912+347269021+346203888
2948+345358699+344817838+344530274+344293321+343982714+343743516+343714896
2938+343706794+343408639+342843156+342361042+342124335+341837963+341171085
2928+340209277+339222463+338249572+337248939+336406695+335925423+335647750
2918+335189977+334425315+333675980+333393817+333680188+334142521+334217086
2908+333633682+332618037+331661806+331070440+330770811+330537505+330235456
2898+329838991+329402191+328983911+328514563+327917831+327355610+327046652
2888+326896119+326620795+326128335+325531989+324982780+324605570+324381243
2878+324091329+323588312+323014061+322582417+322324210+322185671+322170450
2868+322217623+322091220+321607633+320957274+320593847+320707519+320968357
2858+320905155+320354333+319403293+318151958+316800840+315775550+315419980
2848+315602395+315845240+315802241+315461612+315001559+314626102+314461715
2838+314457506+314388587+314023302+313325173+312516495+311925900+311701362
2828+311632584+311326853+310633108+309808015+309162251+308668633+308104694
2818+307488145+307117739+307145412+307301943+307176101+306680975+306075685
2808+305542540+304976356+304272370+303594233+303189806+303095810+303159854
2798+303204221+303049303+302543656+301716985+300791302+299982308+299405322
2788+299123475+299082159+299034003+298722239+298102359+297275723+296343201
2778+295455783+294826117+294506041+294261442+293815260+293130758+292353715
2768+291604520+290946532+290442831+290136556+290010433+289930888+289619106
2758+288887413+287976864+287368979+287167940+286978178+286491031+285868941
2748+285383477+284959883+284360871+283651852+283114674+282753474+282273991
2738+281575687+280909387+280504487+280323931+280196089+279985967+279636710
2728+279155876+278572016+277917272+277286712+276829395+276563927+276260247
2718+275660218+274826041+274126299+273830353+273823812+273770852+273469575
2708+272984900+272452685+271855987+271111229+270324910+269770879+269579555
2698+269594198+269579222+269466006+269329204+269184738+268947785+268629322
2688+268391036+268272243+268046005+267542654+266948289+266557190+266344490
2678+266022519+265498300+265036459+264876824+264888451+264750912+264354955
2668+263893113+263621333+263586663+263568355+263306780+262780264+262178621
2658+261661680+261268213+260983876+260758865+260520228+260276085+260143474
2648+260172339+260195312+259987083+259559859+259140578+258842072+258552597
2638+258177403+257796177+257546018+257490463+257594033+257697902+257573831
2628+257137277+256561975+256075827+255707280+255355480+255038210+254898672
2618+254978480+255136046+255190847+255056465+254776232+254509887+254417207
2608+254497033+254605812+254632748+254572036+254462802+254338170+254193318
2598+253977023+253674132+253360842+253100811+252874555+252686177+252609262
2588+252659732+252752483+252815351+252838131+252826084+252799042+252800077
2578+252840850+252868943+252825330+252731246+252690474+252766916+252875396
2568+252870346+252722110+252525508+252386549+252393844+252621520+253036154
2558+253444930+253637726+253571386+253369330+253167432+253003010+252826838
2548+252582431+252276016+251970916+251708570+251470967+251232699+250989730
2538+250710356+250327727+249845227+249416284+249216421+249188608+249030639
2528+248553962+247961140+247643203+247790650+248263259+248733816+248925122
2518+248795141+248507876+248228449+248019098+247902235+247890187+247929644
2508+247903655+247750228+247560360+247480517+247510557+247511065+247419840
2498+247318953+247280127+247283774+247276620+247199073+247003401+246734671
2488+246535860+246496350+246542050+246536421+246431553+246245402+245963328
2478+245585048+245212537+244952155+244756746+244475705+244048832+243579099
2468+243229298+243086358+243103280+243144193+243109401+243027821+242981226
2458+242945592+242808737+242558719+242337794+242264421+242282905+242220247
2448+241961618+241561839+241197763+241026379+241073675+241202147+241191818
2438+240935627+240546001+240216332+240034058+239959563+239903621+239807609
2428+239701565+239659022+239688851+239721592+239669947+239485200+239229167
2418+239060483+239059712+239160985+239303451+239484270+239647728+239724643
2408+239775868+239909338+240086685+240186292+240215122+240285286+240400729
2398+240460370+240502914+240782621+241593667+243218864+246078209+250744728
2388+257769960+267604611+280666173+297328648+317754791+341722222+368577356
2378+397355789+427042052+456762652+485694670+512923191+537591557+559108647
2368+577043167+591068063+601267438+607766961+609640772+605478165+595390181
2358+580657162+561764271+538333176+510954648+483551568+462587264+452884628
2348+455812769+469741635+489510861+507399085+518729600+524297794+526286680
2338+525936616+524367729+523097981+523077112+523680579+523322062+520962279
2328+516621431+510845711+504143887+496567728+487766539+477705105+466961467
2318+456204956+445893312+436359692+427527463+418551715+408370157+396803635
2308+384726765+373118120+362318505+352202919+342679646+333800629+325523746
2298+317643294+310062190+302969442+296584328+290832983+285428739+280188935
2288+275176070+270625678+266796546+263806360+261551533+259766877+258146118
2278+256493056+254862353+253484054+252465323+251648244+250800967+249830988
2268+248792037+247806187+246988758+246360337+245834399+245319896+244795256
2258+244283435+243811440+243394088+243026944+242696539+242385511+242054316
2248+241653186+241185382+240726031+240334002+239973066+239592190+239257383
2238+239083281+239047734+239025130+238982551+238982989+239036055+239078353
2228+239037142+238853149+238552345+238305361+238274163+238411755+238533371
2218+238566024+238628892+238861514+239243003+239624457+239896010+240053295
2208+240146309+240250511+240448516+240769504+241159323+241513876+241736572
2198+241821607+241904221+242152451+242571608+242980297+243229824+243390476
2188+243639319+244014811+244393512+244661715+244799763+244844814+244846304
2178+244827260+244798167+244812827+244907437+244995716+244957153+244775264
2168+244484421+244116014+243782925+243644562+243693594+243695243+243430634
2158+242964812+242593775+242509810+242610732+242690997+242722861+242852999
2148+243160660+243572014+244127658+245188337+247123473+249897644+253208695
2138+256871897+260843865+265095662+269678672+274741656+280367246+286480825
2128+292933893+299667878+306763537+314227181+321826173+329300269+336550670
2118+343481205+349913001+355664100+360420739+363660504+365019022+364631395
2108+362938631+360266873+356728391+352482942+347858844+343080811+338051971
2098+332491704+326180664+319144770+311689894+304150211+296701332+289559166
2088+283080670+277478649+272680379+268540008+265002193+262080084+259761669
2078+257909813+256315779+254877610+253599286+252455309+251418147+250568328
2068+250046652+249864255+249774924+249459231+248881649+248270922+247794210
2058+247492827+247367406+247291368+247098273+246866809+246819864+246981427
2048+247212015+247461472+247796489+248244916+248653972+248781393+248640066
2038+248566483+248809960+249296966+249836810+250314697+250722509+251150154
2028+251661642+252180424+252601108+252931952+253302551+253912944+254834523
2018+255751472+256134487+255798032+255079596+254436269+254063144+253881484
2008+253738596+253567966+253387761+253213623+253033225+252844637+252652858
1998+252482877+252525052+253126554+254306691+255376366+255525497+254749664
1988+253699402+252890776+252502763+252511654+252680075+252740348+252698611
1978+252717673+252825575+252943368+253046272+253258289+253877854+255058482
1968+256326898+256862656+256502263+255923260+255665824+255627296+255634802
1958+255861128+256413563+257012628+257347277+257450532+257594472+258029360
1948+258952341+260605228+263015902+265347557+266079162+264707842+262585381
1938+261220689+260811019+260799375+260861068+260990102+261219199+261544746
1928+262061740+263145392+265036196+267092597+268383635+269138986+270111438
1918+270717657+269769774+267831183+266730012+267268734+268718214+269860280
1908+270012199+269379499+268673759+268405679+268593635+269044727+269732158
1898+270792801+272071599+272994072+273467225+274344033+275984819+277119940
1888+276478279+274734343+273331510+272672014+272431325+272447564+272682729
1878+272994212+273274463+273652796+274743865+277547269+282278059+286888829
1868+287976075+284800125+280317144+277337059+276320608+276362871+276631267
1858+276786202+276827904+276920602+277219950+277881586+279124819+281177415
1848+284387877+288938795+293389842+294461814+291159303+286822699+284540427
1838+284353576+284724140+285057386+286571523+290481254+295551007+298568409
1828+298500613+297417067+296295607+294153943+291156690+289041208+288628276
1818+289141429+289690813+290481920+292317590+295128763+297443582+297864318
1808+296802973+295974128+296825841+299776254+303897930+307123631+307926137
1798+307169367+307405092+310504776+315799751+319405643+317645539+312473565
1788+308730712+308365778+310093580+312238892+314452666+316517976+317651746
1778+318191029+320250202+325690975+333675559+339783421+339938934+335563785
1768+330351162+326405342+325199321+327456726+331352637+333707125+334172263
1758+334608080+335334688+336248165+339185776+345779470+354044182+359141450
1748+359074706+356571229+354828064+355156173+357343993+359993654+361455253
1738+362588427+366714277+374683429+380754149+378786552+372146527+365982163
1728+361519401+359097644+358969592+360513121+363726582+370376041+381587554
1718+393879000+399136447+394403833+385670405+378617746+375398498+376565378
1708+381670432+388502376+394096348+398656858+405377340+414575171+421014543
1698+421374006+417601868+410554715+402349206+397733701+398535470+402926753
1688+409520552+419700602+432936390+440384637+435415632+425956157+420405780
1678+420915321+425990072+431763022+435447127+438844055+443767185+446783325
1668+444051522+439441208+438904521+442790682+446527993+446805631+446214370
1658+449488402+459543487+476967274+495985411+501999242+496484044+494960121
1648+500372836+504855554+501366174+494521884+491500167+494258696+502592046
1638+515931685+530680207+538153497+535241454+530864270+532271014+539873197
1628+550532521+561539698+572690394+583595369+592142490+598743092+607551191
1618+620809496+634163479+640771097+642098611+643988836+648264799+653367503
1608+657446706+660147259+662461096+665294997+668453673+671323558+674125542
1598+677756653+682628927+688164713+693514681+698575228+703750814+708848678
1588+713160415+716552397+719508772+722305916+725104393+728830761+735144747
1578+744723330+754576816+759334261+760114145+763614292+772682843+783940933
1568+792130484+797465302+803984255+814137264+829319885+851759044+879520114
1558+896866249+895289156+887947179+882637755+879601062+877845587+876411943
1548+875482507+876771371+881268995+888123246+895534877+898630002+890054928
1538+874442662+863706389+860134903+858520772+853677188+847150870+844047398
1528+845778813+849613697+853003505+856436032+860055147+861372490+859625152
1518+856768945+853054431+848130179+844053360+843738685+848880882+859624520
1508+871957177+873871744+859837554+844156756+836759855+836891168+840734681
1498+843743315+842169027+837036792+833755780+835811130+841637180+845733007
1488+843759448+837209070+830403150+826204067+825094848+825838817+827171592
1478+829112252+832500868+837822638+843583101+845175767+839959637+832783977
1468+829751914+831890457+835084487+834799273+832722950+834261814+841563035
1458+850428163+851542082+842842569+832684650+826319528+824190665+824770142
1448+825070367+822721737+818736880+815856052+815252726+816640776+819858656
1438+824174111+826403843+823729385+818707559+815472985+814668830+814266052
1428+813074130+812260927+813022503+814964706+817510166+820840911+823846178
1418+823301985+818276933+811857517+806916289+804074533+802466925+801373349
1408+801229058+802297873+803125036+802420910+801772550+803516591+807165729
1398+810145392+811117967+810324545+807934319+804830076+803083790+803622652
1388+804534270+803043947+799850197+798749045+801659334+807125956+813077287
1378+819040683+825242435+830842615+834185214+834884500+834491121+834480950
1368+835077402+836395025+839088704+842817597+845357305+844968907+842648475
1358+840361854+838944694+838437748+838716088+839245059+839242113+838589194
1348+837928278+837681995+837884927+839109186+842271721+846881439+850505955
1338+851238630+849993538+849036325+849488627+850997188+852692898+854064815
1328+855447954+857675442+861049046+865103137+869512447+874395875+879396867
1318+883477052+886291242+888863357+892245519+896244054+899869061+902625100
1308+904970292+907500881+910180530+912624419+914721645+916639017+918409574
1298+919860545+920995087+922028619+922756805+922545034+921308710+919713028
1288+918210780+916652064+914884875+913056869+911379326+910059879+909213848
1278+908577413+907679052+906443149+905384435+905190200+906223732+908212864
1268+910281400+911491981+911531894+910963360+910969884+912732444+916594475
1258+921596379+925944802+928327944+929010465+929318406+929997210+930727220
1248+931184852+931602151+931981782+931562659+929685270+926831448+924216334
1238+922453002+921076386+919409646+917469827+915870708+915091385+914860885
1228+914354852+913202212+911947369+911146582+910591727+909842777+908891527
1218+908062962+907838424+908544304+909705431+910453188+910910330+911930253
1208+913484550+914984202+916816978+919603319+922736673+925238362+927044272
1198+928465360+929685340+931492443+934879304+939285318+942500602+942942943
1188+941513507+940726118+942318012+945927868+949760999+952254410+953406770
1178+954646952+956995231+959569170+960719565+960378725+960030801+960654750
1168+962075909+963953579+966111060+968112818+969468741+970079363+969928058
1158+968911150+967629582+967578656+969859174+974192166+979226337+983371197
1148+985689524+986530224+987164906+988561654+990721310+993222648+995728546
1138+997781510+998903356+999224625+999460315+999996301+1000591561+1001128599
1128+1001799756+1002611626+1003376359+1003989786+1004616751+1006036016
1120+1009438661+1014969887+1020641335+1023648707+1023043066+1020683633
1111+1019494728+1020715199+1022990737+1024450827+1024923541+1025606202
1103+1027904748+1032586295+1038047095+1040475691+1038226458+1034624248
1094+1034009348+1037201975+1041716224+1044280834+1043437678+1040788683
1085+1039381974+1040709979+1043734677+1046908435+1049548311+1050474169
1077+1048380590+1044751163+1043012032+1044345789+1046761058+1048726410
1068+1050540737+1051709441+1051158513+1049520954+1048433269+1048563811
1060+1049096150+1049242264+1049958806+1052858503+1057938550+1063631743
1051+1067696777+1067879998+1064080047+1059017887+1054945769+1051598750
1043+1048838643+1048103793+1049411737+1050932503+1052344753+1055375273
1034+1061315100+1068811398+1073741823+1073004097+1068921457+1066860355
1025+1068318622+1069667250+1067940885+1064327382+1061484292+1059832283
1017+1057744175+1054602334+1051951935+1051447866+1053501742+1057319932
1008+1060648993+1060656639+1056781631+1051780148+1048446597+1047102108
1000+1046679057+1047166572+1049352183+1052298878+1054017736+1053884740
991+1052828060+1052594263+1054252165+1056510306+1056385586+1052320202
983+1045970091+1040277388+1037025558+1036627549+1038524789+1041193215
974+1042594593+1041252068+1037090233+1031335381+1025864129+1022243120
965+1020511846+1019637686+1019260230+1019222140+1018122040+1014455015
957+1008610096+1002149364+996369821+992556752+991545877+992035005+991441500
947+988923186+985667288+982743109+980492333+979058337+978373221+978141388
937+977876236+976761265+974370687+971913682+971403299+973041209+974726679
927+974586036+972929467+971237614+970289380+969692227+968717968+967490062
917+967019732+967642349+968125374+967105030+964757803+962363438+960972792
907+961027366+962463466+964777724+967200499+968877621+969364855+969120536
897+968712216+967901749+966370250+964460594+962543573+960748255+959464021
887+958804368+958055278+956744389+955648146+955625840+956070285+955576597
877+953667573+951230909+949647994+949769978+951059963+951816909+950875409
867+948641749+946119227+943473738+940200443+936836379+935799130+939170419
857+945520670+950103732+949650799+946226129+944261829+945325524+947548382
847+948694709+947910125+945382132+942580288+942016314+944257410+946219044
837+945208380+943142930+943515265+946501522+949811855+951953764+952507357
827+951185946+948717717+947382206+948738340+951768298+954158104+954959873
817+955156703+955641693+956512135+958107186+960925724+964475044+967186890
807+967524223+964762853+959474964+953697104+950118112+949946956+951507495
797+952315788+952136425+952720320+954873944+957255683+958735344+960020279
787+961831170+963166680+962793152+961409241+960871642+961903560+963386728
777+963679588+962359299+960555985+959467318+958937785+958218578+957550928
767+957946622+960029538+963369332+966206950+966356081+963510326+959707779
757+957053803+956095187+956327932+957325899+958853259+960067838+959820924
747+958280657+956884260+956664703+958180278+962355301+968409817+972267779
737+971482915+969374044+969892283+972314566+973410528+972341994+971221972
727+971161786+970653017+968699029+966836581+966333844+965564412+962405105
717+958127879+956234287+958615745+964144726+969981158+973612970+973518132
707+969452187+963418645+958978190+958038794+958739412+957405585+952563404
697+946847342+944843901+948306661+953222847+953666099+949011488+943946032
687+942522628+945483212+950998235+954941635+952773561+944755728+935810914
677+929341204+925011720+922156144+921675223+923821482+926325625+925973983
667+923874863+923511646+923985623+921809482+915215053+907020170+901786714
657+901061895+902979267+905346696+907908780+910787013+912095658+908639632
647+899901048+889888822+883395893+881267943+880674648+880030567+881076234
637+884969830+888718225+888537108+885893443+885146107+886535069+885752801
627+880332896+873887036+871842278+875896720+883552950+890527853+893992927
617+893173341+889034724+884528612+881527624+879331140+876654367+872942379
607+866985576+860261727+858193892+863332019+870406038+869816741
##END=
