##TITLE=<SNM>
##JCAMP-DX=4.24
##DATA TYPE=INFRARED SPECTRUM
##DATE=2/5/2025
##SAMPLING PROCEDURE=Instrument type and / or accessory
##ORIGIN=Admin
##XUNITS=1/CM
##YUNITS=ABSORBANCE
##RESOLUTION=4
##FIRSTX=4497.3318
##LASTX=599.83466
##DELTAX=-1.4281778
##MAXY=1.7110894
##MINY=0.23976116
##XFACTOR=1
##YFACTOR=1.5935762e-09
##NPOINTS=2730
##FIRSTY=0.2618719
##XYDATA=(X++(Y..Y))
4497+164329707+163962708+164344594+164838258+164855969+164556950+164573313
4487+165119305+165719811+166051165+166451153+167118219+167468012+166848187
4477+165471455+164188380+163590155+163656658+164070635+164530225+164798873
4467+164764163+164497703+164131864+163808346+163738365+164040189+164505390
4457+164796703+164850078+164842821+164822063+164578569+163984701+163417876
4447+163492888+164171230+164581168+164042732+162855372+161826469+161464351
4437+161696288+161994989+161859889+161323379+160827134+160707463+160981796
4427+161363775+161389957+160860310+160085431+159446082+158955241+158448953
4417+158002192+157917100+158262069+158690783+158950360+159166737+159279077
4407+158834654+157771060+156659917+155925592+155623431+155793756+156194548
4397+156196802+155630360+155079815+154970159+155076000+155096310+155126616
4387+155479981+156233195+156908190+156783011+155748909+154563344+154007058
4377+154168340+154683202+155197149+155414582+155178082+154744160+154608798
4367+154914288+155306001+155351240+154883571+154105596+153532609+153571396
4357+154071466+154522706+154549393+154061114+153310566+152844570+152896822
4347+152980250+152636020+152297111+152756346+153966588+154984905+155135490
4337+154697790+154243576+153840895+153337141+152958949+152983177+153106027
4327+152782836+151994548+151178796+150641080+150454785+150683664+151259288
4317+151809300+152029305+152036963+152024592+151937265+151874615+152315579
4307+153457747+154774999+155611126+155798244+155539649+155170564+155063825
4297+155284663+155432657+155207855+154867600+154764563+154786556+154596250
4287+154110290+153518779+153095339+153028771+153195523+153219125+153004796
4277+152996483+153600842+154595623+155449348+155988495+156309740+156257516
4267+155601233+154696639+154313183+154643695+155054559+155070661+155061020
4257+155504275+156073587+156096973+155630099+155391224+155787659+156521554
4247+157008766+156907030+156452125+156332173+156964444+158035387+158968669
4237+159465382+159416571+158782364+157762663+156805771+156352380+156531157
4227+157029488+157433104+157641963+157708410+157636914+157615594+157882727
4217+158209760+158234334+158199905+158556337+159085965+159123705+158434179
4207+157514793+157149645+157668351+158654595+159544489+160221578+160675558
4197+160561703+159643364+158369715+157621036+157898810+158754181+159118880
4187+158438275+157309637+156744729+157053519+157730590+158212154+158405528
4177+158564753+158921223+159446923+159878592+160013468+159974494+160055284
4167+160361541+160747858+160985611+160913741+160615077+160431185+160587941
4157+160874468+160898761+160590952+160300274+160412970+160977850+161737300
4147+162380465+162645073+162402215+161858598+161420253+161228993+161148539
4137+161191964+161583144+162399353+163355114+164001551+164238051+164489830
4127+165036382+165389449+164827336+163362464+161769766+160857580+160934948
4117+161699822+162490168+162855241+162931767+163180479+163808701+164513095
4107+164791018+164509448+164146526+164386579+165351129+166270384+166216617
4097+165241201+164360920+164302160+164822250+165366277+165743506+165946586
4087+165880570+165609640+165497207+165767519+166137454+166148002+165765873
4077+165499844+165900786+166910239+167737969+167621383+166709983+165835667
4067+165452529+165296764+165073411+164949083+165229345+165926912+166782339
4057+167454397+167604982+167107690+166343900+165985766+166308928+167016033
4047+167820461+168732741+169615884+170022661+169761064+169165925+168608039
4037+168119555+167649398+167366276+167504761+168046675+168670259+169035145
4027+169155078+169442034+170217886+171168672+171561984+171179556+170713234
4017+170859236+171278862+171059025+170071846+169206731+169280060+170256579
4007+171452412+172135523+172123367+171982488+172385974+173276747+174003788
3997+174205989+174142516+174111639+173955276+173424059+172743341+172397587
3987+172514940+172872868+173325427+173805065+174136999+174279243+174522400
3977+175084418+175729865+176105055+176264822+176554453+177043853+177378798
3967+177273676+176953506+176925809+177357067+177881607+178045788+177755260
3957+177302832+177145889+177569684+178447684+179454219+180319670+180632996
3947+180037539+179087969+178929473+179664649+180084330+179449394+178390196
3937+177891295+178613193+180821208+183798624+185713493+185407049+183977747
3927+183349918+183973651+184679821+184627625+184633086+185861216+187912475
3917+188880897+187385934+184151372+181045514+179296640+179249138+181186113
3907+185497640+191711337+197862871+201798609+202942507+201460111+197200556
3897+191303457+186823130+186284825+189357225+192738145+193537206+193200915
3887+194564387+196994278+197933151+197916582+198883414+199142337+196246422
3878+192602503+192142744+195213985+199816022+204501355+207599975+207054003
3868+204250250+202680162+202719585+201949026+199403503+196782371+196093332
3858+198945578+206891879+218929179+226242583+220429005+208542308+199473840
3848+195596114+196270547+199914317+204767478+209796882+214704614+218367815
3838+218674782+215582315+211640966+208321537+205248332+202490678+201189276
3828+201734201+203537179+207078371+213486359+220582002+222873539+220004368
3818+217039501+215010758+211137764+205684171+202133442+202932783+208035216
3808+214430655+218324110+220569940+224637243+229235951+229359082+225335334
3798+221467052+218473871+215020315+211593707+209543252+209080352+209951469
3788+212242351+215604196+218887007+221665494+224991376+229245414+232530993
3778+233137503+232475955+233442993+237688372+244727892+252125453+257514881
3768+261228164+264832119+268619441+273034220+279738795+289062951+298395841
3758+305452959+312001040+321730608+336474300+353997266+367820693+374915907
3748+381008119+390983107+402073006+407704712+409143608+413526874+424026664
3738+439679065+457360993+472358167+480284663+481136630+479578044+480134640
3728+484112606+490291481+496968566+503122044+507710317+509942495+511152671
3718+514106392+520498315+530732506+544422480+558894888+569390377+574176811
3708+575999276+578303828+583510149+591852231+600075858+603951789+603257887
3698+601454984+601799354+605596738+612525807+621338831+629157607+631373963
3688+627000908+620877016+616535454+613921316+612831652+614320070+619513898
3678+627748409+634461886+634232531+630465069+630278053+632921553+631719343
3668+624642645+616958782+613225768+613901268+616506654+618545196+620287394
3658+623626964+629093274+635971250+644319840+654305937+664011436+669061524
3648+667039962+661704040+657768339+656241920+655253955+653244064+651848106
3638+654470735+661660353+669985754+676751820+683601295+692329003+698335413
3628+694894554+685970780+680683182+682634201+690162018+698116530+700778058
3618+697888670+694905850+695313244+698139944+701810532+705809519+708381803
3608+707152439+703315781+700851966+701765573+704704483+707118327+708582807
3598+711309416+715993403+719331627+718623737+716638980+717965069+723015456
3588+727374036+726963500+722405412+716634267+712393657+711816826+715153480
3578+720109686+723532591+723552714+720883032+718878751+721105505+727551701
3568+733295017+733069776+727905758+723062733+721658323+723056001+724745049
3558+724905209+723985093+723735465+724822398+726475839+728109306+730188916
3548+732453149+732869520+730842947+729061363+730043792+732657220+733437523
3538+730952313+727519459+726015108+727066807+729934351+733885911+737589189
3528+739111868+737782264+734675415+731218025+728490817+727030975+726409560
3518+725780515+725092972+724581747+723848722+722920078+722744433+723890987
3508+726317100+729923579+733813424+736171687+736196673+735091262+734091104
3498+732922632+730925832+728782336+728358560+730543872+734234358+737599737
3488+739218243+738557555+736218067+733901845+733355610+735308275+739418424
3478+744189784+747164450+746700353+743319115+738848476+734985711+732862638
3468+733052421+734839315+736236844+736084089+735467388+735875006+737069735
3458+737904796+738379666+739701715+742221111+744301245+744206840+742191114
3448+739617483+737745384+737550963+739000183+740520842+740491069+739086733
3438+737519769+736451537+736084239+736345986+736690992+736845691+737152695
3428+737481917+736961266+735497160+734466706+735139363+737151274+738869197
3418+738806360+736865814+734478824+733160516+732834810+732256409+731347290
3408+731609635+733634113+735902311+736679546+736099200+735650289+736162561
3398+737109906+738110513+739778915+741841170+742310953+740216905+737362601
3388+735929914+735950261+736115134+735922733+736314642+738219580+740944544
3378+742902969+743605024+743487354+742557963+741183176+740731720+741466392
3368+741640840+740428531+739693411+741113980+743496256+744476965+743448156
3358+741646226+740651229+741149737+741901240+740667986+737755633+736742159
3348+739612920+743555129+744583863+742427426+740210845+740311908+742169270
3338+744265937+746666990+749630136+751466926+750835263+749343703+749124521
3328+749642254+749118237+747802023+747811898+749917541+751829212+750971186
3318+748217646+746424169+746280466+746036598+744467689+742322623+740753265
3308+739924413+739753630+740121452+740258048+739570205+738998163+740198203
3298+743675193+748099378+751098356+751280733+749481047+747429563+745833350
3288+744590296+743969405+744119242+744241924+743454963+742583472+744102560
3278+749236880+755542664+759123410+759514421+759517937+760306544+760187751
3268+758048969+755271417+753882716+754248742+754740518+753453852+750418144
3258+747501078+746135492+746122102+746462245+746820118+747982830+750372437
3248+752520496+752684845+751732188+752236980+754837317+757028239+756046708
3238+752542414+750141660+751263603+754136832+754858562+752172123+748543651
3228+746820193+747731032+750343188+753115279+754723985+754869409+753902090
3218+751828314+749046723+747429115+748716154+751743709+753136375+751399600
3208+748384988+746445937+746272612+747428666+749107839+750064760+749490847
3198+748307040+747945576+748356935+748602599+748430470+747988739+747278081
3188+746900534+747503173+747984401+746436811+742989445+739608506+737496804
3178+736627855+736735202+737337242+737619037+737016847+735773719+734569938
3168+733561776+732497509+731960401+732762771+734602180+736962912+739888506
3158+742321949+741538430+736780086+731398831+729348021+731557495+736185452
3148+740520393+742440442+741642635+739880501+738920290+738342263+736379948
3138+732550995+728475706+726232569+726650436+728804629+730744128+731088236
3128+729852588+727889824+726323608+726097394+727148944+728195482+727745972
3118+725576669+723080462+721686824+721248610+720583209+719412942+718861620
3108+719818840+721760658+723337721+723526531+722314971+720609690+719476976
3098+719401870+719775901+719140797+716811782+714001989+712323189+712057852
3088+712810626+714408485+716288364+717325551+716840508+714862035+711824382
3078+708936939+707700244+708241990+709010698+708523411+706986818+705949706
3068+706392558+707335714+707037761+705519047+704268961+703548129+702214485
3058+700293987+699480545+700531272+701928651+701811205+700129713+698531928
3048+698728668+700860718+703166992+703430833+701157400+698032448+696040360
3038+695813174+696796201+698180713+699172119+698874989+696889260+694044083
3028+691781871+690735632+690379854+689867581+688593782+686481257+684442565
3018+683819654+684865893+686356929+686971387+686309502+684250687+680655878
3008+676516929+674071441+674548929+676596747+677947072+677882365+677124280
2998+676274332+675395210+674404478+673148483+671609271+670191246+669360524
2988+669211884+669547839+669906235+669615837+668346227+666397677+664330708
2978+662694099+661995335+662307501+662818727+662352011+660595712+658533756
2968+657454527+657667650+658317566+658406136+657724054+656631809+655358983
2958+653961978+652753260+652115463+651918125+651600049+650737384+649249640
2948+647353977+645582269+644500497+644137912+643984858+643731490+643512906
2938+643355963+642966073+642085081+640658827+638805655+636984724+635907590
2928+635837945+636138666+635799719+634387903+632400678+630744919+629749473
2918+628665981+626690837+624312151+622613416+621622234+620547008+619327369
2908+618632195+618558586+618655610+618934225+619474176+619423046+617843402
2898+615264497+613136824+612092193+611682181+611344394+610790267+609866411
2888+608729059+607749697+606944259+606012960+604987255+604151970+603331309
2878+602005632+600198278+598562081+597556162+597064387+596674198+595871042
2868+594304377+592326166+590851288+590285865+590021837+589315218+588283604
2858+587628078+587546352+587377253+586388540+584540716+582285460+580098989
2848+578507339+577979319+578311309+578500718+577656568+575850785+573830309
2838+572111862+570654077+569347551+568415055+567972576+567546518+566609159
2828+565379459+564467609+563854610+562945715+561597971+560402980+559814330
2818+559553332+559065745+558134970+556827396+555240907+553579201+552158071
2808+551113889+550292368+549486033+548592286+547562468+546443592+545450952
2798+544765316+544258168+543592618+542551054+541113093+539383987+537682633
2788+536477656+535887323+535411743+534466044+532938502+531042952+529055988
2778+527436735+526623629+526376208+525890491+524806812+523492431+522269463
2768+521105180+520063317+519347123+518893723+518400077+517662302+516627060
2758+515337738+514014305+512947420+512214320+511642539+511006986+510180715
2748+509221924+508292121+507357157+506135535+504554545+502988254+501695940
2738+500341238+498562011+496791986+495909385+496073248+496406472+495999003
2728+494884279+493719772+492780057+491765873+490532282+489453204+488852847
2718+488437785+487624306+486283144+484815485+483538020+482370333+481184170
2708+480086315+479186883+478417988+477731417+477151707+476522587+475565181
2698+474326092+473264630+472765262+472753742+472900624+473020052+473048366
2688+472718545+471598697+469613342+467290237+465313111+463981038+463131764
2678+462427464+461719461+461153815+460819992+460484786+459951306+459399423
2668+458998986+458507098+457598466+456296689+454828656+453346185+451951387
2658+450803449+450099711+449893844+449902634+449682217+449106023+448450235
2648+447927826+447407400+446672878+445710797+444675480+443737336+442950525
2638+442182079+441297907+440468906+440004509+439765765+439146183+437900773
2628+436597800+435920692+435857219+435859052+435519918+434809671+433833339
2618+432690263+431571650+430757497+430373480+430194057+429825225+429121337
2608+428276476+427505225+426892525+426542320+426494145+426441519+425929097
2598+424926807+423863363+423056765+422459364+421960818+421565617+421186799
2588+420601478+419767128+418955519+418400981+417993736+417487934+416835961
2578+416169812+415588232+415037210+414354380+413500206+412750536+412465973
2568+412629051+412795644+412553870+411904029+411146916+410501863+409963558
2558+409479001+409034204+408551742+407935601+407231114+406568780+405996738
2548+405495761+405085375+404834774+404773283+404801149+404766102+404633770
2538+404421732+404015647+403319014+402523301+401929565+401560733+401185057
2528+400673757+400154453+399778178+399482095+399139221+398801733+398527718
2518+398165170+397660528+397289153+397199685+397086391+396649860+396031250
2508+395569397+395427714+395513255+395558812+395349056+394943868+394555400
2498+394248620+393909299+393424892+392818364+392261170+391906365+391682769
2488+391427082+391194659+391169449+391327814+391454610+391374792+390984528
2478+390277536+389504638+389022513+388853937+388696246+388428328+388242247
2468+388219731+388177428+388012817+387838818+387695564+387461720+387108560
2458+386750949+386441813+386164133+385977828+385955386+386037561+386111993
2448+386147114+386143112+386072308+385954563+385857577+385738598+385428452
2438+384896917+384396650+384144853+383983608+383661306+383340462+383388862
2428+383723433+383867135+383655060+383375547+383242915+383221932+383277812
2418+383360959+383273287+382898844+382426631+382137243+382121609+382271071
2408+382369815+382216051+381816923+381410801+381200558+381174899+381246526
2398+381419927+381723453+382045905+382146070+381881294+381421498+381135140
2388+381203101+381473376+381799755+382335442+383294980+384635619+386308882
2378+388735369+392635837+398304983+405329130+413068724+421038982+428735562
2368+435623525+441451971+446119799+449375437+451115840+451551473+450734628
2358+448464224+444659733+439390500+433212971+427933191+425850625+428100607
2348+434477382+443864992+453856662+460993318+463208665+461386462+457695115
2338+453533238+449271120+445052353+440944635+436584896+431587172+426238645
2328+421218180+416822571+412844230+408988423+405237418+401834524+398835770
2318+395866415+392585978+389206573+386286254+384128358+382573512+381312505
2308+380227966+379380562+378751517+378142408+377384696+376558163+375903123
2298+375548542+375397658+375268244+375087998+374929634+374860700+374810542
2288+374658012+374427497+374269245+374245980+374295090+374382464+374507914
2278+374605536+374621918+374593941+374527850+374399482+374339263+374517863
2268+374798498+374821913+374483078+374075759+373935647+374093712+374308705
2258+374384559+374387177+374484387+374663698+374757355+374671290+374454091
2248+374232141+374179702+374429779+374900871+375300822+375422830+375387634
2238+375483012+375821959+376297277+376794588+377247502+377556638+377683285
2228+377765048+377974842+378370492+378939841+379597163+380134458+380404957
2218+380533773+380771096+381217427+381806749+382449671+383117578+383830966
2208+384568929+385254078+385927783+386814909+388024113+389305729+390320025
2198+391057128+391807583+392778716+393885249+394910991+395784502+396638302
2188+397607677+398635963+399543212+400271375+400972645+401807220+402740239
2178+403634210+404440359+405140357+405609579+405747559+405671930+405612758
2168+405668900+405733944+405596076+405152289+404583725+404163875+403877742
2158+403456022+402770947+401953578+401152778+400375393+399548149+398634541
2148+397647325+396597009+395610914+395090638+395412940+396445153+397722767
2138+399037485+400456744+401939963+403344598+404648020+405885164+407003703
2128+407930925+408734605+409636206+410777823+412014294+413093298+413953269
2118+414663853+415258786+415823684+416568006+417651722+419034215+420527607
2108+421940059+423174697+424234065+425194575+426195070+427368255+428751645
2098+430285470+431835790+433245138+434465488+435527137+436270037+436347872
2088+435625507+434333605+432772438+431066259+429224345+427296179+425390119
2078+423567953+421827326+420189857+418683000+417273727+415961403+414868410
2068+414132804+413747028+413505779+413128307+412506069+411749517+410962893
2058+410163440+409387962+408631896+407800725+406906568+406136513+405661157
2048+405513527+405561590+405553212+405364551+405119262+404914031+404673006
2038+404375315+404153739+404148689+404424836+404932471+405518764+406102065
2028+406739600+407452578+408158187+408781883+409310687+409791092+410244680
2018+410455820+410021421+408806382+407131098+405400495+403811463+402442623
2008+401370763+400610471+400034239+399430591+398669588+397771466+396796442
1998+395832939+395171167+395166304+395674200+395921510+395300843+394036058
1988+392719245+391628497+390787639+390237252+389965743+389802516+389528427
1978+389059280+388533430+388148889+387894623+387669943+387635270+388003616
1968+388457726+388321878+387475821+386559633+386102268+385961146+385771550
1958+385511786+385356413+385298027+385212150+385106636+385093021+385234030
1948+385597139+386377330+387641517+388791549+388770753+387348576+385590182
1938+384506167+384060172+383743181+383361333+383003461+382713924+382441629
1928+382281507+382681832+383960867+385548927+386537415+387027059+387630894
1918+387860586+386705841+384647737+383290903+383364363+384198003+384696623
1908+384380904+383587547+382874607+382437627+382150558+381943907+381963356
1898+382383056+383056386+383549957+383876486+384705936+386133462+386934112
1888+386114274+384448267+383263337+382847490+382770888+382742238+382688639
1878+382585968+382474020+382535399+383330775+385718662+389781795+393634386
1868+394443527+391770629+388065368+385476066+384329699+384035038+384032681
1858+383971564+383739852+383508066+383525682+383966178+384965551+386705131
1848+389544061+393619051+397505941+398230850+395013961+390885448+388595407
1838+388235216+388470967+388696620+389941431+393356743+397868339+400478513
1828+400171733+398963501+397996034+396432735+394170185+392500849+392088892
1818+392343494+392659625+393308344+394884435+397185621+398982203+399256742
1808+398453324+397955040+398836593+401337138+404713999+407388581+408126132
1798+407528207+407707480+410375815+415071284+418479826+417379390+413290300
1788+410263157+410009489+411557976+413548643+415561863+417284424+418193431
1778+418842262+421066136+426280948+433627996+439287343+439741603+436149187
1768+431794684+428784859+428534707+431442198+435542996+437991700+438759660
1758+439648619+440899714+442357761+445572106+451878937+459545969+464582704
1748+465370487+464029138+463131465+463958334+466621246+470016473+472545781
1738+474757798+479591136+488031326+495235307+495679207+492175923+489442731
1728+488467146+489103747+491527354+495628040+501588855+510732186+523983982
1718+538528728+547205680+546863591+542664311+540085294+541270598+546574166
1708+555470786+566022156+575456669+583740365+594066007+607403269+618755738
1698+624077821+625668237+625279769+623807696+624238804+628520109+635852757
1688+645439389+658776726+675918779+689130367+691208556+688251320+688155269
1678+693324972+702603028+712382211+719708650+726014584+733434605+739714881
1668+741554663+741512023+744304312+750417845+756249208+758941332+760268018
1658+764184644+773741353+789886165+807091878+811992129+806590901+804852631
1648+809001828+812037611+807937860+800463081+795773633+795878437+800754151
1638+809453433+817651214+817247635+807370979+797065610+791715699+790501820
1628+790598469+790388788+789694811+787287549+781825878+775841386+773333136
1618+774034145+772707832+765917977+757535051+751821956+748849459+746601534
1608+743791441+740869887+738468311+736096058+733108600+729889168+727283146
1598+725585945+724429890+723111582+721080520+718449214+715851496+713776074
1588+712252049+711082978+710102344+709144452+708249172+708309091+710827365
1578+715942460+720208655+719141994+714954271+713404587+715514569+717440827
1568+716075166+713289385+711941379+713491661+720177386+734518846+752308869
1558+757496600+747272471+735862065+728736929+725272282+724511803+725385689
1548+727576536+732499529+741500578+753927973+767415297+776722528+774079926
1538+762785170+754954164+754500315+757436082+758588022+758513216+761508454
1528+768556016+776691708+783556368+789948254+795840659+798480643+797766394
1518+796868271+796206237+794003944+791028081+790649188+795736679+807000315
1508+820906553+826440038+816752493+803342818+796343058+796579595+801449175
1498+806721961+808027403+805236760+802860618+804371477+809208667+813552884
1488+813868866+810740173+807268869+805507858+805595904+806866861+809296938
1478+813617068+820200159+828117940+834247107+834016854+827461217+821127830
1468+820022569+823651789+827643445+828379238+828029444+831623057+841081022
1458+852313763+855935054+849363484+840664801+835183755+833429700+834237232
1448+835643513+836052852+835600126+835345411+835985003+838189391+842812784
1438+849063212+852730060+850688749+846938269+846509629+848958708+850366111
1428+849178862+847949498+849012419+852165198+856276694+860399410+862598262
1418+860606324+855492725+850584919+847513004+846052265+845472966+845402798
1408+846017704+847193133+847816493+847180117+846469833+847096633+848786579
1398+850555669+852000326+852486117+851309566+849682457+849772299+851653674
1388+852973554+851708058+849047577+848163518+850559335+854949259+859289661
1378+863291042+867963134+872889942+875908893+876487294+876880550+878687717
1368+881202700+883563507+886052008+888459868+889229249+887490979+884482874
1358+881915153+880335846+879257441+878051491+876619926+875239303+873900498
1348+872248180+870368301+869201999+869719582+871861432+874500069+876204153
1338+876077282+874341031+872233817+871047317+871166034+872096622+873266291
1328+874462367+875652533+876880775+878288552+879884915+881367049+882424583
1318+883193441+884219332+885883395+887951037+889709580+890467740+890086603
1308+889236132+888991141+889831065+891222310+892413822+893086928+892969257
1298+891756799+889895847+888448049+887703803+886710826+884402233+880659083
1288+876228839+871922997+867960591+864112189+860423348+857387490+855248334
1278+853602449+851946166+850315542+849182079+848837522+848981150+848934321
1268+848309390+847551604+847757246+849517360+851735213+852399342+851116192
1258+849731829+849850472+851133397+852550749+854021588+856030507+858482727
1248+860654499+861946326+862379603+862535724+863245784+865056541+867642590
1238+870102665+872144723+874359359+876973310+879339428+881130661+882932218
1228+885185753+887603338+889928911+892222094+894246049+895511844+896028829
1218+896372713+897091151+898486809+900721942+903700498+907007005+910105999
1208+912500618+914089052+915491966+917451065+919883012+922031445+923546494
1198+925012844+927338642+930827226+934846934+938272308+940201633+940498314
1188+939976691+939938166+941165735+943488840+946382042+949456425+952549659
1178+955853098+959371680+962208479+963586258+964340903+965924100+968456363
1168+971038447+973248893+975137823+976496079+977176814+977679661+978560279
1158+979554977+980157241+981074663+983834487+988305500+992033988+993108803
1148+992329547+991741122+992699164+995389044+998918024+1001966374+1003895475
1138+1004961388+1005735781+1006530970+1007024242+1006924750+1006917643
1130+1008060606+1010212779+1011881929+1011924718+1010830977+1010088152
1121+1010825292+1013222829+1016568534+1019732908+1022253427+1024813068
1113+1027755194+1030062066+1030783646+1030668445+1031243779+1032654997
1104+1034148501+1035509898+1036917226+1038583608+1040284999+1040833253
1095+1039594239+1038257678+1038569844+1039469612+1039295688+1039535741
1087+1042600773+1047422553+1050834760+1051990515+1052436434+1053013190
1078+1053151432+1052649408+1052495307+1053829100+1056578750+1058904847
1070+1058522962+1055513436+1052476531+1051200712+1051311051+1052192342
1061+1054598108+1059711332+1066712738+1072432117+1073741823+1070183893
1053+1064719828+1061264308+1060749941+1061058965+1060914439+1061105195
1044+1062056205+1063056588+1063999071+1065778410+1068742304+1071775319
1035+1072875792+1071072590+1067676466+1064863156+1063654738+1063848037
1027+1064860763+1065817533+1065514045+1063806445+1062510578+1063097806
1018+1064351557+1064156837+1062915653+1063078207+1065597005+1068453777
1010+1068548706+1064787602+1059432455+1056210704+1056584884+1058212292
1001+1058106291+1056612413+1056442528+1058327044+1059754346+1058618190
993+1056100589+1054202458+1052325347+1048133510+1041035529+1033484447
984+1028603271+1027309050+1027812496+1027924780+1027525913+1027748462
975+1028333072+1027192428+1022919575+1016980267+1012482323+1011170747
967+1011919406+1011720647+1008891553+1004591247+1000168034+995625506+990967701
957+986822244+983550448+980974274+979053476+977916198+977026604+975080671
947+971552664+967937732+966034888+965400382+964194058+962082730+960379693
937+959906544+960478662+961438050+961729720+960587953+958646584+957598924
927+958341600+960084358+961365638+961556319+961184757+960968043+961193734
917+961868111+962498876+962196809+960994151+960050920+959771519+959251392
907+958065490+956982447+956616495+956651654+956415715+955330652+953010315
897+949713908+946638103+945054757+944966859+945123877+944728377+944418455
887+944968206+945943304+946201834+945141083+943073890+940855214+939464344
877+939285557+939586876+939324606+938517896+938131597+938607813+939386994
867+939897097+940175376+940368451+940199090+939254737+937711636+936619242
857+937151562+939310916+941576869+942287004+941398531+940457096+940720040
847+942164172+944060882+945253142+944795030+943513002+943558559+945527083
837+947310835+946777766+944331082+941739049+939742697+938180670+937477717
827+938360355+940323492+941682795+941529891+940625859+940004594+939912657
817+940444603+941956062+944269217+946497617+948349593+950627590+953508300
807+955401269+955178347+954166893+954057676+954567256+954571370+954140935
797+954207662+955014821+955670646+955084016+953357790+952119599+953102028
787+956291687+959265605+958752734+954090591+948672606+946425804+947504733
777+948668193+947764983+946119398+945933130+947111552+947569365+946450041
767+945605704+946957900+949916184+952651919+954566283+955856689+955838736
757+953667637+950150102+947493138+947438978+949781458+952709969+955061575
747+957296558+959616820+960847605+960394056+959756558+960586158+962342232
737+962997459+961474481+958427851+955364091+953742443+954355330+956485285
727+957749733+956138559+952391369+949631920+950448654+954339022+958248017
717+959732246+958948726+957821772+958461963+961591927+965419308+966862319
707+964520961+959764338+955199966+952632021+951337351+948301717+941963243
697+934876408+930429407+928680215+926966257+923458971+919031270+915690352
687+914186450+913763122+913826108+914500037+915199175+914390521+911456699
677+907678988+905236044+905131241+905075734+900603075+890373933+880931228
667+881397944+888833525+893034488+890548231+885495226+882666058+882391519
657+882959148+884408367+886990750+888188247+884730183+877947286+873875139
647+876694881+883112276+884964476+879000781+870153234+863894129+861084784
637+860825356+863639414+869258926+873898403+873372666+867904935+860616647
627+853635513+848166511+845680927+846639942+848532612+848178554+846147044
617+845653174+847651470+849188138+846678691+839998054+832716573+828673525
607+830074270+837705769+850039731+861369945+863695593+855496241
##END=
