##TITLE=<SNM>
##JCAMP-DX=4.24
##DATA TYPE=INFRARED SPECTRUM
##DATE=2/5/2025
##SAMPLING PROCEDURE=Instrument type and / or accessory
##ORIGIN=Admin
##XUNITS=1/CM
##YUNITS=ABSORBANCE
##RESOLUTION=4
##FIRSTX=4497.3318
##LASTX=599.83466
##DELTAX=-1.4281778
##MAXY=1.7248046
##MINY=0.20596382
##XFACTOR=1
##YFACTOR=1.6063495e-09
##NPOINTS=2730
##FIRSTY=0.22808097
##XYDATA=(X++(Y..Y))
4497+141987141+141897948+142176463+142567344+142846137+142925079+142689857
4487+142089553+141398015+141040956+141136550+141442987+141691929+141721298
4477+141422208+140967905+140953192+141751483+142818169+143232101+142800107
4467+142015369+141256058+140723211+140858211+142016520+143708055+144722199
4457+144342970+143147889+142143718+141521910+141003600+140826495+141258989
4447+141639109+141159694+140127359+139289978+138599980+137718526+137057887
4437+137257998+138069332+138596185+138344275+137498721+136499707+135802195
4427+135772343+136389141+137162776+137579741+137517561+137130930+136541840
4417+135836044+135274849+135226426+135729078+136230552+135965673+134734341
4407+133217137+132334282+132411026+133178315+134291948+135363161+135761907
4397+135075564+133699492+132449820+131713171+131360815+131313849+131747456
4387+132679457+133711644+134305214+134091903+132993900+131410899+130134167
4377+129717508+130078574+130743711+131151688+130946262+130425373+130334928
4367+130881930+131513208+131848680+132066565+132213791+131964283+131273172
4357+130603628+130336653+130485892+130998738+131775601+132440803+132660534
4347+132608363+132622287+132627231+132333726+131750415+131198599+130994286
4337+131174591+131457856+131585638+131616557+131659377+131626334+131489600
4327+131335166+131048627+130482107+129932637+129901469+130356644+130661940
4317+130361365+129750105+129407425+129326322+128993234+128383374+128218560
4307+128923336+130000578+130859861+131607345+132523790+133367415+133721366
4297+133522980+132899299+132009125+131257801+131141669+131728671+132571545
4287+133036748+132681136+131661102+130759286+130606532+131012236+131430398
4277+131768495+132253503+132795811+133016646+132811683+132495831+132352603
4267+132302464+132140720+131912038+131846770+132052743+132455321+132897796
4257+133181079+133274558+133491849+134072608+134729934+135078403+135227920
4247+135451491+135639987+135542307+135165981+134690287+134335622+134319833
4237+134610974+134818097+134572773+133961365+133455838+133429390+133761013
4227+133967580+133754955+133286404+132912156+132912397+133465847+134530890
4217+135705015+136484725+136747795+136806728+136893212+136774363+136100960
4207+135069479+134492940+135051575+136501544+137750334+137838998+136828936
4197+135581602+134798747+134614341+134933347+135629848+136410783+136904437
4187+136983518+136829502+136708593+136734085+136792053+136750792+136726042
4177+136938639+137361198+137763637+138040732+138294897+138684135+139275358
4167+139924030+140299641+140153037+139560784+138870851+138435119+138389971
4157+138637892+138997771+139345145+139623947+139782193+139743956+139477760
4147+139090108+138718959+138286697+137587570+136696228+136063242+136093762
4137+136767600+137712542+138545471+139110646+139423270+139493558+139366731
4127+139265479+139404161+139617658+139465478+138847233+138233700+138107523
4117+138449832+138956463+139434764+139742435+139657927+139176110+138720796
4107+138703430+139034821+139433308+139964160+140759547+141471187+141634239
4097+141367894+141137255+141046578+140887385+140641022+140490763+140536533
4087+140736282+140982404+141209945+141498191+141917948+142285573+142368699
4077+142316667+142456453+142673141+142509542+141925926+141443933+141427375
4067+141654396+141720890+141518070+141187561+140840604+140503203+140280012
4057+140358407+140765169+141320492+141894191+142437650+142752835+142623818
4047+142229988+142048755+142274088+142571388+142458281+141827800+141070316
4037+140691811+140872135+141427217+142062920+142558392+142830961+142972055
4027+143186451+143620819+144231161+144822152+145196372+145304136+145314312
4017+145451278+145632076+145448848+144757616+143998286+143588723+143394299
4007+143177416+143117361+143497165+144264157+145108181+145648838+145570582
3997+144922365+144228963+144060299+144560464+145476835+146451962+147234669
3987+147773897+148115993+148206837+147947533+147446802+147065736+147185671
3977+147913275+148934173+149707992+149867649+149377938+148410825+147303574
3967+146571795+146686182+147781634+149572928+151435613+152639552+152765637
3957+152027736+151150586+150904724+151744323+153640959+155807447+156799838
3947+155950341+154591541+154523323+155597680+156074997+155151892+153693993
3937+152819208+153242269+155278014+158218146+160170422+159890405+158554379
3927+158320594+159673819+161073667+161180642+160680569+161080234+162473477
3917+163126741+161327432+157515680+153868426+152115806+152645044+155468487
3907+161037081+169283199+178107554+184117575+185575809+182876224+176733847
3897+168908896+163065238+162280454+166015768+169656297+169374776+167834187
3887+169521770+173673039+176017541+176027578+176270546+175755074+172188423
3878+168290679+168379176+172696660+178709612+184492750+188055190+187262965
3868+184139412+182913682+183719858+182954369+179065010+174747489+173296435
3858+176660805+185923860+199475029+207693226+200944190+186719071+175356114
3848+170063735+170584736+175321810+182168990+189589750+196696057+201580033
3838+201434950+196732383+191523492+188054429+185399204+182629026+180638067
3828+180240814+181172333+184198243+191006963+199557830+203143312+200412429
3818+196901344+193864562+188358528+181302573+176954663+177631118+182752736
3808+189128526+193304229+196412978+201625394+206928534+206941558+202595355
3798+198680040+195532238+191506535+187664578+186171874+187315897+190022977
3788+193406604+196784350+199526903+202242665+206663359+212798184+217718616
3778+219391580+219946551+222871163+230052201+241364267+254283527+265017877
3768+272268989+277563817+282383489+288488574+298363186+312472480+327623052
3758+340449882+352151075+366814746+387104302+411491768+432814754+445698281
3748+454809054+466052030+478135856+484439438+485066895+487299765+495413287
3738+508789095+523104381+532793928+535357001+533138936+530601244+530665177
3728+533318713+536482898+538221780+538381371+537407942+535328170+532832332
3718+531620981+533603239+540286598+551271170+561735594+565107682+561616930
3708+556739058+554415206+556151899+561143240+566405823+569630452+571495271
3698+573571258+576483866+580898808+588427062+600009554+611902435+614965544
3688+606086718+594522630+588399010+588497192+592109427+596481957+601237825
3678+607544488+612807479+611329821+606260298+606061968+610086225+608882888
3668+598710300+586375454+577602564+573143615+571786476+573132781+577580895
3658+583970043+589193925+592463081+597521509+607698476+620883710+628728995
3648+625088411+614443170+604759746+600216938+600742428+603408061+605290690
3638+606164009+607514172+610070900+614289219+621599997+632200822+641033525
3628+640915233+634401558+629331293+629033558+633569649+641256753+648374433
3618+651955871+653197278+654202247+655291075+656739531+659436815+663229681
3608+666392418+667692971+668030187+669274859+672203386+675557143+677267491
3598+677017325+676423337+676687159+677957359+680961359+686962604+694727110
3588+699254222+697041686+690910794+685215225+681479279+679919951+680496722
3578+682308294+683937677+684410700+683898123+684219606+687663456+694075906
3568+699749508+700921305+698303427+695220541+693184554+691003113+687056927
3558+682401206+680510599+683155935+687874809+690792056+691487416+692628785
3548+695146033+696585435+694662695+690717473+687951099+687467464+687217520
3538+685243351+682964619+683048255+685272887+687318670+688533657+689959331
3528+691646302+692574092+692148193+690462112+688309020+686999339+686939153
3518+687035480+685974184+683439422+680556165+679108080+679693384+681058575
3508+682082320+683402836+685690845+688244753+690318291+691562814+690775655
3498+687007725+681969445+678800029+678995872+682108665+686809951+690609199
3488+690635767+686875480+682586364+680202474+679032830+677629048+676437141
3478+676791648+678604408+680541174+682129445+684255524+686992585+688543156
3468+687674810+685829917+685233258+686033553+686383904+684624948+680999949
3458+677747787+677003373+678128268+678339919+676625563+674868982+674396775
3448+674300746+673843456+673798484+674415996+674523825+673854736+673717593
3438+674358779+674382081+673252808+672130065+672194703+673737259+676251761
3428+678276913+678370939+677246267+677289829+678882106+679117430+676180295
3418+672704757+672135408+674487313+677517212+679747707+680554755+679296428
3408+676467271+674239521+674371692+676303041+677891534+677845671+677047083
3398+677094282+678059177+678434093+677197510+675204194+674078631+674394994
3388+675342672+675565677+673933251+670332371+666059432+662863374+661513545
3378+661711837+663041926+665340250+668203397+670605839+671632478+671806207
3368+672512402+673679152+673907723+673305498+673464533+674315885+673845534
3358+671501199+669254971+668559017+668817347+669247104+670254746+672094370
3348+673770506+674565086+675150910+676009684+676510313+676399664+676679366
3338+678289826+680846925+683165434+684386581+684248326+682772560+680345405
3328+678196765+677549271+677791349+677013392+674925160+673484050+674129243
3318+675977699+676901704+675817773+673976146+673557965+674942080+676532576
3308+677304894+677745560+678071793+677636544+676506899+675846938+676297624
3298+677187417+677584670+677194764+676141038+674629502+673251027+673020007
3288+674176739+675689462+676827344+678092647+679648709+680108077+678317878
3278+675657922+674743119+675919072+676835284+676029350+674882488+674735253
3268+674588018+673468540+672950471+675188907+679733755+683792520+684889882
3258+682907773+680109413+678808415+679039657+679046113+677768788+676065194
3248+675322561+675702894+676346751+676728197+677261628+678320846+679102662
3238+678450197+676610276+675194472+675062302+675021931+673568948+671357080
3228+670399161+671098083+671771550+671220754+670236341+670144171+671046357
3218+671899416+671722348+670451480+668695121+666955756+665615649+665492013
3208+667345069+670430255+672657708+672775258+671381793+669668699+668064547
3198+666451045+665150937+664551087+664167786+663475246+663110201+663899957
3188+665340993+666068263+665387894+663953761+662983819+662738847+662114953
3178+660541525+659298857+659278745+659089358+657490772+655850183+655920387
3168+656904206+656598159+654368777+651471123+649300145+648402634+648551353
3158+649127678+649534653+649626007+649803446+650405374+650916467+650127972
3148+647495549+644186170+641990629+641308033+641078497+640414677+639366665
3138+638235462+637118063+636183520+635787157+636195468+637210975+638042365
3128+637820473+636342258+634299963+632860189+632629837+632912137+632602899
3118+631693662+630908729+630295447+629376414+628208551+627257755+626634009
3108+626157276+625857537+625934939+626339539+626647590+626581987+626520095
3098+626899092+627252783+626528555+624432902+621979588+620624341+621004006
3088+622403557+623401662+623089603+621666936+619756848+617482977+614932371
3078+613142543+613299389+614994597+616494259+616754259+616133704+615355301
3068+614751333+614237791+613500761+612480801+611640729+611329487+611112678
3058+610298580+609006710+607998104+607489608+607007791+606535362+606650501
3048+607255509+607497400+607046270+606253656+605293251+604182530+603218525
3038+602507507+601726730+600750220+599821429+599059427+598337277+597522251
3028+596542402+595457322+594452538+593508718+592365308+591070320+590087280
3018+589576002+589098415+588349400+587640905+587238086+586792484+585878943
3008+584669558+583800507+583749969+584413826+585201653+585519092+585180874
2998+584442138+583696871+583006520+581945076+580270238+578544751+577441192
2988+576637409+575174333+572903876+570909929+570167891+570241768+569990303
2978+569349080+569238913+569659098+569358950+567791348+566057289+565459888
2968+566166232+567483890+568577617+568772087+567826079+566071946+564202897
2958+562816593+561873590+560695857+558817272+556695682+555246224+554817134
2948+554912125+554779064+554038064+552930423+552146121+552188384+552843076
2938+553491015+553668677+553030052+551332988+548827762+546221795+544149779
2928+542941767+542545219+542377984+541851232+541206596+541130158+541542587
2918+541558506+540701365+539497583+538741927+538678216+538989273+539060330
2908+538146826+535943901+533231738+531312819+530621652+530470483+530146217
2898+529661395+529388557+529442583+529519169+529104662+527888301+526098992
2888+524418329+523434844+523071950+522627054+521587057+520325910+519630958
2878+519656709+519850104+519777080+519428769+518763984+517587624+516059428
2868+514768299+514028190+513505186+512760030+511818103+510941148+510144601
2858+509301227+508444086+507611064+506677301+505651886+504851777+504470368
2848+504133189+503171781+501404551+499471791+498213316+497791202+497639997
2838+497196844+496393358+495533472+494944271+494628391+494242195+493546279
2828+492661197+491819456+491206693+490937232+490745618+489943171+488135792
2818+485824147+484059068+483508012+483774320+483760071+482968904+482021263
2808+481454920+480801452+479504387+477952851+476864579+476254563+475602394
2798+474652674+473653976+473030786+472987818+473230341+473066259+472048563
2788+470453242+468896438+467750467+467103678+466787761+466278782+465121680
2778+463549810+462220611+461445734+461041505+460710968+460277055+459690303
2768+458964962+458122886+457204150+456203633+455024453+453733436+452676444
2758+452058932+451734406+451570213+451545501+451437153+450933851+450035820
2748+448962799+447808962+446539726+445203885+443990568+443027008+442156176
2738+441108794+439920375+438942566+438440453+438338264+438262939+437786429
2728+436789474+435503169+434175826+432951599+431960730+431174016+430349120
2718+429453650+428854134+428759885+428771536+428250647+426953434+425192251
2708+423568100+422578195+422263687+422180348+421867807+421286250+420613525
2698+419833972+418850487+417806742+416956095+416321217+415700700+414923522
2688+414019109+413189018+412565420+412050542+411504681+410950434+410442124
2678+409913851+409286728+408550292+407685471+406689295+405688927+404899059
2668+404444700+404243884+404039284+403577689+402799807+401829865+400836955
2658+400001744+399490057+399269315+399047201+398567165+397912955+397395480
2648+397171992+397039599+396637560+395900827+395181868+394757416+394421128
2638+393828810+393019610+392296755+391773899+391294383+390715498+390107373
2628+389646818+389373386+389123554+388702553+388050718+387261852+386505973
2618+385908795+385481857+385126236+384637963+383853735+382949767+382319454
2608+381969510+381466061+380658642+379918124+379517346+379325102+379180464
2598+379092004+379017681+378750521+378087665+377065442+375983441+375126968
2588+374551089+374206748+374061517+373967899+373658994+373031761+372273210
2578+371635104+371212470+370945978+370727240+370466869+370111063+369641343
2568+369078265+368484537+367949733+367544057+367285357+367159383+367108214
2558+366968586+366567140+365954080+365366252+364910781+364478463+363966961
2548+363428558+363022845+362860285+362812048+362565295+361993646+361318174
2538+360808417+360507898+360293576+360056100+359820924+359708420+359699663
2528+359557585+359146529+358664378+358383785+358328720+358337960+358286865
2518+358128090+357816106+357304011+356639114+356030470+355710286+355665314
2508+355622976+355394962+355090770+354902607+354838822+354766541+354582126
2498+354283536+353969326+353754595+353624317+353436006+353104393+352684505
2488+352269330+351905250+351600649+351362283+351229259+351242765+351364546
2478+351486475+351530334+351480984+351315492+350937237+350243028+349324032
2468+348538320+348227041+348363701+348589229+348565927+348229304+347762997
2458+347391050+347176617+347027341+346869234+346701553+346487639+346147825
2448+345716213+345383969+345294804+345361297+345368124+345225193+345025899
2438+344867421+344728534+344570093+344448053+344418108+344393507+344229018
2428+343909650+343531988+343164049+342855738+342703382+342759412+342932250
2418+343072064+343119670+343121674+343115329+343026498+342736740+342294478
2408+341963532+341951844+342159636+342306018+342252140+342108912+342061937
2398+342178931+342388949+342579338+342672065+342647464+342552882+342442455
2388+342243198+341749025+340831662+339560422+338013153+336087148+333634798
2378+330718591+327636373+324735601+322201879+319957209+317819924+315806608
2368+314122346+312882683+312089735+311770775+311930775+312632777+314289099
2358+317413246+321867297+326944204+332403298+338533412+344910092+350157314
2348+353085506+353564243+352585508+351383878+350190486+348391382+345654172
2338+342239339+338572039+334932271+331545527+328710544+326600123+325051036
2328+323773266+322614197+321505888+320474388+319794761+319811162+320526893
2318+321566964+322512305+323176051+323651114+324169072+324897938+325872147
2308+327027135+328183236+329098372+329685013+330078963+330413211+330678331
2298+330841967+330919481+330944007+331007458+331222411+331550648+331855396
2288+332138401+332467937+332731461+332766303+332646934+332560849+332499142
2278+332312315+332016249+331843077+331944450+332168457+332246156+332116175
2268+331912539+331732836+331606417+331573171+331620035+331664525+331712985
2258+331894728+332268568+332720107+333093278+333339103+333511199+333657766
2248+333746857+333722404+333630457+333632720+333862218+334293831+334760769
2238+335091009+335275461+335515943+336021693+336734530+337363508+337718275
2228+337902950+338151149+338586250+339221944+340102424+341268321+342573809
2218+343747016+344719518+345725266+347007489+348583663+350326219+352134229
2208+353991033+355898263+357787386+359590238+361405484+363439541+365732819
2198+368084538+370304458+372412616+374517508+376624404+378678053+380644542
2188+382418155+383860822+385061710+386283858+387590757+388830271+389959285
2178+391077463+392182729+393089146+393579794+393604915+393294563+392762245
2168+392043843+391215979+390330193+389302366+388057100+386612318+384971394
2158+383095852+380919346+378387108+375622477+372827346+369944088+366812223
2148+363480506+360027380+356758520+354815965+355468320+358589054+362825740
2138+367159569+371398592+375558952+379666028+383842975+388164929+392625251
2128+397178894+401722147+406282691+411138189+416486300+422196600+428002781
2118+433732747+439364977+444966743+450566839+456159477+461762839+467325088
2108+472816242+478575595+485234056+493286687+503129592+515250710+529654270
2098+545053153+559243579+570548706+578593174+583860061+587125470+588956894
2088+589147320+587017418+582204741+574433519+563228503+548756928+532079347
2078+514327113+496515584+479674776+464419715+450908100+439250692+429404596
2068+421064359+414015509+408081128+402857246+398106981+394006806+390674348
2058+388001553+385898442+384211619+382704388+381311107+380041872+378836643
2048+377800134+377158354+376944960+377086963+377523177+378145476+379155306
2038+381307248+385300410+391351414+399680928+410864386+425391137+443046748
2028+462645657+482355288+500481696+515871784+527886965+536701450+543159577
2018+547693368+550069948+550377369+549194923+546722017+542601397+536552916
2008+528703549+519366840+508802824+497259849+485116060+472845666+460867294
1998+449547807+439325460+430534908+422909103+415562184+407901871+400309535
1988+393502540+387716879+382863756+378915418+375777319+373126120+370608576
1978+368109919+365830704+364060430+362808337+361877468+361324000+361325670
1968+361476912+360896283+359334506+357498815+356035888+354910474+353950884
1958+353330515+353200571+353304467+353252111+352959458+352678123+352687140
1948+353095673+354008064+355536706+357160449+357525902+355901120+353353075
1938+351485622+350832451+350949371+351248851+351417051+351427811+351363952
1928+351379203+351927365+353401684+355268469+356511953+357121896+357674585
1918+357636960+356026983+353537490+352011706+352280277+353585950+354521606
1908+354254854+353099087+351952337+351347997+351228072+351362357+351724397
1898+352472039+353479383+354159863+354402534+355108284+356660339+357701041
1888+356906312+355041494+353634484+353056712+352869960+352777270+352724357
1878+352751147+352908030+353274931+354435224+357525606+362785814+367873667
1868+369032922+365495232+360471572+357068390+355941862+356130507+356499189
1858+356469801+356116667+355843532+355918040+356453698+357663453+359852687
1848+363372826+368223165+372664526+373271686+369314591+364499613+361981438
1838+361694648+362033571+362392902+364014642+368161421+373533911+376659024
1828+376333904+374786264+373243448+370854958+367794224+365716938+365324657
1818+365756010+366122280+366683132+368266356+370797370+372862559+373174766
1808+372114249+371201895+371805456+374516803+378628109+382043388+382966057
1798+382114927+382217116+385383082+390947779+394732964+392736902+386953615
1788+382517004+381612517+383082197+385230058+387486007+389384147+390162735
1778+390449190+392538424+398174847+406288332+412351358+412379410+407856899
1768+402426709+398241192+396927503+399191282+402965817+405001211+405217166
1758+405587666+406247181+407019239+409913368+416671754+425190767+430405595
1748+430189269+427287978+425012289+424853328+426779742+429460291+431182513
1738+432754605+437578043+446568891+453641117+452021938+445184702+438990730
1728+435164061+434025734+435421797+438355963+442826267+450952738+464210328
1718+479049694+486701028+483677993+476183728+470290163+468450539+471515874
1708+479204722+489077497+497538216+504488141+513718803+526384483+536990763
1698+540863257+539497880+534108210+527221104+524174174+527220548+534443163
1688+544105363+557613230+574711181+586099276+584205589+577151026+573935264
1678+576985423+585115086+594626786+602198602+608999920+616907691+622648491
1668+622183001+619439261+620843858+626959426+632864123+634712355+635002892
1658+638848299+649696211+668319315+687908501+692453127+684945838+682239945
1648+686467021+688642748+681709334+671089623+664246079+663247788+668201170
1638+678440475+689186346+690556435+680769745+670437676+666271602+667446887
1628+670358864+672848727+675037441+675917884+673498744+669915451+669915822
1618+673978594+676310833+672207171+665747819+662233320+662215583+663583001
1608+664276209+663779067+662912799+662438663+662143673+661443415+660562749
1598+660437258+661458777+662914877+663782036+663662555+662835322+661833989
1588+661088240+660726979+660674660+660856478+661443860+663406452+668406736
1578+676690721+683941536+683906360+679091456+677358251+680667705+684534484
1568+684731961+683024507+682813895+685833256+694559096+711895969+732824225
1558+738084915+725327325+712467099+705871644+703980740+704431574+705525003
1548+707773828+713927875+725655264+741432142+758067274+770185757+769057745
1538+757187424+748245556+747434872+750561097+751521317+750816087+753563167
1528+760964409+769585165+777082213+785011914+793497457+798627758+799064121
1518+797570395+794606025+789749489+785904898+786817178+793966769+807042652
1508+822472592+828373652+816623331+800371575+791546738+791191489+796294777
1498+801939141+803041772+799806827+798134698+802128528+810040492+815417769
1488+813465863+806819202+800858253+797948205+797456184+798190802+800516807
1478+805844956+814408198+824363719+831928745+832262695+824932993+816716021
1468+813847309+816962922+821789700+823597561+823721865+827542708+837439973
1458+848789924+850622794+840482117+828640961+821523429+819497461+820757495
1448+822376191+821904801+819564251+817305853+816493387+818015535+822962535
1438+830822848+836923833+836474113+832317612+829901366+829904928+829852609
1428+829034504+829169346+830846224+833036422+835954856+840894138+845896499
1418+845413161+838568578+830826187+826091729+824328023+823817969+823567357
1408+823995334+825356888+826409798+826086831+825780115+827699442+831965034
1398+836596042+839363085+838807168+834970740+830487190+828829903+830856762
1388+833705512+833449631+830325780+828774319+831538913+837203165+843002481
1378+848077644+853231767+858290306+861373712+861688219+861203768+861960352
1368+863979864+866624829+869859403+873015981+874084550+871968859+868196699
1358+865012440+863172223+861952486+860501581+858860769+857584408+856907676
1348+856632574+856402297+856084598+856218178+857674204+860295199+862267810
1338+861895566+859716499+857552498+856403187+856414690+857688230+859939207
1328+862163765+863581721+864338528+865044425+866294812+868322858+870505709
1318+871831272+872199063+872458877+873251008+874600021+876241872+877773519
1308+878776337+879167430+879399637+880071769+881200078+882181300+882645565
1298+882744712+882489351+881686310+880524681+879363274+878090179+876260202
1288+873676833+870592388+867371247+864024985+860367406+856732982+853946719
1278+852297892+851166541+849917119+848651445+847912746+848015974+848752002
1268+849469996+849467176+848674525+847959054+848315713+849714225+851260715
1258+852413068+853265459+853904567+854374770+854985306+856059811+857672200
1248+859732974+861912263+863642797+864671959+865376595+866281602+867611914
1238+869375397+871483740+873739467+876020871+878446838+880969281+883037550
1228+884265524+885207043+886777057+889053637+891255932+892763089+893763532
1218+895041450+897247159+900236984+903201800+905518305+907332698+909251134
1208+911493428+913474870+914524812+914951972+915855420+917879608+920696298
1198+923647978+926415021+929160023+932353558+936227239+940141811+942882732
1188+943942692+944104176+944462394+945561463+947593888+950351060+952937250
1178+954803887+956675570+959093078+961136634+962035036+962636445+964054400
1168+966235470+968460845+970107594+970799837+970589893+970080803+970277760
1158+972020984+975021124+977827053+979476845+980583855+982242848+984835346
1148+988170996+991689205+994273911+995093278+994926673+995443629+996985369
1138+998478278+999747588+1001712555+1004133624+1005670763+1006278628+1007286195
1128+1009337247+1012041878+1014922538+1017345834+1018691730+1019566978
1120+1021004525+1021885339+1019871467+1015887878+1014488921+1018232659
1111+1024147893+1027405324+1027103804+1025911228+1025772601+1026786996
1103+1028307882+1029216971+1028715451+1027469814+1026772450+1026815196
1094+1026992561+1027670630+1030182608+1034566121+1038671342+1040786439
1085+1041960313+1044154222+1047657663+1051305965+1053633603+1053176980
1077+1049819587+1046063382+1044695371+1045833401+1047283119+1047193842
1068+1046067018+1046134476+1048486232+1051362588+1052461361+1052127633
1060+1052717538+1055420833+1059034182+1061225270+1060362712+1056951367
1051+1053318724+1051757318+1053043326+1056436860+1060827349+1065433793
1043+1069418866+1071735075+1071818118+1069535675+1065217987+1060902303
1034+1059773994+1063268085+1069114526+1073201565+1073741823+1072463830
1025+1071760678+1071677042+1069736416+1064576875+1058718338+1055832335
1017+1056295042+1057300680+1057049994+1056376749+1056161536+1055834116
1008+1055052448+1055045250+1057132443+1060797145+1063936580+1064855984
1000+1063648863+1061274547+1057953368+1053625439+1049409866+1046688612
991+1045258486+1044100567+1043050700+1042124394+1040679945+1038817316
983+1037652941+1036997135+1035210275+1032392324+1030880417+1031559450
974+1032073364+1029297861+1022618992+1014622502+1008769605+1006397589
965+1005686793+1003755740+999787885+995478286+992676587+991474809+990432734
955+988072517+984018577+978900742+973754189+969597242+966809050+964894621
945+963573214+963452621+964777960+966341593+966578030+965006457+962212995
935+959465693+958158832+958562986+959447882+959620646+959305767+959487882
925+960439716+961453442+961789620+961293814+960303316+959426435+959140202
915+959331890+959343244+958793709+957987404+957071117+955559803+953566414
905+952703633+954219918+956707110+957202990+954725075+951509796+950491320
895+952181927+954255169+954380957+952809161+951235956+950037740+948209396
885+945612298+943327925+942056315+941584405+941468784+941529340+941593533
875+941356873+941039546+941470194+942719838+943483472+942592343+940398731
865+938205639+937101968+937456624+938874728+940473907+941558802+942187446
855+942735571+942913381+941940990+940086227+939014393+939591460+940600289
845+940507451+939130979+937243192+936041340+936645346+938682446+940212386
835+940113685+939507750+940216171+942800357+946149959+948590323+949531545
825+949748836+949899781+949600042+948394183+946844428+946213409+947162646
815+948881306+950042193+950366645+950329242+950181265+950199595+950685160
805+951414286+952128644+953099105+954269640+954800919+954400771+953988379
795+954345558+955133534+955470676+954706225+952912167+951300520+951370353
785+952888716+954082850+954504073+955664590+957665549+957772339+954368489
776+949787797+947035967+946533928+947691402+950541041+954154390+955998021
766+954588600+951361299+948767836+948025204+948968578+950666162+951965453
756+952344376+952455396+953409382+955588523+957936940+958667995+957328481
746+955205519+953314392+951620371+950472767+951167311+954433498+958905100
736+961652403+960799641+957478537+954376504+952751870+951914915+951188461
726+950740076+950561227+950173028+949182084+947392924+945246807+944524954
716+946948027+951539925+954850937+954832310+952909495+951020224+949559300
706+949027502+950270170+951981780+951491094+948421789+944399908+939803185
696+933965650+928043736+924911500+925851312+928661174+929877201+928417687
686+925857323+923990167+923357738+924058441+926090421+927817021+926605150
676+921695034+914974458+908395997+901834605+894328131+887070563+884292760
666+886878133+890657789+891457564+888270634+885116505+886812307+892619119
656+897010276+895937404+889845843+881603268+874877275+872890341+875612189
646+878929212+878423536+873809597+868483006+865640862+866102233+869121965
636+873371305+876029702+873897166+868076996+863281462+861792783+862253561
626+863133930+863636934+862441909+859254979+855712131+852147985+846621173
616+839521971+834573264+834086587+836830179+839237148+838701565+836433074
606+835447696+837273739+842121073+848760388+852696407
##END=
