##TITLE=<SNM>
##JCAMP-DX=4.24
##DATA TYPE=INFRARED SPECTRUM
##DATE=2/5/2025
##SAMPLING PROCEDURE=Instrument type and / or accessory
##ORIGIN=Admin
##XUNITS=1/CM
##YUNITS=ABSORBANCE
##RESOLUTION=4
##FIRSTX=4497.3318
##LASTX=599.83466
##DELTAX=-1.4281778
##MAXY=1.800061
##MINY=0.27026749
##XFACTOR=1
##YFACTOR=1.6764374e-09
##NPOINTS=2730
##FIRSTY=0.29234025
##XYDATA=(X++(Y..Y))
4497+174381843+174188889+174071009+174095772+174068040+173472913+172130790
4487+170473637+169106644+168496389+168878953+170027786+171308578+172234769
4477+172823886+173434550+174407335+175594584+176128379+175195095+173182114
4467+171406619+170723833+170975131+171613332+172223089+172511968+172427242
4457+172331352+172614862+173140800+173409324+173214327+172805896+172514084
4447+172527363+172890284+173428808+173794840+173727234+173233099+172648479
4437+172479720+172794163+172949393+172441659+171665295+171286107+171370869
4427+171581706+171724101+171831085+172020323+172264030+172233471+171696458
4417+170936057+170339437+169908270+169568370+169546202+170027181+170658893
4407+170765290+170173914+169573685+169710108+170436874+170959061+170807777
4397+170200829+169653327+169527091+169801447+170169630+170393284+170388556
4387+170034328+169336680+168638375+168145485+167543603+166614852+165771397
4377+165479335+165653036+165936902+166105590+166118869+166170441+166507140
4367+166962165+167048971+166590960+165833474+165045270+164415122+164129852
4357+164218169+164502515+164867320+165403302+166169303+166889812+167016314
4347+166261282+164996525+163872972+163174773+162788440+162655253+162935368
4337+163672783+164521697+164994676+164962339+164735947+164615951+164496489
4327+164028593+163155698+162297061+161884079+161929056+162173030+162406871
4317+162600642+162977322+163746043+164537109+164672625+164224107+163983830
4307+164251928+164558442+164526461+164137905+163415370+162594509+162155323
4297+162101316+161853769+161304597+161215373+162109103+163422214+164185264
4287+164051704+163352901+162574065+162108534+162217846+162822181+163383086
4277+163372953+162995935+163075097+163991244+165137996+165739007+165804853
4267+165873455+166179703+166445347+166223203+165324798+164162704+163554103
4257+163898144+164817420+165775663+166570836+167082179+167155847+166889865
4247+166485417+165902770+165202598+164902768+165347784+166051956+166339733
4237+166324036+166563245+166987906+166892834+166008313+165016844+164783448
4227+165439443+166457489+167305282+167784875+167930043+167792590+167412461
4217+167040154+167225925+168240415+169417371+169638999+168596581+167098125
4207+166131758+166036312+166501310+167078463+167611441+168102695+168327665
4197+168024085+167392817+166923357+166880159+167311504+168165075+169029935
4187+169244577+168673947+167995766+167895342+168299080+168667512+168755829
4177+168768913+168927094+169198640+169467094+169765323+170161737+170420928
4167+170182216+169662180+169609364+170221770+170721842+170386849+169415326
4157+168457492+167868179+167662159+167755240+168078981+168598092+169199138
4147+169625808+169672704+169406562+169074342+168803312+168512584+168188506
4137+168101024+168492815+169147371+169581667+169608724+169451610+169346049
4127+169160722+168497046+167331273+166420299+166584027+167590126+168301942
4117+168062021+167426132+167329175+167959411+168687422+168870296+168469563
4107+167933403+167703971+167945278+168615318+169575552+170551555+171160636
4097+171136957+170500534+169543998+168747349+168470985+168548422+168515659
4087+168371291+168585008+169241732+169806318+169861853+169529207+169110412
4077+168800947+168691351+168638890+168288965+167596757+167110907+167292234
4067+167802048+168015143+167990681+168255917+168831613+169252114+169422953
4057+169654927+169885835+169646999+168886900+168238140+168306048+168983323
4047+169590805+169609844+169140402+168598679+168250317+168226549+168601558
4037+169125843+169266780+168854012+168376553+168419627+169034255+169738178
4027+170019590+169874884+169815135+170223583+170920715+171556161+172131430
4017+172802980+173356331+173314679+172547487+171435613+170438118+169825428
4007+169782656+170315616+171061315+171590702+171822640+171862212+171702982
3997+171426849+171408752+171917855+172637315+172903137+172434957+171661473
3987+171286481+171651197+172495826+173196567+173292493+172920825+172651626
3977+172827353+173281826+173771765+174313560+174906483+175229778+174936668
3967+174249083+173985163+174728515+176074727+177044081+177196449+176864923
3957+176419498+176045235+176194883+177509043+179991164+182494492+183456166
3947+182590311+181427773+181449283+182224919+182149615+180696295+178871877
3937+177842365+178312092+180510186+183594650+185565215+185169957+183584286
3927+182911989+183686150+184630064+184750753+184899620+186381240+188688504
3917+189562342+187626247+184183590+181503059+180480498+180706339+182099750
3907+185572468+191649826+198810206+204119057+205935760+204481107+200234762
3897+194366339+189563817+188288180+190436463+192895669+192920681+192207550
3887+193798500+197033519+198801246+198827272+198936993+198288357+195472328
3878+192821111+193382621+196977557+201573152+205841186+208443711+207880103
3868+205618811+204695375+205085744+204016572+200582839+197380868+197181621
3858+201243830+209940691+221263045+226975367+220656524+209394025+200875843
3848+197144876+197974145+202109987+207615294+213155409+218409026+222277055
3838+222490968+218964243+214489906+210849336+207839873+205415351+204420647
3828+205098420+206933415+210495517+216857986+223717504+225692175+222803811
3818+220035478+217884404+213344611+207103578+203025725+203541441+208448137
3808+214751568+218917365+221705448+225969908+230230048+230363359+227392331
3798+224962600+223017421+220392052+218418235+218907818+221616047+225359813
3788+229750580+234729451+239703558+244606290+250625979+258288795+266099464
3778+272849386+279788547+288795744+300723642+315511976+331264367+344032930
3768+351525085+354940329+356239485+357336870+360053756+364190647+367373508
3758+368586516+370364731+376204000+387754257+403138092+416442708+423934400
3748+429879408+439350269+450624447+456989885+458774962+463305155+474513451
3738+491641724+510652173+525818557+534031897+537282986+539804501+544608960
3728+552381142+561544102+569681604+575969889+580302827+581272465+578528771
3718+574817146+573354440+575557281+580715257+584971753+583066466+575054222
3708+566115005+560692860+560099458+562322920+563537101+561976621+559746154
3698+559547121+562384607+567782753+574130556+579651471+583008442+582803151
3688+579225565+575018170+572505580+572576404+575408664+580736056+588218292
3678+596896967+602496635+600096929+593839186+590600362+589231768+584652795
3668+577430142+572255988+570325458+569585287+568598796+568497858+571178442
3658+575744652+578388296+577909841+578205689+583008904+591602141+597755604
3648+594666962+583935841+572947449+566597478+564919454+564951880+564339350
3638+563508125+564050968+566381094+570405669+577144356+586859333+595082984
3628+595656866+590670618+586616533+586492235+590402004+596172724+599321062
3618+597624409+594821624+595287492+599380367+605051926+610531278+614458327
3608+615454133+613684807+611476881+611201549+613339361+616482863+619305665
3598+622191043+625691582+628177613+627715051+626389869+628717826+635031283
3588+638782196+634211969+625347416+619382462+618179161+619547577+621427975
3578+623369243+625101878+625772361+625504211+626361639+630302412+636383344
3568+640581389+639417695+633943676+628077066+624789284+624899289+626791065
3558+627828470+627354103+626810335+626735671+626164242+625392570+626031268
3548+627647498+627234428+623043494+617528090+614608509+615396038+617678769
3538+618597280+617432164+615731599+615055000+615566983+616430100+616572460
3528+615763883+615363967+616955167+619649760+620209243+616820060+611054567
3518+605728454+602499266+601473878+601839804+602534678+602725818+602082498
3508+601070621+600591135+600582459+599640340+596693880+592291043+587960309
3498+585445123+585769059+587944808+589793527+590523671+590907552+591238705
3488+590962057+590022497+588895318+587647004+586450565+585963079+586007451
3478+585000801+582074073+578973947+577917841+578559383+578937468+578322769
3468+577564537+577444257+577773988+577745758+576852028+575612710+575039254
3458+575425694+576081778+575904291+574098343+571094214+568503653+567449609
3448+567579453+568020612+568160554+567327124+565229631+562683228+560745800
3438+559737195+559599564+560077023+560399892+559987035+559210528+558673053
3428+558474091+558503103+558548861+557846805+555584944+552239635+549446841
3418+548400548+548980972+550131547+550597344+549719258+548102709+547075935
3408+547035687+546983671+546056236+544596090+543475559+543286232+543929303
3398+544247906+543048231+540965991+539727064+539687065+539861281+539802581
3388+539750992+539564722+538877208+537841723+536987245+536597783+536430962
3378+536031580+535423387+535080750+535094794+535217101+535714542+537044986
3368+538451729+538149873+535801721+533511488+533244474+534395404+534873966
3358+533679909+531343063+528818455+527069004+526816497+527847324+529022466
3348+529331078+528639155+527535619+526864566+527056168+527703755+527963836
3338+527343021+526258862+525911532+527138832+529181003+530259971+529678764
3328+528453561+527576222+526899943+526136875+525682171+525887248+526358059
3318+526357988+525470160+523908720+522435596+521635694+521178465+520362920
3308+519412232+519279828+520056263+520666056+520309482+519178249+517758421
3298+516510784+516035066+516542889+517444441+518098108+518517258+518984086
3288+519575000+520332272+521207087+521639783+521013884+519806565+519450595
3278+520588334+522234287+523103378+522921482+522087341+520968375+519819685
3268+518733713+517626764+516627509+516052204+515916706+516086905+516725034
3258+517983303+519444089+520176579+519331630+516983159+514436827+513146311
3248+513351460+514178276+514693067+514354554+512965588+510809003+508586892
3238+507075121+506857493+507899698+509273055+509875133+509351168+507917653
3228+505803129+503315533+500898299+498861106+497549079+497462398+498475021
3218+499514524+499754125+499427522+498990951+498371274+497445865+496501435
3208+495858754+495500509+495203701+494649978+493448347+491529834+489534240
3198+488300753+487928854+487765518+487210763+486264342+485406842+485019157
3188+484874344+484384370+483295589+481780796+480138967+478840202+478305714
3178+478252880+477945726+477283242+476786761+476496886+475853388+474709142
3168+473544595+472524398+471221509+469585618+468282373+467576406+466791579
3158+465438487+463935747+462700838+461493270+460068820+458683801+457628868
3148+456780043+455831880+454663244+453357083+452158511+451450268+451324939
3138+451216783+450583026+449821168+449764067+450480701+451245439+451414714
3128+450824120+449633512+448163055+446684314+445291152+444056634+443195437
3118+442946414+443237462+443544580+443353618+442752892+442179435+441648111
3108+440743360+439350162+437883652+436724723+435846175+435134874+434687103
3098+434499376+434236700+433671599+433018644+432540509+432193392+431817475
3088+431387161+431050959+430966340+430952971+430475476+429301223+427930034
3078+427033140+426739923+426675463+426446244+425974438+425497334+425271066
3068+425237965+425034879+424358208+423234015+421949721+420843732+420109925
3058+419670723+419307393+418966106+418726541+418456897+417905733+417190629
3048+416653509+416181454+415325483+414134697+413211919+412879806+412803044
3038+412471464+411747542+410946752+410464635+410224252+409631952+408350466
3028+406821274+405657224+404913107+404326211+403827455+403395256+402807827
3018+401981544+401266333+400967356+400751293+400013113+398784781+397715946
3008+397144695+396816350+396500237+396184621+395690344+394806143+393779155
2998+393107072+392893532+392777767+392434241+391857336+391156986+390329743
2988+389375856+388447638+387671665+386998123+386380011+385872152+385456273
2978+385031327+384604355+384262856+383967506+383555964+382968997+382344130
2968+381774193+381088030+380098695+378966360+378011512+377298754+376706881
2958+376208835+375813755+375455901+375129405+374907404+374731516+374438726
2948+374026509+373624674+373174769+372416999+371310015+370239082+369630818
2938+369439002+369147421+368367714+367369775+366774239+366717317+366705904
2928+366356725+365779571+365111718+364236192+363149651+362176884+361637347
2918+361539394+361642964+361626467+361237360+360490932+359653663+358884693
2908+358060792+357132539+356403462+356160270+356186509+355945060+355208871
2898+354279303+353530564+352934708+352215693+351380592+350805927+350703957
2888+350725005+350309588+349403023+348572438+348338384+348612615+348868357
2878+348671315+347984689+347096790+346282383+345550034+344856937+344418161
2868+344447351+344718880+344728124+344199538+343302146+342501995+342148869
2858+342071432+341773984+341098487+340363792+339841890+339501777+339256843
2848+339077400+338864323+338489473+337957900+337411323+336994235+336712467
2838+336377900+335771628+334913523+334050335+333358660+332800066+332259675
2828+331689881+331142344+330730483+330501762+330364593+330218856+330067643
2818+329903524+329614858+329110982+328440107+327736202+327128720+326686495
2808+326323521+325777833+324861419+323777261+322973519+322604643+322395192
2798+322114881+321844455+321644924+321336917+320785433+320113136+319497441
2788+318967824+318475574+317991394+317487305+316944141+316387680+315833636
2778+315252252+314642423+314007245+313246915+312307605+311405662+310826055
2768+310573619+310451205+310319548+310111733+309788543+309357767+308798497
2758+308031021+307089328+306212842+305662532+305455819+305290527+304821103
2748+304057751+303320105+302780461+302300477+301706862+300984362+300211126
2738+299457836+298749131+298096229+297541350+297108458+296765643+296491750
2728+296271473+296013864+295624934+295135956+294647474+294216822+293833600
2718+293415605+292882325+292291839+291773865+291312974+290796351+290290306
2708+290023880+290010476+289936665+289594205+289163767+288830551+288422796
2698+287745575+286965726+286351738+285905975+285492851+285111140+284869281
2688+284792502+284751774+284607814+284373031+284108898+283738884+283165072
2678+282502890+282005965+281785883+281677318+281367018+280718186+279991046
2668+279619130+279751712+280117158+280317062+280159236+279693990+279016644
2658+278185810+277359989+276794195+276575020+276527982+276459611+276317749
2648+276086788+275721307+275257145+274860394+274662018+274573968+274358046
2638+273892960+273300198+272792517+272461542+272241442+272053307+271926857
2628+271914876+271944279+271862966+271601660+271214330+270819375+270540896
2618+270403922+270283678+270064201+269799730+269616625+269531081+269446959
2608+269259926+268925430+268514742+268215748+268161421+268231143+268132853
2598+267721578+267154664+266710625+266520267+266470153+266341020+266065563
2588+265796310+265653239+265540336+265343792+265142714+265048228+264999963
2578+264894829+264765553+264674517+264572938+264413494+264281001+264274015
2568+264353034+264424801+264495145+264629078+264817072+264969955+265026202
2558+265010665+264980515+264938276+264821374+264576120+264217465+263812484
2548+263431430+263114996+262861351+262627599+262346809+261971337+261539654
2538+261184341+261001023+260919142+260795199+260610299+260456171+260358041
2528+260250133+260105302+259973680+259906856+259904385+259919780+259891016
2518+259782025+259610990+259434783+259296103+259170312+258981501+258703892
2508+258416897+258230735+258184888+258223944+258252299+258240352+258265649
2498+258392116+258539667+258542422+258304759+257873200+257415811+257117653
2488+257022331+257000554+256913055+256743727+256545103+256326053+256051982
2478+255750588+255544461+255494010+255460055+255261538+254948748+254753964
2468+254774123+254867862+254885053+254845765+254838832+254859614+254811402
2458+254607853+254241786+253805800+253446915+253226656+253039853+252766262
2448+252492991+252439678+252626480+252783026+252688256+252451091+252310509
2438+252295558+252257408+252137484+252017505+251939837+251844391+251702138
2428+251584933+251540242+251481150+251291219+251008740+250816799+250829101
2418+250948582+250990927+250924654+250909827+251084008+251386878+251631136
2408+251679863+251533931+251321013+251214030+251280961+251418646+251526091
2398+251712485+252189020+252993561+254033419+255455167+257855050+262082640
2388+268876685+278665705+291673922+308153826+328387629+352416646+379833104
2378+409778578+441024843+472193885+502166807+530196791+555492787+577144676
2368+594681077+608060962+617054790+621348049+620832724+615591231+606214624
2358+593323896+576444042+554312703+526963514+498451911+475868890+464613804
2348+466507358+480468983+501779087+522120585+535191573+541038308+542580691
2338+541964748+540433920+539140097+538907251+539354347+539034998+536661070
2328+531950296+525512221+518126196+509925051+500475202+489716065+478246018
2318+466736186+455643690+445199458+435159087+424832397+413729626+402031214
2308+390303433+378990536+368280784+358261923+348998877+340435825+332350766
2298+324526426+316946097+309763513+303127151+297097667+291667469+286762408
2288+282268640+278157295+274552120+271596806+269279480+267428005+265834726
2278+264375149+263059727+261961364+261059457+260225298+259387638+258588109
2268+257848366+257133136+256464039+255918262+255471522+254967290+254320698
2258+253683529+253280538+253095816+252885885+252512475+252055371+251586747
2248+251084630+250597802+250261814+250093908+249942269+249690722+249387639
2238+249117799+248881576+248701049+248698596+248916366+249175255+249249564
2228+249087898+248801401+248547987+248454248+248560591+248814254+249111897
2218+249345578+249474925+249577464+249755253+250002463+250232997+250398947
2208+250530036+250682919+250875073+251089341+251360319+251783487+252367840
2198+252945669+253321319+253497597+253689022+254086822+254652563+255178892
2188+255500392+255617952+255682910+255851278+256098220+256263495+256318249
2178+256408983+256600355+256772686+256795388+256658664+256451808+256275494
2168+256146059+256004517+255845073+255728562+255637969+255457940+255154981
2158+254864093+254743369+254825730+255050238+255349410+255679532+256078381
2148+256695231+257665901+259033854+260871925+263296839+266282498+269695218
2138+273552509+277994207+282997149+288357625+293943303+299781131+305927625
2128+312420028+319345233+326766137+334535438+342363795+350094129+357698493
2118+365037871+371833019+377783289+382597348+386062190+388133302+388876744
2108+388391000+386797881+384246252+380981153+377319304+373405019+369161394
2098+364575238+359792609+354945947+350089400+345195130+340133080+334818060
2088+329336539+323805597+318229893+312562352+306818297+301145850+295770672
2078+290821044+286308646+282278809+278807958+275899487+273535976+271743664
2068+270485466+269544147+268595628+267477550+266361873+265499680+264884252
2058+264373069+263949208+263623014+263327949+263084704+263016742+263147688
2048+263376338+263637361+264020032+264726088+265818780+267087519+268366765
2038+269818324+271677479+273949100+276484463+279122347+281724445+284216272
2028+286554077+288691036+290680284+292640253+294548527+296272077+297703886
2018+298625544+298685666+297807616+296364501+294758919+293083065+291262789
2008+289298962+287271600+285232895+283192574+281187130+279287995+277504624
1998+275811935+274410649+273718530+273755827+273756751+272895216+271252196
1988+269544574+268237009+267370034+266843421+266509103+266228935+265991645
1978+265850530+265798372+265786728+265788274+265883293+266311670+267183480
1968+268075575+268304545+267755657+267022633+266635748+266615695+266814088
1958+267223621+267788722+268253897+268427936+268452877+268671359+269275605
1948+270217191+271494979+273196468+274899450+275509349+274499321+272810739
1938+271704394+271464882+271658315+271956261+272334168+272816072+273334010
1928+273921510+274946080+276678163+278612746+280022956+281132483+282489184
1918+283482839+283101377+281884138+281391017+282256943+283828908+285125415
1908+285702551+285801961+285904873+286258212+286826015+287502739+288304063
1898+289399457+290763588+291905967+292565500+293338096+294610409+295453829
1888+294847965+293328266+292067757+291387656+291006318+290749242+290558848
1878+290393201+290278911+290331834+290997536+293091651+296793517+300337521
1868+300844207+297749129+293598034+290789614+289736245+289681527+289883351
1858+289966157+289840170+289617351+289489462+289692496+290482744+292067437
1848+294752395+298702626+302629853+303607313+300703945+296803952+294637377
1838+294335983+294626177+294910096+296117647+299336453+303659613+306366046
1828+306400712+305420371+304387020+302629248+300248316+298569652+298268543
1818+298798445+299467400+300350570+301949485+304123704+305783737+306048759
1808+305361102+304967551+305896302+308488534+312029499+314800889+315490644
1798+314828159+315070533+317933939+322845061+326313281+325013734+320588284
1788+317284290+316917013+318497831+320560587+322640624+324488063+325573786
1778+326301264+328393851+333325986+340411613+345987957+346526996+343020057
1768+338568404+335154191+334236604+336434218+339979663+342015540+342370231
1758+342774341+343470282+344342857+347046446+353000662+360383096+364958159
1748+365054404+363021335+361557776+361809999+363706610+366128075+367636183
1738+368936335+372898654+380163297+385524253+383667107+377829474+372712314
1728+369393102+368003282+368538624+370311257+373355101+379382310+389480777
1718+400536153+405382638+401555354+394437906+388995531+386928116+388494214
1708+393236489+399387996+404629063+409227308+415823528+424511803+430682901
1698+431579866+428981305+423516992+416833521+413075248+413993830+418133530
1688+424361799+433808235+445769572+452492793+448530474+440768994+436296755
1678+436955150+441657426+447330550+451522052+455430933+460419742+463636557
1668+462037714+459055130+459780332+464508634+469260438+470960363+471554085
1658+475105929+484400547+500324061+518155492+524854003+520720312+519331559
1648+523819229+527686049+524867443+519052529+516320141+518472246+525460098
1638+536815020+549329618+555482974+552682714+548626922+549537469+555695803
1628+564441355+573756168+583756932+594023464+602297744+608514706+616202552
1618+627542470+639191427+645472956+647282246+649280756+652917184+656858739
1608+659836416+661977641+664064042+666392283+668610163+670448963+672290536
1598+674834592+678402969+682655127+686916530+690776097+694208158+697259219
1588+700059978+702919259+705906037+708662851+711176117+714507702+720213393
1578+728616592+736789684+740148148+740036223+742467074+750058426+760170652
1568+768376241+774491305+781590726+791773919+806742016+829310781+858097219
1558+877167861+877236268+871655586+868646692+868132363+868364817+868039282
1548+867642424+869252325+873706361+879389155+883950494+884125848+876135007
1538+864028893+855878556+852862836+850604850+845129765+838515233+835309511
1528+836245728+838905691+841989249+846476137+851576551+853637352+851763140
1518+848604349+844844690+839972606+835894664+835850506+841581511+852282447
1508+863055984+863705704+851448910+838608599+832647485+832726985+836143189
1498+839617205+839578948+835776766+832573248+833607951+838162321+841692512
1488+840083820+834316549+828330049+824611562+823150918+822875514+823674420
1478+826565416+831980699+838654180+843623611+843479687+838415681+833136855
1468+831173615+831942798+832253045+830397322+829107907+832108979+839935629
1458+848295951+849478488+842716620+835311004+831073921+829776400+830190324
1448+830495665+829072353+826175100+823319019+821679537+822302094+826001737
1438+831472912+834488916+832585834+829071429+827305160+826609077+824805120
1428+821953590+820124319+820200476+821389556+823316744+826173322+828357071
1418+826987588+822361469+817366012+813411302+810492929+808595322+807891275
1408+808404467+809442938+809621279+808696368+808532320+810591770+813975265
1398+816808520+818247120+818099214+816218104+813576558+811984292+812046228
1388+812350360+811082065+808947524+808922138+812569232+818439398+824176306
1378+829091410+833700321+837579087+839497884+839762195+840279724+841961943
1368+844165104+846588488+849814975+853496912+855622849+854826432+852339760
1358+850414777+850004906+850409941+850513760+850005973+849219653+848357033
1348+847483392+846939268+847386115+849496906+853310465+857589289+860368430
1338+860880271+860379381+860469476+861491948+862788331+863815211+864699804
1328+865838254+867300391+868949118+870987306+873901981+877780463+882040514
1318+886005677+889498892+892612458+895170025+896920436+898186527+899832053
1308+902479004+905892861+909179790+911767009+914210446+917664054+922205126
1298+926002047+926970334+925178537+922514307+920217212+918158117+916245933
1288+914884912+913960712+912725910+910869759+908838682+907083363+905674060
1278+904750642+904715586+905454476+905795656+904768135+903229129+903008977
1268+904671569+907218399+909615829+911519977+912818707+913563286+914298337
1258+915664690+917530014+919017750+919640733+919847304+920061910+920014267
1248+919617694+919577447+920260019+920728768+919924173+918299765+917167430
1238+916864792+916716175+916381110+915981266+915299120+914141897+913007500
1228+912361193+911982824+911598979+911328979+911239169+911217694+911373067
1218+912035729+913349960+915075697+916781595+918083524+918676215+918442338
1208+917805062+917666400+918744266+921112328+924174553+926877324+928547169
1198+929685975+931397419+934260753+938001000+941610976+943820394+944229838
1188+944080439+945304646+948478583+952078248+954237677+955080670+956307651
1178+958513941+960322448+960510602+959900489+960290236+962152075+964414683
1168+966413477+968792419+971963085+975086961+977153878+977835881+977312948
1158+976272841+975815470+976589133+978518383+981378019+984497274+986695528
1148+987799135+989071199+991232121+993535901+995558161+998136563+1001691144
1138+1004957878+1006446183+1006542393+1006677358+1007029488+1006770083
1130+1006032259+1005787788+1006146033+1006531727+1007023088+1007988744
1121+1009089436+1010045990+1011726715+1014952064+1018722176+1021082345
1113+1021684494+1022103039+1023959901+1027264749+1030038273+1030493511
1104+1029404979+1029281676+1031494721+1034590510+1035714240+1034214558
1095+1032821467+1034212709+1037828587+1041284612+1043686024+1045656943
1087+1047420226+1048802579+1049846384+1049620116+1046281065+1040575729
1078+1036478019+1036578282+1039509312+1042623446+1045213012+1048473986
1070+1054013283+1061903717+1069559494+1073741823+1073667941+1070542003
1061+1065530190+1060661591+1059021042+1061037045+1062730569+1060681714
1053+1057050193+1056203431+1058795698+1062039535+1064008748+1065427865
1044+1066905788+1066874856+1064522082+1062292469+1062911114+1065293043
1035+1066017996+1064085972+1061555854+1059612026+1057331997+1055126489
1027+1055790431+1060623903+1066486318+1068572434+1066285862+1063809431
1018+1064532322+1067578547+1069603652+1068067135+1063329447+1058565377
1010+1056545748+1057319126+1059266011+1060720682+1060776147+1059407233
1001+1057054744+1054255763+1051492550+1049527248+1049522270+1051990382
993+1055541835+1057296371+1055660871+1052481886+1050842901+1051297997
984+1051800095+1050624100+1047934697+1045011063+1042758624+1041001883
975+1039458469+1038599263+1038559157+1038337156+1036872032+1034010903
967+1030300379+1026815911+1024227767+1021468821+1017178406+1012096125
958+1007755934+1004332548+1001577726+999700243+998089560+995450929+991700372
948+988270515+986550395+986318154+985776164+983603366+980836740+979553014
938+980017710+980361805+979021832+976788024+975957190+977441726+979176423
928+978370477+975117609+972302629+972117746+973933507+975512618+975445207
918+974093217+972733477+972350414+973039528+974259612+975614303+976909548
908+977478205+976724737+975055389+973032844+970377503+966662856+962221051
898+958133580+955686374+955326564+956242942+957451079+958818357+960748034
888+963660860+967369676+970096126+969629511+966564157+964175971+964083672
878+964248075+962137640+957980910+954190034+952617465+952816498+952929134
868+952073554+950740480+949168977+947152050+945337640+945377319+948159376
858+952468777+955861444+956830727+956054504+955266975+955126322+954706070
848+953105413+951018017+949846856+949795303+950249758+951273084+953067512
838+954653236+954499712+952676201+950872813+950576147+951966536+953888035
828+954730460+953554606+950884972+948754698+949601389+954118072+959797879
818+963189764+964057006+965012707+967576531+970726505+972465041+971378856
808+967622183+963459337+961198579+960609230+960065746+959104712+957847936
798+955711760+953408691+953731738+957635961+961927158+963270473+962524116
788+962470215+963798170+965405085+966400820+966429690+965440141+963968120
778+962773352+962055794+961585197+961160393+960670170+960476825+961349400
768+963622745+966322245+967329500+965756149+963013415+960631416+959324935
758+960565427+965958595+973875198+979453462+979540997+975542910+970693083
748+966875826+964744414+965211314+968839137+973931445+977594610+978880895
738+978641401+977273838+974754670+971938837+970429484+971492061+974707312
728+977125292+976149183+973870860+974420815+978033493+981277827+981734700
718+979760581+976356323+971557836+966355879+964400603+968097047+974021966
708+976027729+973103526+969480680+967999059+968129188+967870850+964963500
698+959245578+953822971+951240729+950073409+947497852+944024760+942804677
688+945093098+948460450+949284529+946428092+941506019+936147410+931402824
678+928575684+927781826+927921342+929630653+934468035+940144785+940168536
668+931346434+922344499+921352320+925776134+931844338+937365146+939078297
658+934787598+927193188+920486216+914906814+908820264+903623214+901939360
648+903233183+905345395+907915122+910340782+909410609+903010470+893712367
638+885747766+880682053+877605322+876391141+878800233+885739233+894885732
628+901547622+902010397+896367566+888204714+882052816+880619335+882757432
618+882316202+872870194+857366861+846920708+848868233+861115854+875875176
608+885994584+888524703+884496182+875874110+864780939+855908848+854775304
##END=
