##TITLE=<SNM>
##JCAMP-DX=4.24
##DATA TYPE=INFRARED SPECTRUM
##DATE=2/5/2025
##SAMPLING PROCEDURE=Instrument type and / or accessory
##ORIGIN=Admin
##XUNITS=1/CM
##YUNITS=ABSORBANCE
##RESOLUTION=4
##FIRSTX=4497.3318
##LASTX=599.83466
##DELTAX=-1.4281778
##MAXY=1.7723373
##MINY=0.19535618
##XFACTOR=1
##YFACTOR=1.6506178e-09
##NPOINTS=2730
##FIRSTY=0.21591523
##XYDATA=(X++(Y..Y))
4497+130808743+130775151+130606524+130171175+129718241+129359790+128799021
4487+128011921+127678611+128373369+129740657+130901601+131316565+131080790
4477+130717563+130765970+131324978+131992806+132345579+132278007+131832511
4467+131052940+130173495+129628931+129602471+129811749+129958295+130032944
4457+130081558+130123239+130321124+130763595+131149247+131129964+130883031
4447+130966220+131577941+132158923+131906935+130693694+129210058+128201149
4437+127929914+128314319+129092482+129788684+129871142+129179951+128275166
4427+128145295+129140311+130374089+130634789+129635196+128015694+126513452
4417+125488229+124983278+124969737+125433278+126216190+126929725+127173326
4407+126823271+126146163+125666372+125662806+125823506+125610680+124788462
4397+123592130+122685178+122735354+123705065+124915300+125897894+126650590
4387+127148870+127145972+126350639+124703024+122736302+121383945+121043243
4377+121275063+121650901+122173547+122700778+122871942+122815826+123068717
4367+123614988+123790051+123277373+122477570+121768432+121127750+120610278
4357+120511958+120890333+121425590+121838324+122079352+122131857+121916656
4347+121396457+120654332+119904994+119423054+119313667+119349732+119194096
4337+118805366+118454408+118353371+118502453+118791545+119040301+119158644
4327+119408782+120101598+120963366+121431891+121517067+121595101+121576829
4317+121145823+120571838+120427378+120692366+120892788+120932663+121084065
4307+121301225+121261215+121026108+121053931+121570510+122338418+122903764
4297+122799071+121897112+120841249+120616904+121461601+122692978+123653075
4287+124143456+123983902+122984634+121486508+120306570+119959738+120271642
4277+120833305+121513835+122341442+123109675+123441991+123274989+122974423
4267+122793699+122522311+121953968+121381309+121223001+121445748+121707405
4257+121827084+121898430+122156177+122834369+123957505+125240177+126249665
4247+126630973+126254955+125361093+124485134+124062478+124177779+124691334
4237+125350684+125747241+125497401+124672845+123879940+123747504+124406711
4227+125491542+126468440+126922719+126789327+126445862+126364324+126579994
4217+126740623+126760709+127019884+127685256+128257824+128155965+127413615
4207+126515664+125953757+126090092+126912960+127838608+128268296+128278362
4197+128304741+128379164+128202837+127769150+127411096+127301446+127310501
4187+127384961+127679830+128178200+128537987+128512836+128280068+128307187
4177+129055009+130574810+132230792+133224572+133510747+133676919+133936274
4167+133890774+133280814+132355798+131431468+130609593+130069136+130094928
4157+130546634+130832819+130735375+130683773+130939417+131189573+131217793
4147+131301525+131675783+132113180+132259184+132059087+131672750+131200722
4137+130739365+130536226+130755480+131153165+131312042+131178442+131097744
4127+131336814+131751064+131922779+131586265+130942920+130524047+130710757
4117+131401099+132162805+132702125+133096921+133495960+133762067+133588520
4107+132889430+132024944+131664345+132233022+133385823+134324037+134712740
4097+134875273+135088316+135182438+134883624+134205252+133503561+133289895
4087+133847938+134937916+135986059+136576394+136670624+136440465+136058172
4077+135681205+135514817+135711150+136137462+136377732+136132460+135559260
4067+135060728+134819744+134729206+134687173+134740455+134960539+135320633
4057+135683444+135868258+135778803+135461617+135029122+134602097+134289832
4047+134116989+134028410+133983578+133904623+133611893+133062959+132563623
4037+132437453+132576081+132657962+132742614+133202039+133975092+134432053
4027+134299211+134194572+134765741+135734712+136314006+136212770+135783507
4017+135489576+135501700+135609201+135457555+134969657+134414485+134043269
4007+133893979+133932879+134171714+134682912+135508841+136402405+136855609
3997+136676953+136283339+136149062+136268146+136368145+136352500+136369986
3987+136580429+136863680+136831704+136324966+135725576+135515639+135766851
3977+136286210+136923660+137482750+137671590+137399831+136910335+136534569
3967+136530624+137073536+138077733+139066114+139551376+139523607+139292247
3957+139021951+138707537+138455413+138594186+139445500+140825003+141880323
3947+141953023+141492199+141420619+141869887+142182162+141945458+141405913
3937+140984015+140966087+141541119+142670087+143824287+144258877+143851542
3927+143302500+143263437+143573202+143637921+143489606+143821606+144841385
3917+145697258+145526681+144647120+143969993+143805031+143900887+144328408
3907+145753852+148593682+152006152+154271292+154654352+153866457+152490755
3897+150651566+149110180+149039963+150521956+151928695+151818612+151240474
3887+151974032+153624535+154325584+153893757+153624535+153492948+152707544
3878+151901991+152218518+153664653+155699860+157994791+159651938+159456364
3868+158093968+157436522+157746007+157755775+156899469+155969641+155833577
3858+157074171+160349647+165437347+168948588+167183471+162359775+158211219
3848+156181592+156338203+158126396+160725179+163607808+166627188+169187369
3838+170079930+169129646+167614955+166359068+165177171+164006161+163341854
3828+163395839+163916318+165139128+167665654+170722896+172161448+171797292
3818+171388864+170997914+169396864+167097130+165858215+166563255+168969442
3808+171900676+174074385+175857287+178358950+180726861+181122632+180359563
3798+180354399+180916567+181125394+181401206+182646983+184930521+187910450
3788+191515958+195681468+200051200+204555481+209822794+216214931+222894455
3778+229064657+235643847+244208736+255242049+268001444+280887966+292054923
3768+300892465+308072425+314106671+319387580+324460348+329148684+332778079
3758+335937026+340657933+348692810+360554101+375241183+390116256+402898762
3748+414467774+426763655+439211488+448937023+455988394+463849543+474359651
3738+486425219+497509375+506046730+512839947+519596150+526960599+534739128
3728+542720741+550002714+554662306+555844853+554806892+552815723+549822595
3718+545793276+542263077+541617277+544381825+547297640+546395961+542665890
3708+539280241+536946130+535563350+536061458+538954343+542775052+545671042
3698+547661417+550028028+553480192+557846097+563023983+568552032+571972852
3688+571183368+568528018+567933639+570549665+574668141+578110880+580350274
3678+581659207+580896770+577159549+573430489+572413509+572426328+570162561
3668+565094740+559398560+554966248+552301329+550923640+550627859+551586088
3658+552665684+552131248+551199741+552723858+556504808+559525669+559724854
3648+558398516+557329536+556528894+555819973+555228880+554794470+554952887
3638+556062021+557536666+558723907+560383185+564007091+569182016+572532132
3628+572150516+571339583+573215776+577737137+583502938+588631027+590989693
3618+590426875+589857484+592113741+597235222+602849214+606501828+607381191
3608+606611965+606152351+607099313+608958643+610762724+612642420+615310986
3598+618503733+621282075+623442134+625722440+628856110+632609075+635857504
3588+637887276+639059495+639641452+639364629+638812355+639556159+641740700
3578+642941952+641044490+637033551+633631147+632553681+633708640+635696379
3568+636643269+636139599+636334885+638613241+640665113+639339279+635326391
3558+632522049+633070928+635586314+637482405+637482694+636278914+635191410
3548+634391201+632980724+630630580+628009319+625699546+624008274+623383851
3538+624022069+625414201+626679224+627163394+626814205+626123917+625646536
3528+625465767+625198910+624450700+623006641+620690513+617608048+615006575
3518+614875421+617714502+621491516+623711951+623660891+621953081+619688447
3508+618244460+618047224+617878949+616557666+614560466+612739124+610990797
3498+609524711+609373697+610660531+612090218+612520655+611649525+609439562
3488+606589360+605047586+606090674+608451434+609732202+609296926+608298254
3478+607241732+605533850+603288860+601605604+600783765+599976262+598795774
3468+597757271+597400933+598165826+600115396+601877336+601267032+597979387
3458+594201506+591825435+590681309+589932666+589748358+590885189+593159248
3448+594991351+594650901+591915169+588404433+586019479+584973430+583850898
3438+581887353+580208648+580131119+581428389+583010499+584216951+584668837
3428+583885853+581827843+579234278+577123511+576066773+575729140+575179177
3418+573950769+572543868+571905543+572773350+574942508+576837624+576751103
3408+574789761+572530688+571065251+570367777+570038340+569835797+569665211
3398+569349244+568489344+566855777+564936503+563577773+563053088+562766551
3388+561924634+560571826+559626778+559563693+559508372+558269312+556185808
3378+554976973+555605729+557193797+558286754+558484856+558221285+557667747
3368+556871294+556707641+558311742+561166458+563049766+562502005+560311975
3358+558181708+557093410+557182566+558091829+559149975+559836075+560236649
3348+560838900+561814570+562596434+562368360+560950301+558943784+556867105
3338+554702930+552583785+551120948+550584274+550462979+550372305+550841634
3328+552352714+553892285+553689091+551609271+549488139+548911816+549831514
3318+551331184+552680019+553422235+553314770+552786762+552943662+554370750
3308+556233113+557219038+557013569+556177972+555160920+554118915+553187842
3298+552575191+552729671+554043047+555847164+556523983+555298645+553083663
3288+551222202+550436474+550916057+552286090+553513739+553811614+553558877
3278+553665114+554427190+555510253+556412907+556620181+556034324+555440740
3268+555796284+556820522+557010897+555489922+553137792+551381269+550563691
3258+550052727+549477595+549199364+549577549+550326228+550789309+550627534
3248+550049838+549344709+548389730+546953290+545393822+544516589+544602785
3238+544946882+544626762+543631701+542846695+542866520+543218055+542945927
3228+541754135+540209978+538778774+537267080+535596030+534492276+534577208
3218+535179495+535123235+534396439+533969541+534380803+535249225+535646043
3208+534814310+533100686+531876214+532067167+533066272+533435249+532474204
3198+530737578+529022509+527449500+525866993+524535165+523804974+523461780
3188+522932220+521996091+520978785+520282611+519805266+518983644+517629211
3178+516334469+515551665+514753117+513233623+511385596+510407471+510915329
3168+512329055+513367846+512911554+510865352+508335233+506489300+505348244
3158+504220296+502976542+502146650+502019939+502255235+502258376+501656053
3148+500492753+499036055+497419135+495750252+494520075+494320059+494989187
3138+495584324+495484551+494979798+494457532+493679820+492277107+490444751
3128+488787604+487706853+486967310+485907755+484321312+482842876+482145907
3118+482190467+482467146+482470576+481842795+480603952+479307152+478575697
3108+478500046+478632066+478513695+478117491+477626388+476917611+475801218
3098+474668612+474094816+473870967+473301577+472379242+471775547+471719973
3088+471692565+471277222+470678040+470200154+469747364+469134460+468444389
3078+467705748+466724409+465607475+464882448+464780255+464931775+464978286
3068+464898409+464573703+463655341+462069584+460286881+458937467+458279859
3058+458034777+457780125+457531613+457605712+457871521+457706640+456822836
3048+455538674+454162611+452777014+451653400+451202055+451416118+451756026
3038+451573776+450534191+448874155+447370766+446693586+446620354+446233574
3028+445005780+443303315+441765404+440708630+440256599+440487598+441125201
3018+441436871+440820031+439376911+437715502+436322431+435320690+434701142
3008+434443060+434379325+434243983+433909599+433390727+432688811+431798037
2998+430740180+429563230+428466049+427770416+427528584+427331240+426680637
2988+425415325+423792807+422343548+421545614+421464871+421770077+422102402
2978+422309315+422357812+422191379+421733750+420972829+419949169+418713142
2968+417454944+416552687+416189776+416043890+415632519+414780708+413563206
2958+412131786+410816316+410063628+409984330+410097067+409772722+408941675
2948+408138361+407751184+407514443+406963397+406108517+405334560+404818902
2938+404365715+403726884+402826180+401738098+400704868+400080987+399975219
2928+400072212+400056107+399894729+399414532+398161425+396150214+394196888
2918+393098009+392917782+393215260+393490494+393352516+392705633+391828906
2908+391038013+390370402+389760026+389310306+389183233+389323992+389418132
2898+389094076+388179144+386837711+385463526+384392705+383717258+383341311
2888+383137106+383041450+383013970+382883863+382347478+381286226+380014811
2878+379017259+378487626+378231422+377901119+377268499+376398488+375616010
2868+375190736+375042575+374840140+374353550+373626429+372831962+372065228
2858+371343090+370761349+370472971+370404253+370201312+369697534+369215531
2848+369082608+369060508+368638810+367746158+366809018+366224064+366028417
2838+365923444+365483943+364538390+363376101+362409386+361773444+361439314
2828+361400025+361477518+361296027+360689154+359831168+358896484+357925183
2818+356993857+356194371+355481946+354756667+354017557+353330013+352741448
2808+352253631+351796689+351267561+350655813+350065443+349571342+349145925
2798+348743040+348339360+347891915+347385573+346888657+346438250+345949603
2788+345339552+344608964+343748523+342741726+341693041+340779698+340062507
2778+339434798+338743426+337967953+337286151+336872685+336642373+336325069
2768+335773193+335066582+334354916+333717638+333143192+332554158+331881022
2758+331151806+330459170+329823734+329195664+328604499+328136831+327749979
2748+327297768+326731808+326105110+325438221+324726411+323983979+323190125
2738+322300832+321363583+320533475+319947835+319598321+319332115+318991593
2728+318535084+318008592+317458124+316891333+316297929+315714745+315229672
2718+314864414+314530248+314120213+313517167+312592738+311434855+310457019
2708+309995057+309885895+309680751+309201673+308701109+308478704+308471302
2698+308293638+307664340+306723553+305877195+305339474+304935830+304417175
2688+303804921+303261747+302797330+302320852+301835870+301417872+301110265
2678+300894703+300681976+300367923+299930156+299407980+298847581+298326163
2668+297885886+297454491+297024596+296773465+296732931+296565324+295977897
2658+295120272+294314177+293671049+293188252+292937681+292948333+293069123
2648+293059698+292746476+292133157+291439311+290932519+290662683+290455083
2638+290132418+289621797+288930227+288173261+287561765+287220521+287051524
2628+286855444+286561215+286258158+286009699+285731360+285297528+284693219
2618+284024849+283469722+283199652+283219549+283299552+283219910+283044539
2608+282963995+282919290+282639271+282072679+281532358+281302839+281300366
2598+281236197+280953542+280485658+279925928+279375892+278946520+278714258
2588+278695823+278858068+279093526+279211463+279037916+278539862+277860966
2578+277271029+277009679+277063123+277165785+277111836+276915864+276598561
2568+276081729+275417422+274858125+274588127+274592460+274807624+275170950
2558+275505929+275566757+275262869+274758965+274327264+274122861+274089802
2548+274061996+273936657+273733752+273518244+273335363+273217336+273168388
2538+273113644+272928596+272572113+272161916+271862830+271702121+271569613
2528+271421488+271365968+271476881+271652631+271738484+271669910+271453590
2518+271142137+270864898+270763482+270843990+270939485+270872066+270669089
2508+270544291+270605300+270686621+270563629+270206478+269743559+269312761
2498+269024039+268943711+269032561+269134916+269062587+268721270+268178891
2488+267590362+267063112+266645963+266391186+266306777+266272581+266123137
2478+265825081+265493695+265230161+265012089+264748302+264383478+263929171
2468+263458399+263120224+263081423+263323363+263537481+263404341+262974951
2458+262594708+262466642+262485184+262477060+262391893+262259819+262130308
2448+262051299+261996194+261853503+261578702+261296860+261158520+261131167
2438+261018953+260689156+260239580+259921013+259878927+259997044+260063469
2428+260046840+260062205+260110594+260078852+259995888+260054279+260323393
2418+260606824+260664872+260499576+260334461+260315250+260343127+260290225
2408+260233929+260297158+260378949+260276684+260021021+259876290+260002100
2398+260266573+260439632+260482189+260565748+260871857+261534034+262777788
2388+264917119+268141209+272457751+277886749+284569775+292662501+302212358
2378+313140354+325282621+338409729+352149958+365889500+378832914+390212924
2368+399521635+406668410+411757284+414564550+414582786+411720379+406438639
2358+399171544+390080182+379299932+367573405+356963886+349998241+347923042
2348+350678852+357775758+368020454+378630551+386364844+390032263+390680880
2338+389824628+388327486+386570963+384805629+383025128+380833112+377774263
2328+373790552+369184115+364212637+358955163+353513924+348072287+342706229
2318+337342555+331948259+326617735+321473107+316565472+311865328+307303741
2308+302838839+298501010+294349548+290405630+286671894+283190606+280020898
2298+277161199+274544631+272133280+269984723+268173546+266658530+265312041
2288+264076665+262980657+262002838+261058224+260130075+259308507+258680744
2278+258227575+257825015+257356084+256849472+256477389+256374257+256478833
2268+256581116+256523141+256343961+256197280+256112131+255922298+255509627
2258+255004080+254605799+254324137+254056595+253807198+253649810+253580658
2248+253558396+253599129+253732395+253937918+254156007+254296116+254267209
2238+254084364+253926272+254016133+254426312+255023147+255609852+256084344
2228+256443210+256717434+256978476+257341838+257874739+258515809+259135050
2218+259677231+260216036+260869961+261713358+262756609+263926102+265072430
2208+266112557+267153948+268372786+269785989+271216109+272479363+273583857
2198+274699852+275909320+277099161+278180978+279257630+280450812+281718363
2188+282943466+284066286+285052229+285856663+286504829+287101158+287672372
2178+288113985+288393625+288649197+288955721+289169044+289117948+288788981
2168+288259023+287594409+286845640+286023494+285059867+283871398+282498621
2158+281103329+279777423+278457819+277060938+275574900+274081857+272810208
2148+271921925+271215207+270553951+270564369+272140267+275277169+279135541
2138+283141388+287326469+291774543+296410031+301212711+306209195+311351151
2128+316601221+322042461+327790423+333821311+339968439+346137667+352422809
2118+358912300+365559342+372399466+379713289+387882641+397408809+409179102
2108+424311499+443560602+467025571+494137268+523458133+552850569+580400178
2098+604889458+625538204+642257730+655671917+666062932+673179808+676997194
2088+677424815+673926140+666086621+653653123+636416856+614794028+589726764
2078+562263459+533854023+506056515+479774422+455550301+433985070+415273978
2068+399073540+385028141+372872659+362310227+353216337+345563257+339120312
2058+333642492+329079929+325368311+322448921+320443235+319395344+319166837
2048+319856945+321923188+325897330+332335797+341816683+354798266+371751427
2038+393261626+419528915+449870624+482806910+516268423+547969440+576356018
2028+601043400+622133561+639772316+654229880+665772387+674668066+681260617
2018+685646455+687628200+687208379+684765503+680549962+674074698+664354905
2008+651092527+635158766+617630436+598993442+579324663+558653528+537191139
1998+515528843+494523722+474836635+456625492+439721947+424018029+409556962
1988+396355972+384404946+373759858+364401856+356099869+348563426+341619737
1978+335213949+329384449+324205697+319654437+315612552+312005907+308793119
1968+305860007+303093544+300503428+298119990+295857342+293638351+291601827
1958+289995722+288833216+287835988+286782139+285725997+284786799+283927893
1948+283113673+282526733+282355461+282360805+281952648+280895314+279638831
1938+278733631+278284019+278079001+277943045+277831608+277730481+277597468
1928+277465971+277537344+277936022+278419993+278713012+279006012+279540340
1918+279914481+279566195+278774201+278354055+278642867+279309630+279851739
1908+280030034+279958246+279907638+280026531+280249586+280465509+280708009
1898+281114722+281681675+282204501+282628402+283203949+283984099+284521260
1888+284493510+284219286+284098768+284100501+284064444+284020083+284063704
1878+284237901+284540453+284941966+285554653+286704845+288446130+289980321
1868+290160458+288948607+287504945+286726331+286589833+286661422+286696882
1858+286740594+286908075+287212324+287572255+287947895+288394347+289037168
1848+290128969+291865488+293729205+294439770+293563043+292290075+291732457
1838+291865777+292146897+292456526+293270385+294935296+296910938+298089639
1828+298211440+298042551+297936820+297564358+296939176+296555538+296612990
1818+296910541+297361778+298148680+299366579+300734246+301723403+302033845
1808+301898251+301847010+302339395+303560453+305254722+306760530+307561967
1798+307910469+308641057+310368295+312788205+314515659+314367498+313074164
1788+312280599+312679548+313927527+315497143+317110777+318488826+319371186
1778+320026917+321261427+323692675+326973026+329575763+330190508+329311145
1768+328119354+327336261+327603371+329257738+331532988+333115062+333846300
1758+334500983+335334919+336381944+338227371+341283259+344721665+346946650
1748+347491341+347368060+347602923+348570106+350207682+352070840+353545376
1738+354899123+357383526+361284147+364292621+364107050+362201317+360738986
1728+360208054+360551537+361646443+363120835+365006779+368187284+373279949
1718+378973637+382152626+381674992+379838267+378903763+379609074+381928596
1708+385573591+389747821+393394693+396662730+400881521+406223168+410599581
1698+412721290+413542226+413406812+412532721+412329382+413800019+416807049
1688+421189384+427419241+434937882+440086229+440349294+438833917+438922496
1678+441434415+445602398+449886332+453436140+457155666+461865090+466403639
1668+469245970+471498977+475302207+480874745+486457429+490587894+493946568
1658+498171786+504447034+513157972+522229040+526375790+525937047+526491813
1648+529188004+531156821+530141899+527934753+526933372+527748061+530486502
1638+535190328+540665981+543930768+543751408+542845539+543707353+546603199
1628+550497970+554502228+558595787+562643667+565974139+568916929+573013485
1618+578884187+584722353+588123710+589722250+591521348+594018642+596583066
1608+598647937+600168984+601458021+602905366+604696953+606717047+608824745
1598+611094724+613635820+616315797+618873649+621260987+623648397+626080729
1588+628330269+630155510+631601231+632974080+634587859+636680029+639534276
1578+643243258+647002145+649585347+651607246+654795804+659317706+663723044
1568+667232191+670997000+676025966+682274817+690208801+701803741+718450034
1558+735648675+747804555+757614408+768093388+778605084+787698577+794686827
1548+799673832+803844235+808462263+813192667+816221978+815233561+809395431
1538+802569245+798758575+797635827+796740865+794311277+791069132+788799586
1528+788334916+789448492+791335483+793167802+794365877+794804330+794999977
1518+795299116+795426587+795305616+795384193+796160930+798193879+802047376
1508+806886834+808887284+805526262+800733676+798161885+798059548+799498913
1498+801282989+802178818+801934567+801686487+802434047+803843801+804488230
1488+803370465+801188451+799438247+799067970+800067148+801751342+803548273
1478+805534206+808041503+810819413+812644004+812288605+810520056+809567750
1468+810514929+812753636+814629143+814841834+814358315+815503234+819242838
1458+823497884+824013398+820506706+817182301+815908178+815971588+816532600
1448+817301538+818074808+818618054+818935321+819234461+819883728+821321648
1438+823414469+824903522+824654576+823436424+822469385+821554778+819633193
1428+816618471+813851251+812550550+812851929+814244711+815974621+816636960
1418+814876789+811478213+808347215+806097675+804316416+802691371+801345821
1408+800569012+800318621+800039343+799431242+799212412+800214045+802043548
1398+803427808+803818669+803788769+803912845+804312444+805118863+806292166
1388+806956960+806149313+804745192+804981066+807831485+812309043+816964410
1378+821250799+825422285+829548994+833030552+835345236+836882388+838376857
1368+840139628+842246821+844636325+846704374+847573770+847018969+845520816
1358+843590420+841632436+840023930+838935704+838276109+837900632+837791217
1348+837991269+838446190+839043602+839783940+840790412+842160589+843756312
1338+845105256+845881704+846530105+847819394+849853860+852121600+854249087
1328+856086317+857482133+858690751+860480532+863269997+866635135+869931013
1318+872879075+875412155+877527075+879476898+881596224+883811315+885761715
1308+887388855+888979956+890643206+892159486+893333222+894232518+895160630
1298+896394671+897802620+898758465+898605212+897252801+895274595+893296101
1288+891356750+889111759+886567124+884192569+882387261+881178281+880245185
1278+879104166+877562247+876001623+875010534+874919752+875703206+876956963
1268+878128676+879105032+880335678+882241952+884798576+887563557+889748099
1258+890557480+889884813+888487625+887304067+886728105+886562646+886386427
1248+885730660+884286673+882361117+880644351+879239580+877774143+876625613
1238+876794104+878324756+880068461+881231508+882114410+883129404+883978651
1228+884157326+883774337+883460609+883624118+884165487+885021594+886444782
1218+888361311+890024200+890807725+891062593+891875513+893889902+896477003
1208+898502947+899928879+901959661+905455303+909767620+913271928+914881012
1198+915144546+915861196+918278866+921718248+924539995+926144024+927388031
1188+929476085+932702920+936149668+938732508+940333864+941539233+942865644
1178+944738696+947410801+950451162+953060290+954879754+955892004+956140878
1168+956132717+956671124+957854321+959068284+960121772+961562293+963827866
1158+966595086+968916559+970094267+970529109+971214776+972408734+973459766
1148+974116183+975427861+978813438+984335095+990382811+995369022+998773665
1138+1000212813+999585285+998133570+997487048+997903185+998690611+999702138
1128+1000817592+1001018150+999720988+998137254+998129598+1000307278+1003720371
1118+1006720577+1007961767+1007465609+1006958184+1008620206+1013114303
1110+1018523585+1021532962+1020716143+1018320138+1017647544+1019460075
1101+1021799530+1022663727+1022013593+1021165719+1021074792+1021832896
1093+1023242867+1025230751+1027700709+1030455869+1033401258+1036270022
1084+1038391514+1039437274+1040044364+1040928855+1041893583+1042387936
1075+1042842856+1044618699+1048091952+1051437735+1052584532+1051898288
1067+1051113101+1050651392+1049459457+1047299037+1046175062+1048463962
1058+1054260349+1061119395+1066511055+1069930503+1072056257+1072880587
1050+1072318275+1071770984+1072632797+1073741823+1072743873+1069726335
1041+1066812506+1064705891+1062734979+1061580454+1062202710+1062543016
1033+1059532699+1054275515+1051190089+1052436624+1056177094+1059538622
1024+1061282976+1061547377+1060562066+1058614409+1056427846+1054694541
1015+1053536044+1052714602+1052307348+1053058808+1055610087+1058526661
1007+1058137534+1052897683+1046555955+1043698603+1044228200+1044650693
998+1043194284+1041197878+1040060180+1039413225+1038771035+1039230650
990+1041677137+1044178151+1043829901+1040718403+1037167007+1034278599
981+1031720748+1029397687+1027779286+1027214373+1027185557+1026383687
973+1024234606+1021749625+1019787164+1017539501+1014164974+1010276378
964+1006514313+1002635323+998873763+996514808+996330934+997145948+996642928
954+993572958+988682728+983842692+980734011+979746316+979532109+978178254
944+975042634+971047656+967754667+966134966+965585220+964749551+963766839
934+964183554+966026057+967037368+965999191+964482116+963956492+963572059
924+961907365+959338247+957235171+955992825+955410868+956140011+958920592
914+962349646+963231754+960135350+955407762+952455150+952025291+952617287
904+953363402+954841333+957653980+961322519+964125705+963925364+960170305
894+954590004+949135295+944640259+941783268+941249482+942285132+942733696
884+941292020+938864239+937461562+938280693+940458445+941811290+941142523
874+939497256+938741608+939310131+940107307+940317687+940312559+940572916
864+940663553+939900321+938391263+936875705+935847856+934921405+933661076
854+932731230+933004153+934029981+934466340+933743769+932669987+932662259
844+934627682+938153078+941786590+944152117+944556844+943314064+942035752
834+942390791+943976692+945015592+945261215+945913732+946851305+946485073
824+944565221+942709213+942066013+942356269+943091263+944340397+946205577
814+948794845+952461217+956443267+958069323+955670502+951589293+949643009
804+950554366+951919343+951792089+950546638+949298803+948512894+948450784
794+949160067+950150939+951050091+952021102+952919676+953171800+953245682
784+954584226+957242826+959207888+958936987+957405323+956594209+956666791
774+955727918+952628914+949010930+947511116+948728979+951262276+953836811
764+956021135+957701718+958427612+957373763+953879782+948558827+944085963
754+943428390+947145173+953194838+958771167+961933292+962857143+963688624
744+965581031+966568076+964448606+960488294+957811639+957858077+959728746
734+961127378+959943964+956320347+952661919+951326986+952777834+955111728
724+955514288+953801856+952717818+953106367+952344508+949085390+945734263
714+944991109+947296115+951479372+955678374+958291475+958757012+957204404
704+954294042+951094434+948340214+945928465+943451501+940767551+938201755
694+936798357+937119090+937383925+934717958+928783341+921710303+915768175
684+913185985+914896901+918115358+918407925+914965222+910365754+906137719
674+902788325+900887179+898808153+893466325+885795081+882123004+884095215
664+886630534+886798881+886316445+887835542+891195697+894152281+895587023
654+896176130+896239974+895177458+892898235+889769259+885960323+881604963
644+877752910+876448454+878272324+881118699+882404377+881519814+879607402
634+877649634+875467765+872718239+870244741+869441499+870622385+872924358
624+874541025+872949996+867236447+858766800+849264320+840354774+835230332
614+838256537+849315380+861910436+870083544+872626157+869815099+861746856
604+849666880+836369330+826023453+822638526
##END=
