##TITLE=<SNM>
##JCAMP-DX=4.24
##DATA TYPE=INFRARED SPECTRUM
##DATE=3/5/2025
##SAMPLING PROCEDURE=Instrument type and / or accessory
##ORIGIN=Admin
##XUNITS=1/CM
##YUNITS=ABSORBANCE
##RESOLUTION=4
##FIRSTX=4497.3318
##LASTX=599.83466
##DELTAX=-1.4281778
##MAXY=1.7390738
##MINY=0.183687
##XFACTOR=1
##YFACTOR=1.6196386e-09
##NPOINTS=2730
##FIRSTY=0.20489448
##XYDATA=(X++(Y..Y))
4497+126506294+127378630+128584366+129520782+129569488+128571918+127157077
4487+126147804+125830173+126203733+127371748+128974615+129821291+129050738
4477+127332739+126139110+126122577+126769156+127270738+127216557+126645531
4467+125859200+125288883+125350276+126178690+127340725+127920242+127304981
4457+125990157+125086347+124940606+124900520+124513095+124146022+124239000
4447+124703063+125278661+125815122+126041881+125693595+124973561+124357905
4437+123903897+123242883+122309007+121616224+121616123+122042263+122161959
4427+121709571+121300645+121638517+122417350+122469782+121263540+119791087
4417+119498058+120644553+122069974+122424011+121398904+119765630+118446022
4407+117753147+117471351+117388760+117534714+117955029+118458672+118753579
4397+118818266+118881536+118948616+118776653+118513948+118722150+119424023
4387+119803176+119256329+118149938+117174384+116524650+116033114+115632635
4377+115410861+115425683+115564773+115576743+115363673+115180918+115345236
4367+115825169+116282286+116394042+116035184+115304524+114478862+113816477
4357+113430580+113412335+113811831+114356636+114525866+114213672+114007668
4347+114415324+115123186+115506664+115532655+115538773+115492008+115166971
4337+114701969+114345522+114069071+113951436+114375469+115344849+116190890
4327+116343744+115845603+114991346+114131955+113802253+114301830+115168719
4317+115679179+115753812+115811461+115965593+115946530+115654007+115331720
4307+115239009+115367997+115464251+115334480+115210148+115589881+116504749
4297+117232088+117106826+116359477+115763242+115722853+116072584+116540143
4287+117004666+117337459+117293970+116750977+115936088+115240334+114920531
4277+115081104+115638514+116174983+116276784+116117978+116208813+116607765
4267+116968518+117256147+117722381+118226898+118274151+117779258+117233257
4257+117057384+117304853+117951055+118890774+119660498+119770175+119352868
4247+118980522+118902522+118955617+119024794+119150682+119364617+119679377
4237+120053673+120349610+120603823+121114504+121847732+122144745+121573112
4227+120705063+120469692+121002298+121568714+121462276+120693480+119870072
4217+119554088+119810325+120311833+120729959+121010026+121272529+121416247
4207+121168823+120751093+120844687+121544821+122125967+122156622+122010494
4197+122093711+122352037+122611080+122818704+122989848+123172943+123310027
4187+123157882+122614236+122006335+121784939+122024598+122411369+122657597
4177+122785021+123022518+123535094+124239736+124808250+124944755+124712125
4167+124431231+124267806+124105927+123779638+123301397+122917496+122910237
4157+123228301+123500335+123577204+123764375+124322125+125002404+125297632
4147+125052435+124633454+124451343+124510381+124555030+124453201+124250408
4137+124043300+123949043+124042914+124291662+124684028+125331499+126230046
4127+127014031+127197218+126688497+125929849+125493028+125612135+126082602
4117+126505779+126647997+126608831+126571267+126421661+125901752+125174634
4107+124839513+125281109+126330762+127557576+128564972+129028271+128842839
4097+128277913+127715996+127271971+126841581+126385660+126004648+125888154
4087+126247085+127047934+127796139+127921429+127431992+126853891+126515080
4077+126317578+126198333+126269478+126457901+126496201+126310181+125995751
4067+125468832+124619819+123791276+123610932+124238669+125134594+125725750
4057+125987517+126153150+126243810+126192684+126066281+125887105+125584562
4047+125323163+125494096+126159424+126800161+126883083+126495631+126140159
4037+126031089+125998695+126065232+126531475+127314412+127774749+127483237
4027+126745925+126216098+126274750+126785109+127283995+127464699+127463926
4017+127536691+127578046+127260949+126547438+125781826+125340579+125383563
4007+125845759+126500857+127105188+127561201+127863026+127913774+127586897
3997+126986255+126449501+126229476+126325849+126658191+127187558+127836382
3987+128496862+129151850+129816912+130403863+130827068+131159935+131489489
3977+131689633+131519446+130911021+130069828+129310932+128795117+128447208
3967+128216952+128302818+128920609+129952174+130976545+131537644+131409557
3957+130851752+130495213+130699717+131239296+131821059+132449817+133027034
3947+133214352+133031598+132922372+133017052+132935804+132491365+132090241
3937+132232828+132962310+133907926+134671376+135035947+134985254+134782507
3927+134843707+135258475+135591351+135463734+135205573+135467175+136297676
3917+136952296+136670454+135550014+134401025+133874483+134040631+134749321
3907+136080899+138097660+140277561+141723038+142098668+141662528+140555419
3897+139053277+138024481+138228369+139316184+139904801+139266107+138593170
3887+139167903+140474741+141178233+141339468+141945354+142700202+142565344
3878+141872966+141797367+142675628+144091950+145643635+146756412+146808053
3868+146182295+145716796+145407979+144821515+144069437+143538542+143441820
3858+144301919+146978213+151292399+154197495+152817321+149365764+146742630
3848+145739033+146135382+147371939+148827436+150267945+151902443+153596586
3838+154404823+153785744+152577000+151751650+151390115+151202475+151215926
3828+151488798+151933871+152890997+154789672+156759935+157134773+156406293
3818+156386605+156778998+156052358+154450622+153552149+154207495+156193858
3808+158393061+159704472+160680440+162516489+164735196+165812257+165997017
3798+166612536+167591466+168177654+168485938+169253537+170905580+173419672
3788+176619886+180345547+184420452+188776076+193670489+199360341+205620151
3778+212167397+219185441+226837625+234940936+243165287+250804093+256997772
3768+262004005+266913082+272202335+278074260+285328660+294581733+305148443
3758+315860609+327003755+339993437+355483320+372346255+388071113+401190262
3748+413066929+425611207+438423250+448820840+456559433+464676821+475408603
3738+488825069+503107798+515554111+524426071+530177141+534702916+539490421
3728+544431865+547991424+548955285+547882198+545582197+541879849+537326437
3718+533745459+532232084+532425327+533500731+534503159+534510151+533856488
3708+533839634+535108944+537353228+539929128+542573773+545425498+548209803
3698+550252821+551720048+554060605+558737963+565485721+571748107+574860974
3688+575676709+576877459+578668463+579702981+579644283+579620252+581119386
3678+584026901+585084384+581574874+577153946+576138196+576976822+575396210
3668+571233148+567819800+566627294+566408253+565335609+563558516+563186124
3658+565459224+569117999+572355327+575220485+578234540+580099772+578658305
3648+574977045+572514235+572583826+574692093+577938474+580908110+582358813
3638+582837523+584016597+586083131+587725017+588914284+591391226+595690379
3628+599404282+600646139+600726218+602029238+606169925+612628904+618368272
3618+621268574+622908730+625077498+627035616+627553409+627234711+627634961
3608+629332968+631734688+634165554+636534080+638904077+640892887+642181665
3598+643212761+644370453+645473017+646670087+648813904+652524569+656973760
3588+660133290+660862248+659846535+658068449+656154050+654915027+654948149
3578+655574652+655249624+653680347+652800799+654597875+658283956+660657487
3568+659539098+656158761+653220479+652082366+653000040+655403453+657442681
3558+657327861+655160271+652219413+649251176+646985031+646960522+650156044
3548+655400509+659870898+661403373+659938244+656710558+653221583+650573811
3538+648720061+647019036+645884455+646576096+648994966+650918859+649766098
3528+644953090+638761583+634795885+635047606+638036305+640668400+642027174
3518+643518579+645405818+645645541+643062171+639702442+638579858+640137800
3508+642084657+642190792+639975801+636348454+632728247+630228636+629234930
3498+629676397+630987992+632253143+633279750+634544975+635705537+635657990
3488+634273308+632738846+632306799+633214096+634242395+633648424+631043709
3478+627616266+624472707+621998563+620720972+621246641+623203140+625318178
3468+626663336+627224480+627483561+627938423+628854626+630002971+630553664
3458+629798724+628094166+626510537+625790485+626182491+627236772+627432775
3448+625488347+622192284+619494756+617962796+616613222+614907303+613511617
3438+612893946+612418217+611642779+611555045+613168520+615598687+616989809
3428+616874511+616215144+615525232+614372029+612531049+610552801+609082409
3418+608112808+607118439+605819283+604503125+603482554+602667665+602195837
3408+602925053+605077555+607224758+607961224+607459366+606201353+604046091
3398+601709141+600831543+601717127+602747598+602368104+600448296+597741236
3388+595125959+593463722+593263965+594001498+594263044+593187640+591499127
3378+590603975+591089419+592450438+593764646+594364873+594166846+593475535
3368+592705102+592423463+593038227+594187676+595241735+596163348+596912878
3358+596816091+595762730+595078633+595809909+597158894+597650337+596776787
3348+595009225+593104138+591752687+591537842+592600992+594109510+594591642
3338+593344339+591100349+589038415+587797147+587611044+588465862+589633969
3328+590122063+590076025+590602687+591778963+592188450+591060346+589493167
3318+588804102+588942805+589175426+589325979+589547670+589424864+588123022
3308+585702018+583686012+583488573+584743126+585858350+585822284+584987523
3298+584279210+584246825+584935817+586295658+588340480+590715777+592545753
3288+593409588+593979197+594948872+595964364+596007164+594623733+592375180
3278+590281118+589262939+589739515+591294144+592869825+593575083+593112602
3268+591404916+588519518+585314134+583253450+582998234+583708129+584172708
3258+584265115+584603355+585077575+584740992+583471203+582675966+583613292
3248+585677361+586947923+586301730+584540462+583260700+582919038+582495382
3238+581144999+579394918+578197591+577639611+577285841+577156154+577496197
3228+577983077+577998681+577519235+577008029+576573333+575981497+575325294
3218+574811108+574161493+573125319+572098050+571507207+571138017+570548867
3208+569634136+568618644+567861054+567664499+568102286+568967446+569654230
3198+569197931+567141885+564271649+561898303+560773070+560869047+561602826
3188+562107297+561794487+560783411+559477520+557886936+555786213+553491069
3178+551893419+551412317+551351779+550714124+549255104+547360836+545529718
3168+544379166+544331140+544838334+544682187+543373095+541546982+539921584
3158+538585075+537323161+536114868+535179197+534735596+534786050+535007115
3148+534873968+534093415+532857704+531492968+530138942+528955194+528110239
3138+527311947+525981363+524259803+523126400+523101927+523519436+523404948
3128+522530551+521340842+520359097+519944531+520125814+520340070+519817530
3118+518514400+517175682+516363222+516013022+515831997+515408158+514222092
3108+512355682+510777941+510186693+510115593+509736946+508964047+508232513
3098+507681783+507145516+506669345+506517834+506671700+506630998+505952531
3088+504825642+503846398+503370559+503233511+502987201+502344247+501383073
3078+500314661+499192924+497975871+496778323+495887293+495490465+495541288
3068+495953866+496600205+496909961+496057756+494022502+491861609+490502688
3058+489880270+489511742+489205777+488875302+488229110+487025564+485479472
3048+484210934+483622594+483393212+482878437+482004335+481378972+481477783
3038+482066529+482479328+482248106+481404365+480297311+479237473+478339266
3028+477592754+476956351+476331577+475481469+474196702+472571819+470879994
3018+469303799+468062016+467509299+467686497+467987383+467658086+466480963
3008+464825719+463332068+462566567+462570431+462728050+462455905+461874778
2998+461422197+461108724+460631155+459934103+459147146+458279411+457390993
2988+456734570+456393865+455993652+455080062+453750839+452611033+452015552
2978+451679521+451167726+450377568+449371165+448251636+447390157+447163057
2968+447293848+447009191+445974820+444628080+443526141+442767558+442172888
2958+441699551+441374817+441015048+440380485+439525593+438734036+438225665
2948+438018695+437859051+437337431+436347184+435305342+434652673+434285912
2938+433735366+432837601+431959230+431471025+431260486+430932771+430248379
2928+429222987+428054843+426968435+425882395+424465512+422812991+421648822
2918+421498011+422010357+422344254+422024857+421267377+420504930+419812258
2908+419005429+418109062+417308709+416566944+415741861+414994834+414671830
2898+414773843+414825364+414396851+413593702+412796551+412057767+411121397
2888+409997305+409101232+408701534+408520656+408104950+407472521+407116801
2878+407299666+407632202+407552822+406951196+406071868+405099175+404133880
2868+403378646+403024581+402965736+402870384+402560077+402082250+401399956
2858+400380342+399215804+398468298+398431828+398691056+398571857+397897733
2848+397051894+396372912+395782142+395023412+394032687+393010901+392247276
2838+391877093+391758888+391588277+391174926+390629496+390196309+389842797
2828+389199512+388080755+386835991+385945586+385518398+385369832+385277387
2818+384980364+384230724+383046167+381809647+381027474+380920346+381175268
2808+381172434+380577395+379626195+378738660+377995202+377163642+376203904
2798+375474872+375275079+375366603+375169864+374363586+373158421+372038376
2788+371308314+370854261+370322447+369513115+368522868+367508185+366485370
2778+365456077+364553454+363893719+363398485+362878889+362186254+361285655
2768+360354621+359721420+359493583+359353260+358878819+357938438+356723704
2758+355577715+354786121+354357424+353989449+353334682+352336965+351305537
2748+350600279+350210702+349747448+348896347+347755730+346716538+346116605
2738+345958544+345862787+345361187+344309445+343002892+341924875+341385259
2728+341294544+341251192+340922557+340338927+339753052+339253365+338635731
2718+337692185+336539608+335532175+334831554+334214766+333433845+332609976
2708+332011331+331561179+330935889+330106133+329397489+329008316+328796231
2698+328537960+328143194+327621610+327014059+326341959+325563025+324646638
2688+323709348+322950839+322419430+321975497+321514488+321065513+320644618
2678+320202599+319723594+319174999+318426279+317467129+316593652+316112771
2668+315965934+315846625+315578639+315221262+314868228+314466948+313907055
2658+313248350+312665456+312118185+311382051+310538641+310051798+310126320
2648+310318018+310030563+309180603+308172581+307398045+306942225+306662941
2638+306375339+305992809+305607317+305391919+305336957+305181527+304729958
2628+304120346+303627449+303303102+302973400+302511876+301944181+301314862
2618+300638032+300018300+299639358+299553354+299601821+299598987+299483284
2608+299284356+299053446+298807302+298484684+298045020+297597352+297280493
2598+297071720+296886095+296739424+296622138+296370124+295861034+295241265
2588+294834704+294848265+295157598+295376031+295204851+294684022+294042853
2578+293456518+293048963+292925587+293032991+293098460+292856548+292363596
2568+292004986+292060998+292333971+292452176+292492878+292888749+293670756
2558+294284269+294313029+293945127+293521159+293040701+292380929+291683086
2548+291212325+290986035+290771723+290399589+289946511+289608455+289442482
2538+289295185+289029793+288741198+288638560+288770474+288962889+289019728
2528+288940238+288909104+289053512+289247068+289220571+288862090+288341905
2518+287931830+287763924+287798425+287955677+288178784+288388845+288482302
2508+288384208+288082549+287639591+287165721+286729387+286320139+285946883
2498+285702266+285649879+285678584+285549578+285118304+284472903+283833464
2488+283371112+283148207+283133800+283209426+283219307+283054438+282690934
2478+282198792+281710200+281275505+280761797+280026380+279192060+278603130
2468+278467205+278642655+278815160+278786971+278544966+278174636+277807856
2458+277566827+277460508+277379233+277245902+277098384+276971807+276789034
2448+276452597+276004892+275626447+275468294+275486418+275455137+275196351
2438+274788686+274480973+274434566+274600742+274773027+274733705+274446177
2428+274091598+273853071+273760792+273769992+273831248+273884057+273902789
2418+273899882+273851911+273754425+273718618+273845729+274058569+274206307
2408+274269789+274346998+274472840+274563297+274569682+274580097+274672247
2398+274771518+274767783+274667776+274538107+274406174+274288981+274199352
2388+274027251+273484488+272270509+270235347+267265527+263139009+257733796
2378+251312446+244383167+237357284+230491947+223996572+217997830+212512721
2368+207615512+203569128+200616513+198678948+197625955+197900823+200366320
2358+205416107+212726279+222001561+233388294+246420702+258809348+267360879
2348+270102237+267552981+262641365+258552880+255976594+253621280+250636850
2338+247198864+243669905+240087602+236453760+233250289+231253382+230721145
2328+231086655+231519179+231619683+231700940+232492258+234440090+237305836
2318+240428547+243205069+245402431+247259218+249248930+251613738+254190429
2308+256660489+258808244+260579173+262063862+263410657+264660094+265711707
2298+266491248+267049357+267483262+267881782+268335504+268871366+269412564
2288+269906013+270394825+270871585+271197091+271266094+271135247+270930025
2278+270748062+270671331+270718933+270751668+270571968+270172399+269762617
2268+269518184+269418250+269351033+269271045+269196210+269098908+268906934
2258+268660624+268534304+268579992+268611218+268483831+268305345+268248211
2248+268348200+268535537+268703828+268765102+268740096+268743555+268851162
2238+269045675+269293605+269621890+270078022+270613756+271107720+271541367
2228+272008006+272527970+273038899+273562231+274197640+274982279+275878241
2218+276853546+277900246+279000841+280144089+281389460+282836611+284479251
2208+286194224+287922758+289738640+291712472+293799008+295848743+297722439
2198+299439988+301172331+303065053+305134532+307285102+309368951+311304768
2188+313121570+314826238+316337075+317579520+318536425+319260047+319902043
2178+320620992+321431428+322186699+322660698+322696064+322336001+321726610
2168+320938807+320002106+318976015+317924605+316924348+315986911+314941021
2158+313610179+312050876+310472141+309102253+308100432+307396021+306795812
2148+306252865+305863545+306098815+308163731+313133530+320589637+329087991
2138+337771675+346480201+354878345+362641852+369962899+377225174+384629649
2128+392238444+400059472+408100792+416258955+424100187+431056202+436760388
2118+440970224+443575087+444866662+445449225+446017104+447494672+451039548
2108+457579084+467442873+480414081+495712266+511584255+525388459+534881586
2098+539200759+538462711+533561858+526171368+517578656+507951499+497109240
2088+484909016+471065730+455596861+438961026+421658169+404437232+388302004
2078+373788016+360971152+350023310+340993105+333580092+327577743+322889234
2068+319154611+315972779+313178980+310682460+308495549+306755441+305429585
2058+304397091+303692422+303226003+302759714+302403404+302526725+303329010
2048+305009021+307925369+312372408+318689518+327480551+339377091+354828369
2038+374002235+396349837+420447410+444586163+467157958+486559329+501418402
2028+510966694+515231291+515149666+512089904+507116847+500892145+493758564
2018+485793570+477214990+468426642+459476848+450076056+440079967+429474266
2008+418236688+406550467+394838854+383523847+372917115+363182094+354281614
1998+346117083+338762106+332412795+327041550+322250954+317675718+313412888
1988+309787234+306906436+304685484+303006153+301640516+300292543+298859173
1978+297474509+296274661+295241523+294281012+293412982+292803223+292514057
1968+292321973+291937143+291332187+290708406+290226108+289915138+289775202
1958+289797650+289871805+289815849+289559491+289203477+288882257+288651679
1948+288534118+288616718+288967066+289363672+289334710+288722338+287931112
1938+287391202+287159280+287107611+287140677+287203221+287281552+287374273
1928+287473857+287671351+288091216+288638210+289119533+289609302+290233837
1918+290699096+290596328+290098445+289790272+289973468+290474093+290929140
1908+291107883+291030233+290872981+290798036+290863689+291065157+291412579
1898+291899845+292376862+292628399+292724082+293022760+293596988+293989123
1888+293853713+293466436+293248333+293269586+293405714+293558107+293636641
1878+293596859+293501433+293468073+293705110+294523660+295955871+297299464
1868+297540071+296606498+295489876+294964024+294967004+295082358+295125434
1858+295187333+295376142+295685897+296035711+296368118+296720122+297259167
1848+298265238+299835527+301378988+301813242+300947365+299846512+299375531
1838+299526103+299916048+300410141+301293719+302812873+304535003+305554875
1828+305676871+305558187+305496729+305224216+304776143+304603675+304896170
1818+305409161+305902094+306462006+307296694+308317376+309118814+309450760
1808+309520094+309737994+310421539+311675393+313245847+314561674+315244925
1798+315575437+316244667+317743506+319877166+321595782+321931298+321381709
1788+321177978+321779972+322851144+324073643+325480443+327015936+328362897
1778+329446913+330748167+332847896+335647878+338016735+338872694+338572175
1768+338067484+337891574+338467770+340072891+342241770+344072078+345420768
1758+346743182+348029863+349188806+350815934+353497380+356749907+359339534
1748+360766169+361551727+362274429+363258420+364663195+366253375+367516024
1738+368619582+370507483+373362851+375478405+375233604+373690787+372391484
1728+371814809+372124013+373277877+374847301+376659429+379259655+383084514
1718+387258948+389744280+389847065+389079576+388867160+389609219+391274510
1708+393816038+396908921+399923896+402910608+406734473+411408778+415189696
1698+416979854+417553106+417425553+417139792+417873792+420112519+423365377
1688+427324229+432432935+438418724+442738559+443704406+443473332+444331793
1678+446947218+451042455+455564881+459446671+462917208+466626806+469959964
1668+471941746+473420970+475999409+479889848+483785476+486538353+488748854
1658+491957550+497310064+505055502+513186212+517089568+517260509+518711286
1648+522695016+526842916+528641170+529079914+530429634+533406447+537843788
1638+543526519+549618185+553962934+555571551+556618840+559206075+563530878
1628+568705605+574176950+580370076+587674415+595465450+603050288+610989778
1618+620046848+628814292+634068326+635194222+634174608+632354788+630150764
1608+627920391+626319907+626129277+627833319+631467217+636820099+643434967
1598+650406365+656646229+661461887+664761630+666968819+668861284+671099680
1588+673752457+676407370+678654892+680407145+682009248+684148943+687412179
1578+691670741+695743677+698516573+701096853+705560470+712582212+721145336
1568+729644279+738054825+747716170+759213012+772279720+787721945+807081363
1558+826899618+840708827+849790553+857592628+864491087+869269354+871126784
1548+870676706+869483096+868583233+868212203+868146182+866425652+860486822
1538+853072263+848602831+846742236+844613728+840833067+837114601+835286538
1528+835279619+836391384+838522983+841518306+843982809+844513555+843987372
1518+843787394+843494751+842721926+842686229+844733111+848904086+854112118
1508+858339913+858837539+855414365+851509611+849088975+848237984+848669957
1498+849428944+849199011+848237027+848153856+849398841+850729499+850639998
1488+848994911+846894814+845335473+844789049+845201149+846064505+846917042
1478+847659101+848431264+849589986+851203425+852090260+851152492+849678530
1468+849563195+850746501+851417460+850584576+849905667+851409438+854938378
1458+857817115+856952287+853463681+850611735+848767848+846850579+844535636
1448+842349571+840742905+839557759+838430759+837578958+837848490+839630993
1438+841829644+842219737+839893459+836642809+834332430+833214998+832549412
1428+831684510+830698017+829971046+829641823+829702618+830123256+830483540
1418+829926811+828174706+825922767+823976352+822669983+821738250+820724892
1408+819628437+818720552+818018753+817498016+817379516+817685996+818090957
1398+818688682+820004619+821471220+821230320+818775385+815943165+814095819
1388+812454264+810068001+808334149+809591646+814169715+820382788+826470369
1378+831752519+836176465+839496006+841466122+842801048+844938020+848451578
1368+852400862+855425773+857080135+857781639+858053158+858181226+858256522
1358+858298696+858306498+858262704+858270433+858669431+859736224+861207095
1348+862364934+862811848+862982017+863601896+864884197+866612455+868652713
1338+870845844+872825749+874516396+876327603+878635848+881622339+885457834
1328+889900180+893957144+896828006+898997216+901776148+905984660+911241343
1318+916316891+920256533+923158234+925686329+928208904+930788226+933495543
1308+936171211+938241132+939265972+939390433+939031695+938587505+938497783
1298+938988196+939653267+939735481+938897223+937455573+935849054+934064343
1288+931786422+929071966+926521201+924542253+922797656+920827835+918971435
1278+918015708+917950717+917830524+917204315+916944940+917987592+919791366
1268+920892826+920750331+920264555+920518631+921649973+923056662+924215532
1258+924988873+925465301+925856424+926177257+925669327+923035023+917967204
1248+911952121+906800469+902962692+899849753+897116895+894723566+892193778
1238+888919355+885160775+881962235+880083313+879444812+879326901+878864752
1228+877889814+877340299+878154341+879984171+881796262+883259330+884619650
1218+885832838+886704806+887362443+888111789+889339404+891472769+894400010
1208+897259463+899325998+900694046+901809564+903010828+904713546+907233030
1198+910168220+912626908+914427517+916400871+919049601+921499604+922529301
1188+922396964+922799643+924949716+928262634+931139972+932813764+934083332
1178+936169003+939403976+943312558+947246017+950549587+952791737+954173033
1168+955394244+957076648+959337051+961928665+964449768+966392283+967410425
1158+967537536+967291557+967584715+968825578+970321547+971687019+974136654
1148+978641194+983300447+984841902+982994555+980910577+981266150+984012550
1138+987569975+990791699+993298670+994762401+995161620+995387359+996655602
1128+999359239+1002494775+1004337631+1004430959+1004647866+1006922327
1120+1010772248+1014386420+1016981199+1018651752+1019246313+1018956393
1111+1018917089+1020047327+1021991682+1023403523+1023033892+1021045965
1103+1019429215+1020329813+1023721559+1027621898+1030834937+1033972312
1094+1037479393+1040326408+1041319010+1040766035+1039729124+1038379330
1085+1036579604+1035615560+1037512220+1042044508+1046226817+1048156084
1077+1049184530+1050808420+1052378948+1053145958+1053472017+1053282859
1068+1052099774+1050529540+1049650875+1049458699+1049492041+1050174409
1060+1052165501+1054719136+1056115889+1056158504+1056350754+1057429765
1051+1059045853+1061409594+1065105097+1069519548+1072870959+1073741823
1043+1072005690+1068665981+1065693548+1065206447+1067202176+1069153449
1034+1069090225+1067540453+1065765605+1064092254+1063129093+1064338822
1025+1067589840+1070081797+1069229481+1065483266+1061926209+1061540901
1017+1064137520+1066230625+1065018319+1061322669+1057669488+1055949032
1008+1056638466+1058243513+1058481985+1056711700+1054131053+1051495498
1000+1048351351+1044900649+1042698318+1042386391+1042207685+1040305504
991+1037595464+1035917256+1034554213+1031678420+1027974527+1025777937
983+1025577223+1025806862+1025183303+1023622711+1021286350+1018528910
974+1016567332+1016388847+1016986866+1015956359+1012017306+1005921261+999321481
964+994155623+991914356+991773628+991015744+988486472+985282412+981760243
954+977136614+972139452+968652171+966585563+964025082+960500632+957637645
944+956514178+956470459+956537142+956556721+956725270+956969262+956961313
934+956523747+955857939+954934377+953345301+951523273+950998783+952358661
924+954072419+954421368+953630363+953083350+953217306+953355752+953016813
914+952199606+950811465+949051190+947998823+948496522+949761821+950331724
904+949795825+948461119+946589337+944598613+942791821+941109270+939830355
894+939491489+939631849+938991287+937428782+936173272+935622358+934749287
884+933386023+933221890+935575474+939100440+940854090+939559130+936765183
874+934815014+934552768+935025517+935038912+934679217+934879857+935852660
864+936678994+936518983+935643850+934882213+934402178+933849718+933716056
854+935251697+938459068+941174408+941019843+937705453+932879123+928931753
844+927817707+929513433+931724964+932291408+931581439+931139531+930960677
834+930095554+929047750+929019414+929477294+929144243+928758199+930346318
824+933974989+937244114+938243340+937982566+939136505+942523025+945911311
814+946823907+945510767+944070810+944117474+945915433+948454201+950368378
804+951245424+951396604+950670222+948910462+946785266+944866304+943118027
794+942006557+942629307+944942557+947237259+948392375+949378573+951110806
784+952308832+951272436+948795053+947337358+947631031+948131380+947765209
774+947236375+947354581+947986605+948930408+949986087+950038492+947933979
764+944237814+940636963+937889607+936030116+936068610+939214303+944293383
754+948153903+949364589+949696388+950985461+952393254+952157358+951016447
744+951645674+954637612+957365905+957510166+955535561+953198243+952090601
734+953334481+955937651+956569159+953805978+950836342+951397560+955363037
724+959587667+961437885+960746243+958829784+956299407+952258414+946437495
714+941084466+939200686+941821962+947199721+951726342+952352772+949367606
704+945678433+942620327+939099188+935083810+932720142+933370272+936060587
694+939457779+942889123+944835465+942981421+936968031+929462647+923239859
684+918467332+914032420+909907815+906545804+903349473+899445823+895665456
674+893782339+892830733+888576441+879125599+871264274+874614434+884947916
664+891338445+890506075+885417794+880537513+879125157+881369662+883282147
654+880004338+871751595+864266452+863577902+870852836+880980894+886745140
644+885285678+878275344+868753917+861541323+861245810+866592656+870337840
634+867574070+861217914+856312903+853070644+848747607+843904790+842833949
624+847617810+855078370+859620963+858352794+852810459+846529378+842269566
614+839910020+837444855+834502452+833288012+835184378+838142973+838538807
604+834522987+828207091+823446341+820253469
##END=
