##TITLE=<SNM>
##JCAMP-DX=4.24
##DATA TYPE=INFRARED SPECTRUM
##DATE=2/5/2025
##SAMPLING PROCEDURE=Instrument type and / or accessory
##ORIGIN=Admin
##XUNITS=1/CM
##YUNITS=ABSORBANCE
##RESOLUTION=4
##FIRSTX=4497.3318
##LASTX=599.83466
##DELTAX=-1.4281778
##MAXY=1.837127
##MINY=0.3776319
##XFACTOR=1
##YFACTOR=1.7109578e-09
##NPOINTS=2730
##FIRSTY=0.39680171
##XYDATA=(X++(Y..Y))
4497+231917880+232579643+232830766+232601329+232286925+231860346+230860472
4487+229480300+228886207+229931247+232099468+234024055+234588362+233573578
4477+231851167+230824991+231174562+232382379+233661071+234681325+235174251
4467+234655250+233034336+231033420+229699477+229689896+230950909+232707791
4457+233845324+233806899+233135346+232817545+233264312+234155147+234959272
4447+235327604+235174338+234541158+233447485+232129009+231331190+231725684
4437+232981105+234039209+234276345+233834977+233059122+232252803+231767976
4427+231716487+231709903+231354739+230896546+230920792+231446761+231764440
4417+231344741+230548646+230106791+230165195+230328668+230398917+230537063
4407+230813686+231085850+231217098+231126487+230883708+230728161+230597400
4397+230023966+229005053+228317737+228557973+229559414+230735041+231325546
4387+230787088+229563665+228756352+228692339+228621062+227986646+227112794
4377+226459444+226069217+225865734+225794910+225625132+225244416+225143667
4367+225985138+227602446+228928360+229020382+227828886+226061779+224708902
4357+224517838+225512975+226975676+228044196+228338708+227977693+227259197
4347+226503843+225945981+225629452+225540774+225651817+225604352+224833217
4337+223306886+221713964+220765422+220713742+221400048+222412272+223442124
4327+224485509+225385645+225597698+224841840+223530000+222346953+221816821
4317+222097920+222867644+223626777+224115209+224197982+223813347+223331516
4307+223292307+223637629+223775287+223452662+223203769+223717144+224801255
4297+225398570+224969360+224263911+224208782+224771033+225392473+225794823
4287+225940947+225802627+225452027+225098554+224864118+224504304+223560900
4277+222115757+221078085+221151399+221905098+222532129+223057035+223972273
4267+225082685+225595521+225177442+224234735+223275045+222579333+222354199
4257+222708648+223549996+224662708+225671378+226102626+225944344+225839397
4247+226306997+227212724+228233919+229176486+229701706+229421599+228387951
4237+227200897+226575538+226697955+226970119+226709155+226084301+225790834
4227+225975575+226190519+226102208+225647602+224921529+224321201+224284935
4217+224680509+225006026+225173436+225559569+226279389+226836084+226616733
4207+225600659+224475859+223989779+224267360+224859624+225309544+225491515
4197+225503238+225408794+225134958+224655793+224275076+224448983+225213638
4187+226055073+226512971+226728664+227078637+227479541+227522025+227174822
4177+226823647+226674196+226608232+226534901+226460210+226290031+225935687
4167+225608707+225671814+226075731+226250178+225854464+225350477+225402280
4157+225966117+226449742+226590082+226653573+226843975+226999626+226919519
4147+226613719+226152564+225660666+225442534+225579827+225572824+225066556
4137+224628184+225023166+226107538+227117968+227664630+227939685+228243029
4127+228562501+228549577+227974575+227088060+226308390+225846121+225799039
4117+226156989+226672524+227101124+227388773+227428505+227072000+226500569
4107+226103723+226013635+226168084+226636903+227429288+228191435+228502164
4097+228316256+227902479+227504380+227207795+226938209+226448505+225566414
4087+224556751+223975078+224092861+224670616+225321214+225915272+226562161
4077+227292710+227905040+228153497+227942211+227306854+226442077+225731159
4067+225433895+225370735+225165824+224712368+224284047+224361786+225281657
4057+226760627+227967154+228422648+228501693+228671628+228701222+228111832
4047+227064737+226210429+225790364+225434313+224894269+224489341+224625746
4037+225263594+226086322+226920268+227792743+228693907+229374082+229486414
4027+229067777+228674102+228719007+228946492+228929718+228747677+228780511
4017+229118988+229486048+229584950+229380074+229096378+229006499+229252483
4007+229772948+230241610+230232640+229655338+228884308+228402147+228438969
3997+228955114+229754328+230512276+230873153+230734954+230440878+230505204
3987+231092347+231943920+232799482+233579674+234143703+234293938+234144713
3977+234074186+234181797+234165302+233839071+233407196+233083125+232783962
3967+232441846+232414063+233230921+234881342+236567174+237313226+236883564
3957+236065678+235899105+236638764+237748514+238850949+239974198+240781493
3947+240697380+240068972+239863138+240071289+239696983+238430274+237095373
3937+236537005+237154125+239057201+241693613+243589687+243624332+242553303
3927+242115820+242864433+243612017+243280509+242702354+243406305+245184351
3917+245954336+244249169+241069735+238555740+237794900+238502735+240295744
3907+243607576+248844222+254846777+259151533+260434807+259194662+256021533
3897+251668597+248088085+247270338+249119643+250925228+250395427+249364948
3887+250928607+254629394+257334836+258350788+259290516+259253571+256507353
3878+253322240+253242690+256496431+260861403+264546044+266157725+264753550
3868+262378503+262070056+263382627+262941016+259432041+255506660+254223247
3858+257021878+264427180+275196622+282340907+278454665+268340020+259641359
3848+255185010+255019708+257900101+262107889+266612087+271236264+275137851
3838+276283797+274161179+270898885+268102484+265697424+263647040+262635582
3828+262756763+263538732+265994253+272006876+279875806+283528292+281364635
3818+278218592+275940322+272282785+267178780+263509834+263478986+267377299
3808+272978863+276761447+278600336+281215498+284330483+284712053+282399851
3798+280112924+278318261+276330688+274930258+275398589+277833121+281456971
3788+285537603+289532101+293061804+296622947+301525698+307859135+313393063
3778+316491744+319079019+324274436+333370412+345720304+359250474+371575388
3768+382344447+392674455+402305284+410470799+417907141+424814308+429182311
3758+430288769+431446995+436612975+446692504+458302668+465529012+467437557
3748+469602224+475706608+484008649+489575707+492065926+496267199+505192788
3738+518827468+534235562+545864851+550585717+551536175+553428173+558316606
3728+566094107+574876028+581133729+582753301+580782189+576870202+572263078
3718+568789759+568237976+571102588+576095462+579995604+579748505+575986562
3708+571107465+566621713+563614234+562428592+561944950+561225461+561252529
3698+563212285+566719292+570575504+574826907+581042317+589094019+594334062
3688+592792316+588115100+585610737+586178998+588038319+589772575+591920694
3678+595813241+599864228+599861371+597191881+597170839+599281404+597477475
3668+589541048+580168953+573208206+568848773+566038820+565025865+567076719
3658+571482555+574794439+575506264+576920507+582548948+591264783+595364123
3648+587950111+573917035+562203510+556123547+554180200+553656530+553115790
3638+552615983+552296145+551848977+552083012+555791341+564570963+573424230
3628+573680526+567009797+562029464+562503282+567358829+573881083+579072075
3618+580897778+580109835+579138614+579609819+581564558+583826629+584618370
3608+582781868+579586409+578014145+579633473+583301218+586822229+589122098
3598+590218906+590351496+590131674+590582256+592966710+598597206+607311613
3588+615161295+616771949+612240143+606163176+602209455+601736438+604021258
3578+607218249+610001099+611843489+612430005+612408893+613686018+617002431
3568+619610817+617918784+612755731+608202743+606778258+607982434+610170407
3558+612908735+616591563+620363645+621944478+620472824+618333135+618483143
3548+620969878+623059889+622316119+618779536+614122247+610021165+607553521
3538+607007068+607887956+609176716+609779118+609343098+608477538+607611420
3528+606459709+604855674+603119467+601445897+600001764+599271650+599130491
3518+598551709+597213759+596158476+596125451+596552413+596743529+596946419
3508+597671099+598678446+599062976+598003723+595649159+593400918+592656312
3498+593123198+593249795+592636176+592542256+593424538+593936363+593219139
3488+592390645+592634574+593307276+592789111+590365291+586951892+584051119
3478+582336790+581596016+581169123+580214590+578496254+576664943+575224676
3468+573968628+572760934+571957209+571676423+571380622+570568885+569396968
3458+568266647+567432440+567127895+567497968+568336495+569153806+569628077
3448+569677998+569179237+568170253+567147508+566552562+566086756+564990017
3438+562969959+560773137+559634072+559993555+560897192+560964915+559919108
3428+558730748+558267765+558264002+557875639+557045055+556501772+556277770
3418+555254050+552744601+549822613+548343538+548980568+550756837+552307084
3408+553035247+552906280+551821282+549875077+547786390+546467844+546082617
3398+545772010+544697706+543102206+541867653+541316984+540851213+539857314
3388+538685571+538401893+539590567+541676119+543557073+544514081+544279035
3378+542928474+541102632+539613350+538656656+538047462+537967232+538620112
3368+539459022+539756321+539615197+539392344+538584056+536463632+533575644
3358+531524755+531292497+532401080+533645423+534290012+534418143+534357317
3348+534130563+533592227+532927781+532677407+533116075+533825844+534140074
3338+533888934+533380940+532744608+531834038+530880758+530465815+530538520
3328+530278078+529338907+528572180+529077874+530869297+532765649+533588151
3318+533200868+532277618+531474137+530988230+530649545+530276685+529878045
3308+529486477+529096720+528989109+529627950+530844737+531653757+531390911
3298+530580951+530165624+530341272+530699467+530998647+531116849+530822999
3288+530287554+530209798+530791715+531256824+531094379+530934616+531437732
3278+532225571+532606583+532691830+533176517+534258972+535202324+535169542
3268+534339933+533615080+533198499+532458213+531277447+530300687+529694489
3258+528942184+528096898+528031718+529173501+530826378+531769102+531058810
3248+528635548+525637963+523691411+523460860+524151712+524617065+524701057
3238+525164180+526254160+526915018+526185079+524836677+524294335+524370907
3228+523535759+521263725+518733025+517231516+516966894+517335609+517650291
3218+517602599+517293491+516861372+516187172+515146834+514083261+513715277
3208+514365545+515452773+516030545+515726452+514886149+513874657+512548621
3198+510522640+507896278+505472877+504066124+503723537+503770636+503604046
3188+503210109+502836587+502527443+502204504+501863101+501348071+500284985
3178+498628416+496886252+495532626+494575723+493732946+492738524+491670944
3168+491044296+491126511+491302682+490741841+489502863+488332548+487654864
3158+487278416+486811739+486051387+485113296+484207882+483266064+482102159
3148+480953548+480338849+480233607+479956130+479080397+477856121+476577394
3138+475277068+474155455+473458506+472811409+471545363+469828595+468603621
3128+468295836+468447726+468723356+469334258+470199818+470734566+470924637
3118+471411484+472029179+471619740+469810097+467602754+465838817+464310727
3108+462572848+460727671+459303152+458760983+459049050+459612330+459990799
3098+460167736+460258382+460241138+459973834+459208499+457927369+456791020
3088+456609938+457285845+457890023+457761022+456991438+456027149+455265264
3078+454832136+454450670+453707527+452569159+451428073+450610030+450031178
3068+449425537+448786557+448325559+448018888+447566878+446868187+446199352
3058+445864359+445865265+445873800+445484671+444634299+443680497+442949861
3048+442431660+441994003+441608113+441241907+440752760+440039542+439254699
3038+438701801+438387258+437883794+436911388+435791727+435053357+434879729
3028+435066839+435154175+434568774+433098304+431304094+430091627+429793805
3018+429889712+429681212+428992241+428080765+427224716+426640325+426421165
3008+426290979+425848062+425166510+424606854+424100672+423312450+422383208
2998+421825224+421771923+421812055+421499811+420836306+420264596+420118071
2988+420065537+419360506+417739853+415843815+414616263+414410481+414761638
2978+414976304+414795987+414397522+413910256+413220693+412287270+411354300
2968+410642685+410012100+409184547+408208275+407444056+407147105+407256772
2958+407514949+407606013+407228658+406272870+405008461+403926703+403271976
2948+402858182+402415508+401895601+401387398+401029239+400974650+401124379
2938+401035580+400431123+399603152+399027575+398764834+398451963+397811101
2928+396990551+396305934+395799334+395274724+394605574+393728622+392530787
2918+391072301+389771627+389114322+389196293+389590056+389673282+389180059
2908+388463079+388124219+388384103+388901607+389215280+389212318+388974033
2898+388344424+387123666+385633304+384516290+383954648+383577363+383148694
2888+382885431+382987399+383209763+383090760+382458817+381545948+380651334
2878+379888647+379293527+378949685+378832981+378718263+378435282+378039778
2868+377589231+377017486+376396237+375982374+375788088+375473161+374933048
2858+374572660+374666685+374847558+374578025+373839619+373039344+372461677
2848+372057776+371621060+371033952+370378946+369808107+369325824+368762683
2838+367992368+367154642+366615505+366598330+366837521+366775232+366167989
2828+365320578+364685082+364408302+364288950+364068014+363700727+363266867
2818+362723619+362035101+361435068+361175811+361085827+360735994+360004138
2808+359168224+358456295+357784289+357038011+356363358+355923401+355562350
2798+355024119+354390364+354007923+353999249+354035653+353653944+352800960
2788+351945050+351497743+351291055+350853467+350076289+349316041+348869221
2778+348640377+348411777+348166524+347938899+347616726+347149806+346700548
2768+346404573+346194262+345894280+345331941+344480943+343599044+343003262
2758+342699866+342450677+342092065+341579578+340877160+340018532+339183419
2748+338565167+338194571+337968932+337787501+337527582+337002344+336170402
2738+335278888+334593400+334127211+333764593+333475968+333325124+333342577
2728+333382187+333183268+332673846+332019642+331321195+330577355+329922559
2718+329505734+329219583+328904448+328630037+328465223+328223210+327733506
2708+327167126+326788692+326507557+325996673+325252659+324690703+324561841
2698+324592846+324389502+323933834+323450645+322984317+322414732+321798082
2688+321354816+321109494+320861907+320550186+320317788+320180739+319956250
2678+319572903+319159074+318767716+318273448+317635234+317055964+316758526
2668+316726023+316756088+316677600+316453006+316149645+315857084+315606606
2658+315367276+315093526+314746794+314345402+314010618+313840474+313748539
2648+313552093+313157355+312554710+311767220+310916500+310225752+309863482
2638+309797152+309800113+309641431+309313057+309013947+308879441+308832864
2628+308724312+308503236+308216632+307893972+307504773+307065583+306708887
2618+306533029+306465759+306390407+306287916+306137107+305839494+305378845
2608+304910914+304586372+304385572+304173589+303846260+303404318+302951437
2598+302646125+302591606+302703711+302721617+302438253+301908452+301360640
2588+300953813+300706854+300604050+300637215+300715145+300628262+300218474
2578+299607816+299138074+298986150+298945704+298724036+298332782+297974936
2568+297659870+297217893+296665378+296284052+296299137+296641933+297021865
2558+297142366+296919270+296546480+296257367+296067471+295894087+295778846
2548+295760174+295699557+295488306+295251658+295145579+295149028+295177768
2538+295187836+295116421+294928649+294725689+294647898+294704821+294764985
2528+294659150+294336141+293981501+293861383+293984636+294082319+293948092
2518+293619509+293242852+292950778+292852329+292979484+293212996+293346736
2508+293269432+293063023+292876366+292744543+292624112+292524373+292438848
2498+292254108+291933973+291674124+291670292+291847542+291980150+291988441
2488+291988981+292084103+292194606+292152767+291929566+291667226+291487467
2478+291389697+291316557+291189541+290940422+290621280+290382855+290265629
2468+290161780+290030845+289970246+290026647+290091514+290015569+289747794
2458+289390192+289142937+289112141+289177112+289148389+289002213+288828411
2448+288661995+288534439+288560985+288787652+289058718+289186797+289138094
2438+288948442+288621200+288243898+288043882+288137767+288325835+288304846
2428+288019687+287654195+287366372+287228295+287349632+287808732+288435467
2418+288873211+288937729+288789376+288696744+288751177+288867010+288950846
2408+289003937+289102718+289289061+289491115+289640392+289830968+290179773
2398+290561587+290715200+290606196+290457023+290419312+290412397+290279825
2388+289940547+289352987+288431077+287034723+284992177+282123733+278341393
2378+273805998+268928957+264116329+259525317+255125734+250912077+246934684
2368+243224961+239869321+237081351+235094196+234148005+234629383+236942142
2358+241129550+246823118+253775957+262263645+272167718+281651378+287938308
2348+289460197+286981980+283156093+280472860+279266420+278442890+277255576
2338+275656905+273918469+272330076+271048910+270143950+269631009+269431811
2328+269447749+269587428+269699534+269768929+270164921+271342534+273268986
2318+275358648+276983638+277996054+278754682+279645185+280705745+281821714
2308+283024322+284325989+285464271+286124432+286335858+286421679+286601090
2298+286816365+286929829+286943572+286984976+287147491+287390932+287605684
2288+287758131+287895476+287984833+287879764+287515683+287023175+286595028
2278+286348399+286317325+286423717+286451796+286225965+285822291+285451050
2268+285172215+284911530+284687685+284594583+284596063+284548476+284421495
2258+284345376+284427992+284619160+284787318+284879967+284929262+284925778
2248+284827991+284692997+284640289+284691848+284774725+284843406+284910676
2238+285017661+285191079+285371274+285441174+285391235+285351556+285401913
2228+285455579+285375088+285150912+284944068+284925395+285059204+285128233
2218+285001862+284763159+284554468+284431284+284382826+284389393+284434211
2208+284499582+284552918+284552883+284504250+284478697+284543181+284693973
2198+284875003+285018863+285062670+284987631+284868541+284819003+284854362
2188+284873557+284809771+284729402+284740602+284868698+285047446+285170282
2178+285150634+285006286+284859692+284784775+284719439+284608500+284525832
2168+284553719+284661278+284801062+284987387+285205014+285393169+285570803
2158+285809715+286056361+286143802+286016385+285823754+285769043+285921176
2148+286158033+286271288+286160140+285932689+285795693+285862528+286085885
2138+286337948+286518230+286604277+286642598+286702361+286824099+287005495
2128+287227076+287470081+287704900+287897183+288046303+288193298+288368319
2118+288544071+288658772+288682705+288662935+288709913+288921966+289297700
2108+289726753+290084459+290316595+290433892+290486583+290560385+290726975
2098+290967751+291193304+291360748+291531954+291784139+292081351+292277901
2088+292268495+292108054+291973217+292040975+292364367+292793628+293089081
2078+293208328+293361472+293669744+293958787+294052080+294072181+294264273
2068+294666814+295093219+295344986+295373970+295274755+295150038+295046851
2058+295042949+295246537+295610479+295908440+296013264+296049843+296185847
2048+296423261+296681717+296966927+297336722+297737034+297994236+298007021
2038+297850881+297664051+297531252+297487497+297543724+297701918+297955636
2028+298236841+298431370+298530342+298663942+298931351+299323651+299783638
2018+300173047+300281424+300059582+299725182+299520828+299507242+299612345
2008+299742322+299849794+299953991+300077628+300215931+300394018+300621608
1998+300836517+301113402+301754542+302817733+303770490+304033405+303643613
1988+303009824+302412404+302030590+302001536+302218327+302385231+302363702
1978+302273056+302285319+302441110+302618953+302727156+302970319+303672772
1968+304685832+305317671+305147980+304556134+304149377+304101163+304284336
1958+304632984+305084785+305454789+305621554+305692029+305870987+306276211
1948+306967377+308083276+309679508+311225678+311676818+310654560+309088637
1938+308090557+307884984+308090174+308346644+308474670+308460665+308438962
1928+308645301+309437808+310980914+312689146+313732549+314302831+315150589
1918+315893802+315373128+313735475+312463158+312514822+313539099+314496072
1908+314663046+314178393+313657441+313440754+313455386+313621593+314069075
1898+314932963+315997965+316745497+317116442+317805622+319076232+319917197
1888+319407950+318200639+317455127+317373608+317540234+317743159+317981967
1878+318235720+318501944+318921660+319997009+322526872+326647602+330654937
1868+331796198+329479119+326045026+323746516+323014451+323175920+323525719
1858+323723001+323782224+323887431+324159299+324737733+325904250+327874457
1848+330766381+334567342+338176003+339103712+336497242+332888303+330820344
1838+330555652+330988537+331466222+332695515+335711842+339879114+342725681
1828+343028414+342191978+341270713+339765685+337704066+336249760+336021787
1818+336467143+336904208+337476720+338797216+340832046+342542543+342975601
1808+342411416+341983931+342719654+345020255+348256055+350836188+351545121
1798+350960835+350982922+353187965+357367499+360631552+359709835+355662333
1788+352444891+352020786+353472792+355188166+356672118+357921025+358631630
1778+359147008+360943866+365302742+371594374+376601462+377242115+374285951
1768+370251478+366747258+365191647+366503504+369455034+371506167+372144904
1758+372591932+372971063+373263137+375095354+379775880+385632572+388984345
1748+388529896+386366658+384775129+384654802+385851035+387402710+388200199
1738+388938151+392109433+398370897+403257414+401801541+396498443+391587366
1728+388187518+386481759+386574147+387934149+390455651+395471378+404048597
1718+413852183+418757860+415948848+409514941+403993137+401426555+402447001
1708+406685898+412278317+416797617+420464943+425963059+433539898+438765971
1698+438957993+436087354+431011010+424963968+421418920+421993243+425422737
1688+430701762+439007566+449951088+456501525+453245763+446187263+441946903
1678+442295169+446110065+450399266+453042837+455547653+459365161+461636708
1668+459080613+454720831+453511674+455978134+458673194+458914022+458317822
1658+460279215+467181749+479793128+493799589+497885482+492886372+490672724
1648+493601367+495669221+491631578+484998368+481246632+482026842+487238527
1638+496124471+505330916+508150728+502952315+496800414+494946981+497432531
1628+501692365+505635705+509129961+511839583+512387360+511676581+513003314
1618+517528640+521705005+521316572+518343687+517081368+518552221+521131344
1608+523029159+523959168+524742966+525945052+527342852+528541767+529714450
1598+531383700+533612955+535836113+537537622+538762387+539846897+540988436
1588+542181534+543349828+544489242+545723830+547295153+549759419+554036044
1578+560281204+565799838+566536920+564099584+563861055+567236726+570851727
1568+571414449+570301023+570276045+572674155+579288517+592644537+610064920
1558+617369683+610024300+600570374+595207635+593715845+594674071+596757185
1548+599828973+605285074+614159174+625674616+638086761+648085887+649629654
1538+643607800+639090137+640111628+644095239+646696936+647787543+650895422
1528+657611648+666250598+674708326+683045100+691463323+698117957+702024091
1518+704464005+705680025+705377361+705370394+708345892+715789027+727964699
1508+742428118+749980014+743714648+733250448+728034791+728862449+733251354
1498+738012806+740364374+740210394+740659791+744477997+751089363+756327316
1488+756380129+752501865+748679827+747423396+748835200+751461423+754304401
1478+758119610+764042180+771497090+777526678+778308908+773848727+769189835
1468+768464180+771664377+775537207+777107589+777881249+781845700+790641905
1458+800677540+803356366+796430003+787750851+782376338+780536317+780928581
1448+781711857+781363905+779933288+778539111+777988547+778831324+781740353
1438+786320653+789705695+789203276+786529954+784707909+784109200+783621621
1428+783228102+783905752+785615134+787435716+789485455+792624548+795645752
1418+795367753+791613300+787567748+785002699+783464019+782152614+781029887
1408+780588781+780990591+781647756+782173377+783349614+785966291+789430761
1398+792578703+794950894+796083166+795341695+793879656+794063595+796180500
1388+797633761+796157160+793389708+792942540+796221957+802088926+808873990
1378+815651459+822052341+827397522+830443809+830798937+830071680+830278612
1368+831992105+834755933+838162365+841475782+843256441+843015369+842239828
1358+842310059+842803560+842529114+841232341+839652065+838480079+838012914
1348+838301365+839018380+839719022+840631891+842453518+845006443+846910843
1338+847203613+846565190+846184700+846350524+846693251+847023297+847391802
1328+847704360+847810195+847841827+848167274+849116164+850916401+853758753
1318+857654575+862138446+866282447+869213214+870710927+871284553+871652222
1308+872293223+873493219+875378319+877739222+880241843+882833716+885436946
1298+887420983+888160434+887873655+887011091+885409077+883060296+880812334
1288+879215615+877612973+875294501+872631630+870355868+868541208+866857606
1278+865327843+864461307+864602258+865138539+864858101+863529905+862375337
1268+862345099+862948545+863426997+863947113+864917254+866138709+867263248
1258+868290939+869311106+870308489+871131549+871546875+871792128+872728756
1248+874709657+876868158+878215514+878718700+878882573+879241673+880497895
1238+883192607+886994927+890834243+893828135+895852096+897218821+898157191
1228+898810315+899456959+900516144+902400407+905248193+908522802+911112445
1218+912581243+913879131+915811539+917684586+918666641+919629187+922145882
1208+926218258+930214481+932833108+934293963+935652607+937637131+940085964
1198+942144900+943343990+944451667+946376342+948441271+949132785+948680253
1188+949311151+952461670+957216433+961935175+965872245+968577477+969529782
1178+969168174+968659066+968515676+968953369+970900618+974767386+978951589
1168+981423135+982140150+982386099+982711198+982889494+983014001+983567631
1158+984914360+987389320+991052780+994866108+997233909+997622760+996672267
1148+995245622+994548743+996018795+999744960+1003931114+1006580329+1007053207
1138+1006273345+1005872790+1006429903+1006785101+1006246869+1006433456
1130+1009464136+1015268469+1021544843+1025547336+1025866234+1023524003
1121+1020975258+1019553072+1018693643+1018163006+1019587143+1024308671
1113+1030645453+1035148205+1036652119+1037016723+1037498797+1036849854
1104+1034293096+1032325433+1034147408+1039492728+1044850868+1047462738
1095+1047776968+1047708339+1047960419+1047252531+1044443415+1041124633
1087+1039825282+1040744073+1042086273+1042538736+1042589807+1043457946
1078+1045648357+1048460888+1049932891+1048545472+1045227805+1042450390
1070+1042487387+1045756282+1050317630+1053793945+1055443965+1055985054
1061+1056240339+1057178500+1060272374+1065754813+1071145560+1073741823
1053+1073376453+1071559563+1069189672+1065662146+1060908498+1056863782
1044+1055870091+1058397307+1062740645+1066360280+1067627998+1066869527
1035+1065360876+1063840589+1063009726+1064141372+1067357942+1070245721
1027+1070121492+1066850367+1062547857+1059965390+1060601584+1063357121
1018+1065760387+1066542477+1066096006+1065009928+1064293609+1065440513
1010+1068032386+1069075476+1066121577+1060031511+1053822024+1049998384
1001+1049322755+1050589150+1051981515+1053433243+1056435148+1060918949
993+1063987671+1062806348+1057636606+1051002874+1045163008+1041248443
984+1039582608+1039728296+1040313906+1039850853+1038477508+1037685175
975+1037819019+1037415119+1035644424+1033796530+1033406355+1034395935
967+1035437352+1035110860+1032622453+1027970877+1022267571+1017445921
958+1014610537+1013000998+1011195187+1009066437+1007675117+1007448537
950+1007321730+1005509997+1001139904+995636215+991649677+989905527+988415967
940+985563931+982336631+980238259+978934658+977437851+975915892+974959268
930+974182891+972657587+970496787+969400606+971042126+974578778+976448829
920+974405081+970550645+968126129+967768423+967995003+967591033+966803995
910+966800302+968239837+970169041+970733748+969441156+967637645+965942337
900+963339803+960076970+958644193+960105118+962127824+962283127+961121871
890+960452373+960700273+960952493+960334206+958983088+958021517+958467570
880+959975803+960840875+959832762+957654474+955624800+953701519+951459549
870+950269447+952001613+955755648+958225592+957768112+955838003+954005925
860+952030736+949162536+945903186+943840208+944155832+946549482+949420400
850+951081916+951001512+949830710+948319968+946719138+945222541+944410351
840+944954156+946621804+948198318+949056841+950031650+951982940+953774816
830+953157086+950253561+947899068+947605531+947747318+946592959+944923779
820+944391260+945167080+946542724+948414377+950741140+952426833+952434497
810+951768205+952860902+956777836+961960676+965953275+967274016+965321541
800+960409663+954744121+951360821+951282995+953101347+955342690+957729165
790+960016493+961510930+962144824+962213175+961338208+959238443+956891753
780+955660822+955763382+956522620+957642072+959471781+962107340+964672946
770+965768848+965008635+963641701+963152032+963745376+964468313+964361642
760+962851737+960318460+958862482+960447426+964809716+969998618+973751399
750+974797276+973878903+972920398+972643304+972048915+971084139+971471248
740+973349589+973782056+970834845+966506696+963366767+961764822+960922742
730+960404925+960186079+960038928+960046104+961304417+964872910+969892226
720+973652602+974417413+973351680+972384744+971240488+968703727+965485066
710+962573877+958992633+954026618+949132994+945782720+944117093+944377395
700+947470294+953256651+959196360+961862784+959927170+955082737+950030117
690+946003656+942501422+938582190+933915425+928867194+923379739+917484133
680+913273176+913963018+920041379+927034141+928170315+920274368+906066793
670+891684406+885945915+894506412+908752935+916959140+917434108+915137792
660+914082439+913129020+909841034+905637044+903467744+903014723+902038799
650+900605187+899421774+896903686+891988393+887715565+887428647+888836341
640+886010781+877544553+869107588+867185909+872702140+880205195+883043853
630+879858009+873993896+868299648+863792437+861578615+862413867+864216612
620+863227590+857974169+851273341+847886488+850616315+858085718+865644999
610+869459930+868804506+864608250+858389287+852131586+847055625+843169557
600+840913583
##END=
