##TITLE=<SNM>
##JCAMP-DX=4.24
##DATA TYPE=INFRARED SPECTRUM
##DATE=3/5/2025
##SAMPLING PROCEDURE=Instrument type and / or accessory
##ORIGIN=Admin
##XUNITS=1/CM
##YUNITS=ABSORBANCE
##RESOLUTION=4
##FIRSTX=4497.3318
##LASTX=599.83466
##DELTAX=-1.4281778
##MAXY=1.7071918
##MINY=0.17812014
##XFACTOR=1
##YFACTOR=1.5899463e-09
##NPOINTS=2730
##FIRSTY=0.19908561
##XYDATA=(X++(Y..Y))
4497+125215304+125474856+125634444+125263046+124367353+123273917+122418684
4487+122143687+122421561+122882510+123220609+123362493+123191040+122515929
4477+121528005+120898461+121110402+121932261+122739060+123083860+122890345
4467+122499949+122649050+123941746+126078064+127827388+128048739+126785602
4457+125160028+124092778+123424518+122607607+121930584+122281673+123726778
4447+125133898+125463487+124777551+123700808+122605873+121716272+121353102
4437+121604209+122099235+122397503+122335581+121885963+121027805+119941137
4427+119066793+118724945+118764196+118779959+118627794+118481298+118447362
4417+118476575+118565169+118709959+118772996+118619425+118222178+117589354
4407+116845208+116226470+115753010+115226241+114713764+114518383+114595825
4397+114561551+114292244+114102458+114310425+114855611+115370515+115598745
4387+115655502+115748783+115776243+115397881+114446687+113227655+112410041
4377+112433303+112947204+113124244+112631823+112029027+112107697+112988788
4367+113981755+114384962+114238682+114002786+113787668+113490356+113417450
4357+113970986+114832434+115257122+115156990+115173616+115660694+116191465
4347+116141428+115388397+114417605+113931501+114247445+114972331+115449953
4337+115513140+115520103+115702194+115810123+115487526+114836567+114424681
4327+114619799+115029529+114890737+114055982+113241723+113162604+113731988
4317+114355037+114745835+115056371+115383701+115641182+115874116+116266911
4307+116782012+117110392+117048564+116735226+116492479+116524925+116743745
4297+116844936+116672883+116491354+116740043+117534218+118481748+119020626
4287+118963287+118691702+118630287+118586678+118033977+117044684+116364990
4277+116501383+117239230+118038316+118524082+118660278+118653464+118661102
4267+118662433+118715432+119046128+119622550+119972983+119822429+119605071
4257+119875044+120484138+120809735+120593595+120144980+119913404+120167098
4247+120835152+121525746+121924529+122029919+121854979+121358594+120811281
4237+120625498+120753212+120827570+120820560+121018443+121483581+121993405
4227+122434354+122927037+123457601+123626328+123145163+122453295+122282488
4217+122674261+123057853+123175473+123267957+123441763+123430432+122986437
4207+122245702+121724960+121920762+122785077+123732842+124275112+124460811
4197+124590465+124706323+124613736+124328215+124214971+124579566+125256298
4187+125725569+125641173+125176757+124759145+124547354+124424804+124421673
4177+124783522+125624566+126756183+127806779+128442752+128643952+128713578
4167+128856671+128907009+128578226+127814211+126924066+126498338+126932482
4157+127854820+128360249+127982065+127099278+126336125+125988391+126101906
4147+126635752+127304883+127653582+127602298+127586403+127893902+128273313
4137+128421046+128426285+128551187+128921629+129508989+130169817+130678320
4127+130842154+130615096+130115993+129609346+129436908+129810931+130585967
4117+131358361+131918476+132373886+132704684+132627598+132104850+131516862
4107+131163074+131013401+131057413+131531361+132585668+133849741+134573709
4097+134318047+133378549+132433924+131946902+131976461+132316529+132712997
4087+133096335+133586947+134214241+134717965+134713325+134145141+133529655
4077+133503535+134081692+134594234+134432630+133684248+132974339+132802548
4067+133121884+133548324+133824315+133938073+133905533+133674342+133315868
4057+133177920+133581164+134363980+135042811+135396665+135542261+135529290
4047+135298192+134957188+134720608+134634075+134580213+134469379+134292386
4037+134054887+133835130+133907558+134546558+135622196+136632491+137174724
4027+137220113+137084668+137229907+137748691+138105497+137863687+137408924
4017+137415147+137944775+138519520+138692435+138342199+137786058+137613958
4007+138089949+138844048+139404332+139769291+140182986+140597065+140683944
3997+140287729+139594661+138905679+138445236+138346689+138625809+139193516
3987+139980173+140922765+141788317+142220128+142068328+141563761+141145296
3977+141165465+141650181+142242218+142521132+142448086+142301778+142249866
3967+142307673+142518827+142802005+142942371+143019644+143326891+143708345
3957+143658092+143133122+142641039+142608077+143098173+143866603+144435781
3947+144517674+144394150+144468958+144681789+144767141+144787497+144932812
3937+145053628+144868641+144476474+144308582+144590308+145041941+145171576
3927+144809653+144327008+144259107+144686185+145197809+145448007+145425635
3917+145303657+145247350+145300086+145451306+145752732+146199753+146625735
3907+146957920+147336525+147705196+147737521+147574605+147848918+148557946
3897+148903225+148611574+148412369+148897039+149504671+149292439+148574629
3887+148404234+148892690+149173535+148991276+149053591+149588523+149944748
3878+149686883+149133338+148904621+149471409+150688182+151640070+151693650
3868+151500463+151800521+152160494+151841870+151139065+150829213+151035062
3858+151551016+152540262+154259661+155982893+156312098+155505571+154763965
3848+154642109+155031089+155456180+155541391+155624044+156504339+158172660
3838+159397295+159413116+158999543+158962504+159228616+159506293+159663370
3828+159620895+159648150+160451584+162257946+164015499+164312277+163468936
3818+162870845+162890414+163099825+163350192+163831112+164681819+165906717
3808+167168954+167943353+168421256+169280960+170423084+171107417+171506744
3798+172326561+173327409+173869830+174132680+174746141+175814188+177018992
3788+178311538+179953982+182006701+184280432+186753884+189539071+192536067
3778+195610496+198909781+202550323+206398776+210376171+214588469+219157488
3768+224138524+229420836+234706091+239906678+245484493+252170673+260291312
3758+269287943+278269580+286997475+296044323+306240229+317562945+328713476
3748+338963722+349008456+359402246+369171177+377386287+384880830+392971328
3738+402691862+414699268+428300495+441322638+452041152+460157255+466042569
3728+470162926+472958216+474944542+476704138+478422234+480191615+483061019
3718+488247961+495423928+503431989+511938646+520733440+528583674+534911914
3708+540638690+546683330+553405536+560519197+567074055+572596368+577474930
3698+581673938+585202089+589216767+595031377+602219753+607807221+608444712
3688+605411858+603721841+605218793+607619966+608297758+606796382+604656541
3678+603804728+604872249+606250100+605771935+603391905+601016823+601044902
3668+604608031+610521199+616471180+620325857+621833568+623132880+626401462
3658+631782144+637442827+641242733+642522289+641899905+640433957+639646849
3648+640842131+644077760+648333376+652261267+654862892+655826420+655649699
3638+655730825+657651059+661521293+665602437+668219807+669416663+670458468
3628+672205205+673997829+674580924+674287839+675096915+677826750+680596848
3618+682376800+685243018+690359444+695337162+697025268+695722469+694667168
3608+695891991+698327992+700161103+701186787+701768008+701857906+702262856
3598+704133156+706348049+706690994+705998057+707302055+711249141+715511354
3588+718135247+719941216+721925181+722398585+719376490+714016914+710070804
3578+710101619+713775114+719208692+723945584+725911029+724640395+720853835
3568+715118550+708676757+704919289+706743852+713250500+720098218+723193640
3558+722587077+721285628+720604837+719541364+718032079+717584017+718572063
3548+719686670+719856942+719252028+719063012+720600788+723280914+724248416
3538+721846980+718090411+716228284+717525535+721180210+725708892+729501449
3528+730803274+728271678+722530245+716930443+714983067+716970855+720386804
3518+723241026+725458693+726875607+725785443+721262010+715806614+713269394
3508+714745990+718469494+722612044+725857346+727115309+727100388+727758086
3498+729012375+728507030+725580531+723349817+724890218+728763826+730425990
3488+728034751+724554847+723601815+725736333+728883415+730632701+730088294
3478+728316589+727022787+726704060+726232380+724468323+722149362+721099685
3468+721668760+722583028+723351617+724688306+726411950+727118233+726245501
3458+725088907+725438000+727730120+730326945+730555625+727251617+722114273
3448+718073316+716606018+716871136+717565122+718861623+721540324+725337906
3438+729381636+732753049+734002539+732286917+728789319+725351926+722759074
3428+721095561+720442512+720763263+722082407+724801521+729222310+734795121
3418+739770515+741663457+739298685+734772627+731678480+731343933+732213440
3408+732407705+731629520+730387827+728680827+726687640+725848274+727505639
3398+730514613+732161706+731908509+731938874+733562950+735322808+735295292
3388+733157624+729503399+725372395+722462390+721951123+723039938+723554429
3378+722242708+719748376+717562648+717343866+720133607+724918260+729081204
3368+731060970+731579735+731904535+732358820+732760097+732807407+731981236
3358+730103364+728114526+727643296+729393483+732132015+733843513+733782707
3348+732712261+731787871+731891189+733105366+734134724+733189190+730028537
3338+726500273+724827313+725214494+725669679+724696478+723057932+722570732
3328+724261987+727952201+732386037+735303389+735114522+732997924+731786371
3318+732969507+735444496+736396628+733831817+729365816+726997145+728285324
3308+731040276+733203060+734907961+736202138+736713555+737716222+740615280
3298+743541929+742999021+738707867+733368085+728620321+724488192+721698076
3288+721631571+724103036+727274785+729968556+732789863+736404950+739584272
3278+740205081+738233712+736268342+736011696+736236102+735589426+735220240
3268+736829620+739910721+742452139+743124458+741890862+739706109+738050994
3258+737581263+737284655+736241426+735419378+736073552+737161692+736110516
3248+732168454+727492518+724700677+724675035+726426646+728090609+728339307
3238+726989273+725043096+724270084+725915528+729353445+732016476+731884816
3228+729807880+728200600+728208772+728734436+727837037+725184353+722410357
3218+720756440+720012669+719995650+721045252+722904904+724981090+727280033
3208+729244354+729124615+726666047+724511585+725092506+727803672+730117760
3198+730058603+727431936+723621459+720283711+718334236+717887823+718453899
3188+719320107+720239849+721415488+722486458+722440872+721168664+720075725
3178+720429541+721811066+722694369+721971966+719387812+715572910+712225565
3168+710998493+711876248+713596819+715246386+716361218+716368566+715252834
3158+713794758+712268152+710400177+709015203+709150837+709666228+708580787
3148+706135414+704005920+702556616+701145025+699980633+699555664+699285822
3138+698420363+697488250+697503396+698047803+697560678+695685205+693884634
3128+693454267+694083698+694583194+694147653+692736737+690956485+689855224
3118+690179049+691316749+691579244+690334552+689000037+688698405+688448132
3108+687169101+685858204+685977567+686986757+687140160+685851456+684010997
3098+682642369+682084915+681968026+681414022+680058439+678961151+679489814
3088+681469205+683208369+683266551+681623207+679196654+676883166+675250168
3078+674614739+674978152+675950603+676827833+676749482+675181039+672683633
3068+670782968+670446921+671029117+671188968+670411982+669221048+668321100
3058+667926197+667836300+668075626+668981047+670183077+670287820+668408673
3048+665268190+662028287+659131253+657000484+656436432+657322510+658079177
3038+657441723+655885877+654439947+653351807+652713003+652842788+653225171
3028+652633303+650945722+649399698+648831223+648861288+648768842+648220610
3018+647123923+645417223+643353183+641765922+641412181+641906204+641997675
3008+641038346+639503043+638221387+637689051+637718592+637458272+636340891
2998+635108870+635066208+636182840+636780331+635575527+633399246+631979033
2988+631607897+631107876+629700634+627912884+626660170+626095481+625658516
2978+625001005+624382221+624068330+623833727+623234549+621927589+619904486
2968+617839809+616677967+616590956+616892963+616923291+616474029+615648721
2958+614715783+613786744+612710750+611613350+611027368+611114828+611174398
2948+610156286+607716387+604871612+603198764+603114453+603511418+603301333
2938+602586653+602107475+602143052+602165695+601335737+599404669+597137817
2928+595535260+594783166+594317560+593648203+592628517+591079119+588835696
2918+586460202+585241677+585759543+586802809+586549950+584675976+582507231
2908+581335979+581267188+581434349+580907823+579513440+577821511+576438524
2898+575564892+574980222+574119337+572608365+570850718+569426831+568170555
2888+566815235+565961210+566196375+566944607+567210926+566786219+565976205
2878+564891927+563577956+562257725+561078563+559947011+558764325+557597496
2868+556572637+555810684+555504140+555740843+556086186+555656269+553896560
2858+551244326+548957417+548139681+548680153+549296163+548949395+547863354
2848+546746835+545681076+544367667+542907829+541698301+540755954+539638460
2838+538160665+536772842+535896886+535347418+534857556+534607658+534644434
2828+534392287+533390857+531980054+530736824+529768047+528911886+528125715
2818+527426368+526785165+526110598+525161540+523733604+522092434+520854078
2808+520261535+519878028+519118324+517875844+516455219+515017536+513431886
2798+511770248+510548124+510047428+509669319+508566071+506870880+505642121
2788+505446019+505599834+505090216+503745467+502120380+500670363+499467396
2778+498408909+497331378+496144981+495028649+494279217+493926226+493637003
2768+492975181+491741173+490161035+488702808+487601960+486646978+485526336
2758+484265486+483143382+482233911+481323654+480307679+479303925+478354193
2748+477473514+476896079+476661289+476169815+474866041+473087701+471553373
2738+470394417+469271188+468022897+466748064+465592295+464734184+464282223
2728+464050694+463649080+462799891+461448620+459708930+457836006+456135380
2718+454792393+453799286+452964493+451999690+450845270+449873906+449440990
2708+449311692+448891296+447928218+446683076+445541215+444659786+443871816
2698+442882308+441621158+440319034+439213499+438313589+437438720+436413673
2688+435296854+434336475+433588805+432843572+432063999+431520004+431308232
2678+431083001+430420093+429252027+427884148+426720918+425999828+425646386
2668+425284210+424526456+423427669+422480711+421960071+421516995+420678790
2658+419474286+418299660+417418418+416806269+416304786+415777511+415175296
2648+414517823+413828898+413091237+412261093+411347761+410440503+409586328
2638+408730954+407899910+407269579+406894732+406576979+406133266+405570677
2628+404930636+404209395+403459926+402752744+402045636+401253730+400391645
2618+399534209+398728207+398018588+397458548+397050111+396772996+396652771
2608+396691121+396719013+396380267+395357207+393761698+392259348+391540694
2598+391616008+391836253+391616158+390935555+390171053+389663759+389448050
2588+389262445+388819069+388088269+387279642+386594578+386123086+385945653
2578+386111389+386397351+386303293+385544301+384432768+383521649+382991037
2568+382625974+382263273+381999355+382004641+382324455+382806331+383121459
2558+383011918+382614578+382323967+382264211+382164116+381775736+381083624
2548+380132054+379054448+378234613+378023553+378298681+378578045+378518176
2538+378125822+377649493+377465875+377888482+378833079+379763730+380147762
2528+379892390+379268208+378606086+378151689+377978979+377939466+377843646
2518+377680721+377530317+377371554+377139313+376838880+376474492+376017395
2508+375539417+375190925+374958271+374672497+374339937+374188708+374275194
2498+374335475+374164078+373873468+373662445+373572848+373553841+373533485
2488+373356539+372873013+372192485+371681592+371578199+371707009+371680205
2478+371307307+370736958+370250620+369971293+369796560+369629249+369544562
2468+369597571+369648518+369584037+369514646+369551572+369579539+369408966
2458+369014138+368539909+368168398+368012334+368065230+368210048+368280001
2448+368128510+367688696+367056678+366523629+366364678+366524866+366655176
2438+366483517+366004302+365395226+364928533+364785627+364815580+364713161
2428+364453291+364221088+363994357+363612875+363194579+363082451+363364851
2418+363723203+363795706+363519829+363080726+362700293+362555363+362708653
2408+363001550+363184269+363215272+363253923+363366876+363473680+363556042
2398+363676568+363793757+363763129+363518816+363109667+362611895+362114573
2388+361637233+360924540+359497054+356996611+353273819+348157018+341490482
2378+333457716+324602754+315511576+306651309+298407933+290971215+284181211
2368+277816494+272155492+267884806+265294972+264067825+264081770+265879923
2358+270140150+277155497+287044598+299952420+315020440+329170348+338318771
2348+340070232+335282205+327781850+321638316+317919835+315207732+312235497
2338+308811075+305337601+302118935+299104412+296406874+294682742+294520135
2328+295690994+297321630+298689434+299831182+301443486+304154315+307904529
2318+311989254+315570508+318265516+320397148+322595471+325181463+328084345
2308+331133319+334105292+336658631+338553823+339900709+341016553+342078001
2298+343026010+343800821+344533608+345409489+346430037+347406462+348120617
2288+348479757+348615240+348785587+349087894+349351551+349349864+349007332
2278+348429522+347850550+347479114+347317689+347227942+347155214+347142693
2268+347174371+347168672+347109553+347074089+347106592+347137332+347100556
2258+347077800+347208335+347502245+347837054+348047327+347986858+347697485
2248+347511392+347736585+348263373+348690967+348765943+348524218+348152670
2238+347893624+347954093+348342699+348831398+349148701+349227014+349280510
2228+349610109+350266419+350970865+351462976+351778329+352032688+352157600
2218+352091395+352007983+352100280+352321049+352530910+352729599+353003677
2208+353380174+353822500+354297479+354797837+355316190+355821610+356281668
2198+356686431+357041972+357394926+357854084+358484565+359175665+359721347
2188+360058481+360358839+360838579+361503624+362175642+362778269+363432743
2178+364191172+364872450+365303042+365570672+365912642+366471520+367248994
2168+368192278+369248141+370421755+371825660+373569286+375590589+377745464
2158+380049242+382655553+385638135+388931084+392370501+395710236+398785977
2148+401688821+404589753+407480526+410257747+412885951+415372260+417791354
2138+420350691+423254435+426548659+430130232+433758065+437124005+440128443
2128+443037098+446247647+449908921+453698367+456940932+459093594+460126102
2118+460319617+459853711+458762421+457106706+454993106+452527452+449870457
2108+447257099+444860274+442669111+440575080+438546130+436610263+434681706
2098+432514311+429837147+426495200+422515425+418086800+413454501+408817028
2088+404297681+400000865+396082983+392685329+389752232+387061647+384534325
2078+382360781+380711401+379484666+378474352+377627862+376960718+376354267
2068+375669615+374976791+374432271+373993731+373470129+372783828+372031060
2058+371370250+370919002+370670378+370521549+370432364+370449271+370552402
2048+370653134+370761738+371013098+371521741+372303901+373350391+374750548
2038+376690351+379238854+382194557+385296728+388524934+391972186+395445192
2028+398403594+400343547+401122520+400903850+399930162+398370492+396252619
2018+393542840+390401082+387261048+384477642+382024172+379731527+377673823
2008+376058483+374816790+373583832+372111922+370513152+369028683+367717149
1998+366505747+365446473+364693442+364214227+363735762+363058083+362265952
1988+361562518+361057886+360746244+360534772+360265155+359806521+359173566
1978+358527077+358034404+357745030+357609735+357562162+357529809+357412658
1968+357125421+356676459+356197919+355868470+355750232+355722978+355653062
1958+355559453+355490737+355367962+355129085+354882711+354728559+354572044
1948+354302502+354020814+353900963+353901638+353785124+353441542+353048438
1938+352818596+352729036+352614772+352454096+352411772+352595165+352896872
1928+353106320+353117904+353016123+352985945+353144709+353445853+353712246
1918+353759407+353588047+353436819+353500662+353694214+353805555+353775227
1908+353698788+353634083+353541411+353378599+353184259+353063996+353087126
1898+353206714+353296387+353256049+353102272+352962552+352950293+353070294
1888+353262385+353466734+353623024+353692865+353676033+353553558+353323978
1878+353119779+353103734+353249376+353399743+353476969+353475657+353376762
1868+353228458+353174587+353274119+353440942+353580887+353664299+353686342
1858+353667185+353675433+353741487+353798357+353811366+353868311+354066512
1848+354431950+354961250+355567138+355999755+356081742+355949146+355836268
1838+355850588+355995406+356251940+356617340+357091194+357641562+358213861
1828+358761830+359215028+359466576+359500990+359481009+359605845+359940655
1818+360402250+360856985+361231945+361553184+361922632+362453507+363148505
1808+363874244+364541202+365206622+365943908+366758982+367652707+368605589
1798+369519220+370348015+371200653+372168080+373153689+374038267+374936078
1788+376048173+377434534+379039640+380785778+382575140+384257885+385711013
1778+387001740+388391288+390092702+392008587+393741679+395083466+396329320
1768+397773563+399361350+400963682+402605339+404331570+406084193+407796929
1758+409458230+411076120+412740533+414616231+416762783+419024574+421110357
1748+422818107+424197907+425534258+427160208+429157594+431264933+433200537
1738+435057041+437163218+439613164+442073457+444211461+446193064+448221190
1728+450257488+452370976+454814324+457651976+460667248+463735191+466916012
1718+470027667+472533996+474388363+476296226+478760943+481689129+484768244
1708+487862055+490987580+494125177+497281144+500568245+504063482+507763293
1698+511751504+516074411+520407253+524371733+528133175+532091282+536382362
1688+541045439+546328839+552252766+557801808+562035081+565709737+569823009
1678+574607437+579896535+585303271+590320202+594859155+599411530+604520495
1668+610200935+616012059+621750831+627526041+633269236+638643507+643535902
1658+648147433+652658120+657212893+662038484+667107974+672070921+677076756
1648+682526979+688255366+693391961+697452411+700694489+703347172+705423733
1638+706898680+707905170+708953947+710446213+711990963+713005176+713234830
1628+712667255+711493866+710064655+708716120+707736322+707328522+707250471
1618+706505726+703952611+700106745+696763073+694406998+692140971+689083936
1608+685330216+681753592+679065744+677413627+676594879+676272554+676166311
1598+676163537+676114427+675738268+674962032+674031493+673070439+671837893
1588+670113949+668204811+666825686+666329488+666323190+666328663+666429582
1578+666939800+667908127+669210477+670745779+672264812+673410084+674318805
1568+675939281+678984094+683154911+687693564+692117503+696687422+702496334
1558+710154628+718303495+726288163+734944100+744789395+755411827+765801455
1548+774885809+782191711+787949639+792605032+796597103+800009528+802306297
1538+803659555+805161268+807168251+809294671+811394400+813865490+816847997
1528+819966063+822846601+825472443+828052849+830733799+833490176+836127939
1518+838497060+840712179+842996651+845411283+847910639+850490070+853046483
1508+855306438+857259287+859445614+862147633+865190721+868223013+870455676
1498+871133393+870989737+871815833+873792075+875378512+875499224+874922802
1488+875455813+877566563+880136922+882164149+883553021+884686747+885659648
1478+886169341+886361807+887237462+889381278+891621213+892571921+892868005
1468+893742686+895288260+896722794+897435449+897726435+898232829+898942411
1458+899146498+898666646+898575848+899285505+900234413+901139010+901952584
1448+902345164+902197909+902162595+902718324+903418158+903669556+903528300
1438+903162112+902485595+901974328+902382727+903384944+904026971+904203617
1428+904695016+905647148+906309044+906233242+905629753+904641707+903304643
1418+902210130+901961957+902314423+902886197+903682602+904503449+904600770
1408+903449274+901437193+899576491+898661472+898434517+897620043+895228354
1398+892037111+889990015+889853857+890426681+890113502+888500149+885976650
1388+882989570+880359829+879466479+881253854+885265119+889906866+893712995
1378+896307272+897969585+898870733+899412366+900632391+903233040+906715269
1368+910058415+912811193+915225675+917537664+919485414+920595598+920756273
1358+920379289+920026223+920018575+920481108+921724975+924152653+927364740
1348+929895511+930758421+930807231+931427290+932638917+933616766+934294108
1338+935346484+936983605+938637521+939671003+940103695+940678618+942041474
1328+944011342+945903460+947251021+947971474+948168963+948009112+947638426
1318+947230177+947154600+947906544+949638586+951724594+952995228+952675376
1308+951029783+949160833+948300998+948895340+950168973+951060823+951443056
1298+951495240+950534110+948051099+945221695+943627236+943085377+942084660
1288+939813984+936758899+933724958+931129706+929068965+927398329+925663363
1278+923413231+920766545+918343141+916559665+915278759+913977159+912041105
1268+909245440+906142745+903700971+902358285+901462235+899824889+897026975
1258+893803792+890829982+887894710+884843524+882346492+880984312+880533100
1248+880613926+881054490+881424576+881268399+880822361+880687103+881043019
1238+881687295+882494647+883485767+884551714+885346844+885604690+885640979
1228+886343213+888351395+891170227+893301746+893877794+894053465+895613660
1218+898354517+900438350+901304859+902155697+903609275+905134530+906660236
1208+908818297+911756868+914974277+917988875+920512148+922340461+923417579
1198+924072353+925167241+927429520+930397257+932794344+934166422+935203278
1188+936442646+937746120+938972518+940314905+942120499+944707503+948063396
1178+951622101+954487644+956143434+957055079+958067342+959138913+959709112
1168+960187015+961689028+964419988+967670537+971017207+974080990+975896931
1158+976197363+976522164+978626241+982252575+985762545+988380515+990016811
1148+990013662+988365969+987137847+988422127+991633689+994258631+994851099
1138+994188977+993966821+995271344+997959867+1001058064+1003649416+1005348993
1128+1005994770+1005581197+1004848147+1004958213+1006141199+1007516726
1120+1008634257+1010032577+1011696090+1013001064+1014625214+1017729109
1111+1021766616+1025301404+1027969008+1030347051+1032993437+1035854856
1103+1037571828+1036737110+1034663773+1034023995+1034864711+1034944486
1094+1033596326+1032291278+1031922241+1032189459+1033230064+1035867602
1085+1039700873+1042714570+1044231354+1046425404+1051003195+1056209143
1077+1059012980+1058554721+1055830210+1052328112+1050084428+1050777964
1068+1053659328+1055990660+1056477260+1056902755+1059336881+1062917554
1060+1064617356+1062993130+1059972760+1058870449+1061601859+1067004771
1051+1071062522+1070304431+1065561090+1060952034+1059830979+1062842352
1043+1067916416+1071087715+1069705515+1065587107+1062731011+1062577983
1034+1063532515+1064130456+1064626878+1065737661+1067638926+1070224055
1025+1072891735+1073741823+1070629456+1064400822+1059757801+1060560729
1017+1064900918+1066884433+1063735927+1058812042+1056251055+1055981588
1008+1055549421+1054325498+1053682645+1054259143+1055125951+1055221097
1000+1054359987+1052999980+1051737144+1050846268+1049798990+1047612738
991+1044310829+1041183317+1038614682+1035664415+1032436583+1030173180
983+1028905620+1027366043+1025251994+1023640365+1022927259+1022247818
974+1021024195+1019631498+1017780543+1013844704+1007628292+1001925997+999075899
964+997897561+996111686+993780803+992036465+990389072+987367651+982727479
954+977865900+974293774+972081130+970038759+967403170+964564468+961899338
944+959075032+956090501+954235496+955122249+958572987+962048917+962965660
934+961184733+958429781+956230258+955092633+954721797+954549875+954354110
924+954227474+954005242+953272043+951892317+950242900+949080608+948938376
914+949299240+948901638+947202810+944993840+943321330+942421382+941977143
904+941785502+941653393+941268237+940947860+941552174+942934974+943683543
894+943087852+942002036+941035358+939607273+937277964+934795403+933552811
884+934165297+935374900+935396868+934757690+935637619+938071220+939182753
874+937020044+933038469+929933524+929054945+930281792+932514005+933981454
864+933711762+932772226+932655712+932977138+932369300+930955385+930145184
854+930613565+931793927+932507332+931739044+930076580+929916580+932584934
844+935637619+935124402+930751598+926416582+925215526+926214444+926784418
834+926049495+925040980+924796405+925414515+926661456+928605008+931162696
824+933456090+934637427+935157842+935966093+936943342+937297758+936698468
814+935448377+934711504+936339328+940814476+945555117+947064553+945010710
804+942398739+941741566+942616397+942959641+941696430+939472539+937528912
794+936748552+937360814+938908938+940657250+942231240+943991848+946494353
784+949251555+950405975+948636819+945306269+943279943+943699813+945044450
774+945189530+943515970+940975302+938903464+938158643+938743988+939868567
764+940759368+941289755+941513561+941237121+940449414+939583055+939118723
754+939300317+940115166+941175490+942112177+943105621+944112861+944301278
744+943344123+942364774+942879191+945485989+949408482+952787992+954140051
734+953660348+952273725+950240126+947659495+945265557+943822701+943474058
724+944266114+946185598+948088063+947849936+944630052+940402628+938484193
714+940669996+945453674+948751234+947693684+943606842+939890685+937870657
704+936174079+933770094+931080596+928528007+926341005+924661971+923056940
694+921198862+919699998+919023257+918150600+915611281+911359490+906804192
684+903350829+900943320+898119164+893942349+889297004+885462159+882876579
674+881718561+880218347+873870201+861327235+852401457+860047379+877149467
664+887028952+885387782+877861298+869842440+862324653+855454292+851515454
654+852580502+857750686+862903175+863418642+858619893+852309460+848871918
644+849127439+850367408+850582966+850596537+850829566+849458387+845571434
634+841232968+839076932+839463813+841102134+842810633+843581996+842496405
624+839261900+834788776+831386173+830944784+832403910+832675777+830268867
614+826827951+824536431+823348497+821095965+816160234+810394808+807685441
604+810127140+816548839+823098449+825860224
##END=
