##TITLE=<SNM>
##JCAMP-DX=4.24
##DATA TYPE=INFRARED SPECTRUM
##DATE=3/5/2025
##SAMPLING PROCEDURE=Instrument type and / or accessory
##ORIGIN=Admin
##XUNITS=1/CM
##YUNITS=ABSORBANCE
##RESOLUTION=4
##FIRSTX=4497.3318
##LASTX=599.83466
##DELTAX=-1.4281778
##MAXY=1.7138761
##MINY=0.17920704
##XFACTOR=1
##YFACTOR=1.5961715e-09
##NPOINTS=2730
##FIRSTY=0.20033309
##XYDATA=(X++(Y..Y))
4497+125508496+125260226+125306055+125132637+124689021+124417029+124567537
4487+124668660+124250912+123895526+124531296+125834186+126445983+125782066
4477+124695453+124287890+124753240+125524544+126158438+126749949+127485769
4467+128123266+128201685+127678296+127033311+126691088+126600169+126448018
4457+126114094+125817597+125822265+126036142+126109884+125965510+125890181
4447+125990267+125952907+125471920+124594171+123686876+123238741+123458519
4437+124016038+124372946+124190007+123348098+122052835+120888363+120292157
4427+120214345+120484180+120888746+120871671+120018429+118792258+118025865
4417+117959106+118284068+118703085+119024312+119041219+118643702+118007165
4407+117561448+117652199+118219428+118938855+119568240+119927538+119767330
4397+118966628+117707503+116339983+115294223+115042779+115725703+116855586
4387+117762154+118150690+117918422+116930999+115486199+114401733+114016016
4377+113696600+112940064+112273047+112394970+113139500+113949472+114761713
4367+115785460+116805949+117235646+116731498+115538796+114389410+114071703
4357+114794378+115979920+116841686+117066719+116897251+116778876+117004881
4347+117501393+117861101+117677835+116909714+115923122+115176968+114919736
4337+115198486+115891988+116559696+116628825+116044727+115382686+115154805
4327+115426041+116048583+116748657+117082328+116819784+116240662+115722398
4317+115380362+115369477+116012706+117294087+118638735+119475584+119718225
4307+119547347+119090903+118522461+118160605+118198918+118489469+118767435
4297+118946585+119055213+119067163+118994373+119020868+119321865+119820785
4287+120285977+120547746+120518423+120176508+119612836+119002056+118577270
4277+118643300+119326159+120228600+120713844+120631616+120407143+120443430
4267+120822800+121437752+121988261+122076482+121670487+121316856+121586141
4257+122369105+123019047+123173345+123065743+123020727+123142892+123504963
4247+124050841+124379295+124271086+124195356+124642604+125318704+125554875
4237+125097031+124147259+123124380+122478228+122293011+122239219+122126324
4227+122118753+122399511+122984636+123690451+124182174+124368895+124547848
4217+124849602+125083551+125304020+125797516+126486994+126983702+127063727
4207+126777890+126422906+126366052+126547125+126530601+126299331+126341051
4197+126778740+127117677+127022286+126761394+126687709+126722540+126620782
4187+126432558+126381353+126506720+126701012+126911240+127151369+127511218
4177+128143861+129065047+130033538+130713036+130923628+130865047+131037951
4167+131605516+131962162+131386952+129993133+128630878+128013452+128213112
4157+128850385+129546482+130144901+130617402+130926932+130996454+130752628
4147+130268243+129860708+129886278+130386581+131002989+131324086+131364453
4137+131546543+132076402+132620124+132822453+132804239+132904429+133234124
4127+133627683+133786500+133474626+132813836+132311471+132374383+132863595
4117+133310750+133469940+133399970+133160457+132813967+132617136+132816796
4107+133341557+133959291+134580555+135160200+135433760+135035467+134011972
4097+133051053+132861028+133355775+133854976+134019188+134097010+134400966
4087+135010355+135817713+136556025+136975537+137088227+137056178+136971514
4077+136943134+137130769+137461976+137620868+137512164+137414272+137488293
4067+137476325+137099178+136468178+135919498+135646228+135607625+135686361
4057+135894535+136381049+137165189+137979839+138480869+138523467+138243578
4047+137969262+137930836+137974620+137793660+137488237+137539984+138123606
4037+138755699+138849811+138482998+138359087+138970165+140027333+140868692
4027+141222846+141352302+141577196+141919680+142212042+142363530+142453011
4017+142583345+142663388+142425630+141776006+141028610+140613140+140648680
4007+140974174+141445340+142010590+142589264+143040414+143303911+143535844
3997+143903590+144178037+143853589+142882784+141933282+141646867+141994934
3987+142568716+143127039+143598952+143850835+143794457+143612834+143626529
3977+143977882+144562298+145154023+145531367+145628363+145602999+145667227
3967+145933095+146433939+147071940+147541939+147582549+147273803+146854170
3957+146401880+145937697+145680475+145997622+147077028+148558592+149553931
3947+149481337+148852130+148596783+148796387+148762816+148219925+147614467
3937+147419373+147879980+149104657+150729792+151778484+151618883+150818368
3927+150354399+150426274+150509556+150308888+150206375+150682050+151650680
3917+152438097+152353032+151374338+150172010+149462293+149555452+150549662
3907+152656857+155875461+159330199+161623088+162241382+161592019+159779725
3897+157021570+154706116+154408461+156004105+157349229+156831628+155892200
3887+156575339+158395373+159543180+160100495+161119583+161543063+159972355
3878+157994503+157943550+159730078+161940945+164037955+165699294+165953314
3868+165058239+164472675+164339419+163542088+161907580+160661581+160973818
3858+163495820+168596997+175224705+178635323+174943107+168019853+162613330
3848+160299659+160891142+163284519+166264898+169496758+173205292+176642311
3838+178009840+176785350+174365404+171847248+169477938+167726847+167154092
3828+167468159+168212390+170268641+174738042+179841198+181504590+179532620
3818+177421252+175974445+173768189+171298485+170404791+171854418+175006589
3808+177905375+178891435+179339785+181536032+184503733+185364211+184470984
3798+183896119+183221419+181333170+179190920+178369353+178984510+180388841
3788+182374552+184838899+187255054+189490325+192292842+195930967+199310404
3778+201591269+203622053+206685014+211284926+217165753+223356091+228728950
3768+233140471+237144756+241171894+246056223+252957726+261814170+270800061
3758+278402795+285547059+294367990+305986660+319446974+331818351+341300670
3748+349779790+359680790+370246968+377763926+381898199+387105913+397000938
3738+412214248+430360941+447308537+460106549+468007536+471613267+472691263
3728+473522203+475457092+478263623+480964962+483045486+484926005+487719093
3718+492415517+499508342+509219345+520818522+531563345+538814987+543472499
3708+547894831+553183950+559643675+566590978+572081223+575025996+576793218
3698+579444667+583929136+589782012+595934298+601992183+607574551+611078039
3688+612101403+612639729+613433588+613594832+613295609+614148767+617392166
3678+622674900+627578722+629371300+629300947+630332714+631981150+631346481
3668+628432366+626177118+626030849+627260865+628796229+630973806+635049563
3658+640975705+646568156+650196478+653130385+657077386+661370103+663748431
3648+664079881+664589677+665873355+666568518+665491642+663163352+661618952
3638+662262807+664346654+666718634+670112970+675116534+679021787+678574875
3628+676716351+678551947+683224434+687636048+691604185+697082593+703616218
3618+707408473+706825038+704261940+702332242+701842834+702182350+702538744
3608+703163480+705097585+708503945+712083649+714066224+713778912+712411588
3598+711966767+713032889+714182956+714534048+715204117+717432703+720744065
3588+723021718+722994608+721927739+721185749+720438829+718548116+715460808
3578+713283007+714279000+717939138+721410923+722805058+722912753+723611651
3568+725772498+728326932+728874519+726107607+721524592+718417717+718874114
3558+721897492+725066505+727280976+728939420+730450138+731635083+731885500
3548+730675461+728397435+726988586+728733291+733234377+736324150+733809522
3538+727025405+721790544+721082684+722241564+721730946+719689295+718515927
3528+719146862+720249728+720536068+720714116+721820343+722562259+720777822
3518+717372134+716046857+718635571+723190879+726628383+727539384+726511800
3508+725132004+725173454+727472317+731169649+734544642+736108685+734624629
3498+730091055+725095184+722897070+724434749+728142013+731722538+733380460
3488+732903599+732111421+732603890+733356337+732175575+729083935+726300293
3478+725310425+725810064+726801800+727335495+726984030+726536670+726918382
3468+727037952+725269348+723167652+723964162+727588825+730699286+731076219
3458+729340177+727394720+727251849+730194568+735103207+738207096+736299803
3448+730784576+726222398+724880392+725528280+726593355+727978006+729869242
3438+731522533+731648003+729768866+727309953+726699482+728532240+730046244
3428+728148735+723730399+720353390+719437086+719580629+720131353+722463377
3418+727075593+732105222+735651840+737322383+736893768+734284292+731079206
3408+729193646+728275475+726751388+724905934+724326158+724668213+724089259
3398+723016864+724050647+727288444+728910592+726312990+722152316+720973421
3388+723996650+728449340+731426489+733222427+735495973+737209460+735153619
3378+729666399+725647924+726170791+729061604+730690548+730708845+731010272
3368+732191557+732882912+731606404+729327033+729434653+733343491+737733596
3358+738374986+734947266+730093818+726367883+725376446+727304427+730775464
3348+734462340+737913137+740428437+741210757+740528141+739223851+737646812
3338+735814204+733937980+732282373+730784426+729320535+728540754+729446677
3328+731724107+733796154+734991106+736088296+737202514+736888167+734558981
3318+731966682+730795554+730931181+731801032+733574639+736354024+739106671
3308+740419998+740241651+739857623+740741290+743395503+746324480+746746747
3298+742976971+736326838+730353198+727944174+729192451+732032106+734405803
3288+735323377+734650843+733325492+733108832+734781616+737298185+739405110
3278+740845177+741287906+739882045+736644173+732730331+729391560+727707574
3268+728418869+731096906+734303336+736699141+737319470+736103756+734556442
3258+734108410+734149860+733628860+733472546+734740017+736210704+736299429
3248+735588283+735717263+737205651+739154170+740082050+739465903+738876717
3238+740271301+742911921+743484826+739806240+733656494+729312170+729194841
3228+731217895+731120432+727977185+725569132+727349984+732120457+735443097
3218+734701629+731520442+728993118+728465397+729290661+729939446+728992297
3208+726422776+724119058+724062671+726057270+728135889+729068998+729225163
3198+728742402+726884476+724100312+722633433+723921891+726699183+728409011
3188+727816389+725834038+724263946+724066480+724753652+725282344+725164118
3178+724625269+724200538+724092097+723615908+721999138+719829702+718458420
3168+717963411+717062118+715049520+712761635+711491550+711424334+711438375
3158+710792503+710407280+711260252+712109714+710571511+706527121+702776092
3148+702090787+704464484+707035499+706975452+704682787+702943758+702982221
3138+703253400+702318052+700867006+700187004+700450939+701052000+701102113
3128+699796777+697477151+695716688+695716389+697180429+698624977+698392484
3118+696083015+693398480+692597489+693876611+695324221+695268058+693704239
3108+691811285+690713348+690550611+690640157+690441497+689904963+688987837
3098+687743295+686680459+685877825+684237006+681007648+677462897+675669423
3088+676060919+677274095+678129008+678807368+680190599+682653321+685276689
3078+686213532+684200635+679845632+675219897+672276730+671857750+673533073
3068+675737237+676734350+676156142+675157013+674751326+674665439+674010755
3058+672355373+669878536+667139705+664992451+664040522+663888913+663443270
3048+662172513+660584870+659389469+658859583+659024486+659725923+660508169
3038+660932825+660964043+660941190+661232310+661796178+661981022+661153891
3028+659589325+658261285+657793835+657929089+657896601+656881713+654454392
3018+651177310+648316744+646607664+645822729+645610401+646032742+646924625
3008+647389162+646646276+645030401+643473677+642443778+641728375+640859794
2998+639583959+637956061+636228832+634751722+633867980+633929221+635075703
2988+636614577+636958051+634991310+631616541+629154043+628927301+630040399
2978+630689108+630064820+628645143+627183716+626062067+625379562+625039785
2968+624622635+623657674+622374668+621638578+621650677+621447423+620256280
2958+618518222+616924417+615334832+613409652+611608747+610771720+610918587
2948+611194210+611102012+610948200+610721458+609633230+607426078+605229532
2938+604441498+605143271+605861998+604999504+602582974+600175071+598963464
2928+598690791+598561923+598288764+597884310+597060092+595358891+592808490
2918+590114433+588213712+587700853+588400909+589342120+589509787+588833033
2908+588031146+587469369+586752173+585554421+584185752+583025304+582040850
2898+581133620+580353839+579482308+578057589+576167250+574621803+573954908
2888+573756210+573321994+572415361+571131086+569560172+567878725+566513268
2878+565967586+566336416+566969852+566934713+566001119+564819498+564027693
2868+563536829+562772396+561412167+559742184+558331058+557485181+556987633
2858+556230742+554752848+552917289+551747917+551705869+552032241+551696048
2848+550556213+549188740+548039905+547118859+546248896+545395850+544681642
2838+544071581+543322047+542326802+541159894+539791897+538179123+536548162
2828+535202721+534176033+533337737+532623977+531978591+531225920+530124100
2818+528584964+526838354+525289883+524227235+523701717+523533266+523389125
2808+523036726+522488019+521813020+521064159+520441066+520136241+519960658
2798+519481034+518495572+517091951+515436606+513769685+512351725+511208119
2788+510102788+508872547+507685698+506872309+506511135+506281443+505735686
2778+504574267+502701814+500359409+498192998+496750318+495856531+494903482
2768+493741279+492801636+492357935+492113829+491561723+490491009+489130631
2758+487909725+487112394+486739494+486564284+486186604+485246326+483883820
2748+482765195+482287289+481972344+480983633+479108679+476975913+475334422
2738+474264119+473204345+471784966+470372122+469550406+469334941+469169477
2728+468501872+467203968+465585330+464058256+462719536+461329433+459764345
2718+458316100+457402858+457052252+456763484+455959206+454602824+453243005
2708+452407846+452090175+451804208+451031112+449624055+447826997+445991812
2698+444428291+443460866+443278859+443598808+443731896+443137930+441830204
2688+440278335+439015494+438227199+437611052+436728132+435502447+434207007
2678+433001561+431807431+430725588+430171952+430300596+430617557+430510459
2668+429892482+429020167+428031979+427009063+426134433+425443638+424656426
2658+423521894+422197028+421108949+420491868+420138872+419628478+418789584
2648+417867343+417162246+416614659+415885776+414815584+413658983+412825578
2638+412467877+412365746+412135045+411497538+410448818+409251513+408217357
2628+407473238+406969528+406613022+406285119+405878163+405423671+404995766
2618+404464684+403663730+402769458+402120151+401734181+401393247+401035470
2608+400671944+400134178+399312685+398442611+397792557+397251318+396534534
2598+395651688+394890989+394423800+394112104+393700555+393162117+392814834
2588+392936869+393285720+393295653+392758970+391961414+391188019+390489159
2578+389872377+389396001+389102790+388972615+388855771+388548743+388078567
2568+387698236+387487327+387275335+387035112+386983692+387199231+387409580
2558+387259390+386718263+386165262+385955062+385928176+385619019+384945738
2548+384324811+384082423+384146091+384317268+384470857+384456928+384122939
2538+383511497+382864281+382408332+382224533+382235848+382221061+381970494
2528+381565181+381373989+381643264+382190627+382570771+382481187+382024379
2518+381603084+381481572+381495837+381316258+380866806+380336733+379958493
2508+379892173+380114696+380343231+380284080+379970368+379638321+379310792
2498+378787141+378065876+377459811+377162305+376986759+376694668+376310566
2488+375955179+375646546+375397212+375253593+375164980+375031855+374901642
2478+374937603+375187124+375500911+375686017+375652857+375403634+374963967
2468+374381838+373769014+373303842+373158431+373349101+373640333+373704711
2458+373438722+373033745+372708756+372487727+372288917+372110010+371995780
2448+371889803+371690843+371457828+371396437+371568996+371705593+371425340
2438+370696830+369960926+369669208+369806628+370007380+369984228+369669246
2428+369145371+368646180+368433441+368504839+368569703+368412044+368130110
2418+367935557+367852059+367734319+367527630+367373145+367435656+367714677
2408+368052177+368273728+368309876+368215325+368088473+367969874+367825061
2398+367635064+367465829+367390248+367375871+367334085+367249990+367146216
2388+366928212+366372634+365297252+363664088+361453613+358541440+354861772
2378+350624098+346166516+341677827+337279246+333209500+329613329+326301332
2368+323047589+319993553+317507642+315848973+315217740+315892066+318033533
2358+321562973+326397824+332655976+340544527+349753874+358773000+365341614
2348+367782341+366089057+362266592+358915871+356813203+354940639+352394196
2338+349004042+344942175+340590122+336492780+333133658+330776689+329472548
2328+329061037+329171383+329427887+329725019+330169467+330853054+331865440
2318+333289599+335009770+336790809+338553027+340297695+341936236+343456439
2308+344963759+346358156+347352580+347976457+348656983+349624632+350588175
2298+351197974+351523001+351815615+352075106+352148558+352074957+352071596
2288+352290571+352697863+353103138+353321105+353349410+353297803+353184358
2278+352969752+352711119+352496177+352296135+352009421+351598731+351131243
2268+350722794+350478762+350469464+350683622+350981463+351194874+351294914
2258+351337148+351293682+351118659+350907040+350809764+350851811+350957938
2248+351091362+351267468+351471356+351659935+351832419+351993737+352071484
2238+352030034+352050161+352372388+352940923+353425327+353626938+353669807
2228+353752557+353889753+353984714+354041923+354173181+354431253+354748923
2218+355034480+355251438+355421756+355608206+355886667+356297357+356789342
2208+357240361+357593656+357919729+358263465+358566011+358846377+359233654
2198+359698639+360053764+360316840+360741870+361425345+362181227+362806374
2188+363266318+363673610+364167014+364719119+365128091+365333660+365574033
2178+366063664+366711851+367302269+367753924+368113791+368493599+369083383
2168+370053124+371376870+372870037+374414998+376035876+377767138+379640972
2158+381831282+384575975+387844730+391279657+394579331+397739382+400798272
2148+403596365+406014425+408261384+410632281+413095675+415401783+417516437
2138+419680010+422106921+424821964+427691194+430528010+433331741+436385778
2128+439888668+443607023+447129555+450275715+452973917+454910076+455623201
2118+454976172+453354584+451315211+449143461+446834626+444359059+441779680
2108+439161540+436467931+433564533+430373115+427020639+423748897+420695197
2098+417816856+414947104+411892955+408593655+405200290+401934597+398909053
2088+396104724+393454731+390931142+388574733+386436665+384526161+382845983
2078+381424027+380289271+379447240+378845582+378340864+377773449+377106404
2068+376448359+375942371+375661520+375560397+375477908+375234026+374801565
2058+374355512+374065176+373872863+373600302+373227290+372910628+372760438
2048+372745165+372809580+372978554+373307278+373783205+374341957+374966917
2038+375708310+376621701+377763179+379193052+380877038+382608785+384091086
2028+385108214+385638698+385796544+385678804+385358744+384944319+384404649
2018+383418029+381721795+379560126+377473777+375754278+374371009+373268180
2008+372426038+371672956+370750640+369674511+368790470+368299606+367932607
1998+367325571+366564013+366058922+365947941+365885430+365467756+364681067
1988+363814017+363112580+362656071+362421637+362338550+362304606+362197919
1978+361911429+361431507+360862411+360329350+359932850+359819106+360099658
1968+360589364+360822044+360500266+359778328+359011617+358446031+358177951
1958+358175636+358277057+358301516+358175225+357921447+357616473+357371731
1948+357312059+357578234+358202223+358790102+358632107+357579168+356417525
1938+355920798+356034655+356227751+356216325+356094589+355985214+355869863
1928+355828899+356188206+357063135+357963233+358414290+358698091+359177117
1918+359351842+358571015+357259518+356423761+356445980+356924483+357234088
1908+357072881+356650018+356359794+356313340+356325626+356276035+356300419
1898+356596469+357071350+357352575+357383793+357658856+358374184+358829797
1888+358352414+357312581+356477048+356059413+355875651+355801378+355787412
1878+355770010+355719747+355747418+356253630+357792691+360354930+362693600
1868+363044431+361179372+358707725+357101934+356622086+356787587+357088640
1858+357242826+357183116+357031207+357018735+357350409+358075745+359163712
1848+360771072+363014109+365062444+365239483+363274496+360999532+359909287
1838+359957122+360366842+360798481+361780358+363873055+366428834+367870320
1828+367781184+367229676+366644262+365476121+363823092+362649723+362515478
1818+363144471+364042664+365081227+366395151+367826368+368757871+368788641
1808+368342289+368259463+369124011+371064278+373679393+376015525+377172350
1798+377312608+377690362+379468787+382465503+384774001+384639793+383048901
1788+382286036+383144161+384845586+386577371+388319200+390141838+391780006
1778+393346065+395659941+399447528+404280027+408196296+409430121+408557769
1768+407167442+406313686+406873297+409211296+412278178+414506876+415903289
1758+417384731+418922112+420394592+422776393+426813613+431404060+434350102
1748+434991717+434684726+434897091+436286373+438787333+441618473+443784063
1738+445683589+449132706+454592965+459011077+459294019+457300279+455766558
1728+455362813+456271126+458577347+461773508+465664309+471167475+478924805
1718+487135882+491862329+491816360+489835690+488642493+489375148+492353043
1708+497227178+502661783+507189196+511362492+517316490+525356166+532217245
1698+535397050+536135680+535618788+534842816+535759382+539334866+544870818
1688+551734212+560640788+571317163+579119230+580447830+579299257+580172169
1678+584145124+590337105+596907885+602622744+608395446+615331956+621958190
1668+625795854+627815174+631034972+636344668+641982377+646196899+649729626
1658+654657534+662638022+674331973+687049475+693465921+693802225+695666574
1648+700854833+705749655+706881350+705824191+705659287+707567103+711851305
1638+718250797+724628854+726933693+724350953+721022190+719816035+720481250
1628+721547222+722263222+722805731+722640230+720769607+718153856+716845981
1618+716681526+714794696+709643780+703804348+699726275+697219937+694817038
1608+691609264+688067799+685178703+683308155+682097743+680995624+679725091
1598+678344473+676977597+675725810+674786204+674229207+673707088+672762329
1588+671293658+669550521+667955783+666953965+666817292+667736957+670027905
1578+673534417+676415521+676353235+674770446+675277927+678937767+683609955
1568+686732664+688714865+691378862+695704141+702857498+714874833+731029839
1558+742424754+744329433+744495980+748079118+755053979+763974148+773469537
1548+782594042+791418316+800523403+809713257+817943640+822916209+821445821
1538+816023651+813226940+814936095+818369640+820013372+820112105+821531559
1528+825413809+830823656+836828291+843329353+849416365+853091440+854423812
1518+855511891+856822380+857540546+858102622+860040461+864336538+870761945
1508+877287653+879487560+875790602+871571600+870686215+872912187+876594058
1498+879819234+881335330+881505088+881784408+883220292+885698399+887882323
1488+888316240+887249297+886174961+885827304+885682939+885373447+886061814
1478+889579977+896293517+904165563+909559129+909670708+905798540+902194340
1468+901391780+903114379+905314435+905956348+905549990+906505055+910102085
1458+914641335+915956604+913100146+909977885+909138431+910382376+912010573
1448+911850450+909130888+905423997+902817209+902098595+903017812+905230041
1438+908265668+910825181+911637599+911373291+911373888+911382626+910031135
1428+907302686+904997623+904329570+904924806+906268679+908557909+911358354
1418+912804694+911824684+909532168+907565650+906914999+907473265+908116897
1408+907926600+906938674+905604360+904475280+903985424+903744118+902933194
1398+901709190+900831423+899897791+897929182+895428820+893745207+892945709
1388+891762333+889366678+886715751+885574871+886855635+890434144+895615904
1378+901297827+906199073+909508194+911450440+912954362+914539764+915937560
1368+917023323+918431724+920562099+922613384+923467700+923104958+922369913
1358+921884837+921836740+922164007+922668427+923270234+924095125+925202248
1348+926369119+927425979+928783744+931241835+935062545+939330616+942548024
1338+944057846+944444189+944287949+943341547+941437764+939515609+938870783
1328+939773943+941664955+944203332+947111472+949539316+950665782+950578775
1318+950005049+949611312+949729911+950252852+950760482+951026509+951176625
1308+951306725+951280511+950874376+950098554+949478075+949606532+950192059
1298+950276601+949519599+948237192+946427661+944103030+942134496+941296760
1288+940857466+939438087+936954752+934625118+933298497+932433874+930663403
1278+927319031+923168738+919245934+915628739+912189742+909741882+909039176
1268+909097205+908130564+905994363+903851963+901721288+898608737+894825219
1258+891864277+890213600+889111556+887948120+886652419+885325275+884225322
1248+883576089+883255693+883118497+883333738+884069306+885192262+886305808
1238+886962135+887077075+887181260+888062462+890028607+892503726+894431408
1228+895267501+895386548+895474004+896153782+898020148+901076238+904277515
1218+906279956+906564803+905737971+905162825+906133276+908811836+912074354
1208+914584799+915873182+916550869+917678008+919703974+922120242+924191169
1198+925548187+926168591+926495261+927390579+929521104+932940982+937085749
1188+940922889+943573144+945168554+946657465+948543846+950157181+950476457
1178+949869422+950381085+953432470+957809655+960835572+961257241+960124053
1168+959115289+959036871+960057509+962503203+966438852+970802370+974102230
1158+976112214+977713151+979210053+980208660+980710166+981066934+981377771
1148+981726473+982581461+984491966+987683310+991925464+996280692+999206457
1138+1000026643+1000001250+1000839808+1002627083+1003965802+1003920618
1130+1002940160+1002090176+1002146114+1003279302+1005355158+1008019155
1121+1010667020+1012529203+1012975368+1012181696+1011293772+1011494748
1113+1012702023+1013514964+1013362906+1013948358+1017233805+1022836637
1104+1028172098+1031416617+1033011729+1033757827+1033477312+1032436957
1095+1032353012+1034554487+1038339348+1041921815+1043942031+1043806852
1087+1042251697+1041140167+1041184828+1041282292+1040660020+1039735799
1078+1039053930+1039194710+1040743816+1043247615+1045346175+1046697740
1070+1048450810+1051100467+1053567296+1054775243+1055075625+1055671458
1061+1057203461+1059482982+1061676914+1062560506+1061929945+1061397295
1053+1062537429+1065383207+1069119001+1072392797+1072914169+1069546794
1044+1065280665+1065003287+1069516547+1073741823+1072537909+1066899676
1035+1061809255+1060482932+1062172520+1063643282+1062707560+1060908784
1027+1061556224+1064971621+1067610449+1066987057+1064945481+1064068162
1018+1063706391+1061676690+1058382431+1056803451+1058281681+1060174037
1010+1059127558+1055919335+1054229897+1055451213+1057709448+1059006718
1001+1058524182+1055670487+1050938849+1046816190+1045394495+1046010941
993+1046414163+1045353643+1043606250+1042739088+1043205717+1043907676
984+1043619842+1042005985+1038828159+1034209370+1030109713+1028692724
975+1029166672+1028694292+1026149641+1022679575+1019068430+1014790949
967+1009125382+1002052460+994887826+989449449+985999174+983040472+979550316
957+976163149+973461063+970606472+966787928+963026368+961105407+961121689
947+961435737+961015114+960236901+959136724+956966915+954011947+951889638
937+951600384+952601008+953763472+954415916+954679253+955027582+955343572
927+954845426+953474219+952509519+952975252+954228532+954676042+953339264
917+950580343+947738075+946094045+945958268+946656120+947228577+947100195
907+946455593+945992847+945877684+945240326+943627813+942496940+943534831
897+945711511+946017194+943314362+939337711+935986617+933941680+933373406
887+933889774+934357299+934219506+933909491+933224858+931168644+927752052
877+924313428+922175583+922144067+924510072+928149822+930554962+930408057
867+929173149+929080092+930713517+932905059+933848997+932580331+930394838
857+929894750+931630792+933201482+932670027+930770128+928930424+927703208
847+927575423+928824223+930497305+931402407+931601740+931718397+931883450
837+932200635+932952260+933752205+933620387+932297351+930600594+929475472
827+929578312+931286646+933929357+935768762+936097224+936218512+937409357
817+939507394+941722611+943339307+943925954+943960084+944483772+945675139
807+946711686+946826326+945634884+943205472+940483968+938542321+937263722
797+935788927+934163344+933535322+934634528+936909867+939137108+940554993
787+941247095+941604236+941711035+941507818+941227602+941114082+940970986
777+940621836+940464775+940625869+940178359+938449786+936608739+936449885
767+937998991+939503660+939646755+938966305+938697216+938985274+938937924
757+937935882+936164291+934268723+933247189+933865801+935529622+936583719
747+936195210+935143055+934489864+934559993+935362777+936794106+938311471
737+939147639+939308882+939786340+941170468+942749747+943158645+941552554
727+938473536+935739262+935166207+937539980+942478642+948498662+953579748
717+956338818+956227613+953466825+949744325+947197359+945631972+942971336
707+939460492+937966578+939186773+939915321+936944072+930837120+925012549
697+922282457+922395529+922369240+919753117+915393707+911920803+910284166
687+909064792+906471895+902137580+896816757+891462923+887085738+884403369
677+883398639+883680199+884344593+882759115+875726971+863904861+855471337
667+859324087+870123168+876872632+876618555+872961478+870686588+871427010
657+873694432+875532269+876341625+876660229+876266716+873838424+869224340
647+864822360+863145096+863116417+861000605+855797634+850466653+847972863
637+848421791+850144763+852353707+854998808+856950762+857022684+855827731
627+853428940+847922600+839390119+831111266+825356152+822018950+821280394
617+823791138+827761143+829454390+827601393+824713417+823735722+824951960
607+826516003+826146165+822875805+819004085+817821755+820507858
##END=
