##TITLE=<SNM>
##JCAMP-DX=4.24
##DATA TYPE=INFRARED SPECTRUM
##DATE=2/5/2025
##SAMPLING PROCEDURE=Instrument type and / or accessory
##ORIGIN=Admin
##XUNITS=1/CM
##YUNITS=ABSORBANCE
##RESOLUTION=4
##FIRSTX=4497.3318
##LASTX=599.83466
##DELTAX=-1.4281778
##MAXY=1.7572815
##MINY=0.19429825
##XFACTOR=1
##YFACTOR=1.636596e-09
##NPOINTS=2730
##FIRSTY=0.2112017
##XYDATA=(X++(Y..Y))
4497+129049381+129136498+129810776+130387630+130341541+129663776+128827666
4487+128481022+128944656+130010211+131120936+131638071+131234019+130149189
4477+128837099+127566118+126699151+126866309+128264569+130108126+131250354
4467+131221181+130470531+129783042+129609583+129861162+130205531+130482140
4457+130764576+131019643+130917376+130227155+129289698+128744201+128818334
4447+129154817+129278034+128996582+128464696+128071289+128135834+128542708
4437+128837299+128766936+128461746+128056657+127560363+127125282+126926247
4427+126801291+126559545+126471700+126837255+127286422+127171872+126429034
4417+125487917+124695611+124304689+124563525+125374542+126198569+126581715
4407+126536254+126296001+125945833+125408713+124727169+124221315+124147947
4397+124249914+124070263+123774807+124052163+125038304+125985531+126198369
4387+125745314+125096913+124538004+124038760+123392289+122437023+121265513
4377+120264203+119950928+120559759+121597653+122175537+121999638+121568244
4367+121323648+121259094+121348459+121616164+121770657+121397890+120532681
4357+119671096+119309820+119629313+120409327+121164193+121592573+121892318
4347+122344006+122717929+122491024+121536559+120295315+119390590+119268929
4337+119955599+120930851+121448277+121125342+120180401+119211022+118806242
4327+119144064+119841805+120287202+120146922+119579791+119048197+118906151
4317+119120564+119451366+119792492+120173982+120580036+120920899+121072998
4307+120960515+120727701+120675729+120927910+121370175+121903335+122428118
4297+122635311+122263354+121564293+121126717+121248860+121720061+122105966
4287+122060304+121524759+120759714+120076904+119534567+119041241+118720965
4277+118909856+119664440+120494723+120857537+120786938+120725734+120890461
4267+121154951+121394221+121570867+121580044+121308707+120843325+120456937
4257+120384680+120708180+121420589+122426133+123463335+124266312+124800109
4247+125112928+125110552+124783684+124394373+124144087+123972121+123822499
4237+123713057+123530539+123175172+122832734+122801704+123188702+123914395
4227+124843230+125813538+126577791+126798022+126310314+125416625+124642757
4217+124212328+124069781+124207548+124562287+124853755+124888882+124797077
4207+124873586+125412701+126493424+127669914+128204185+127839840+127026803
4197+126316396+125889328+125720267+125867876+126421286+127259872+128077571
4187+128695954+129125717+129299941+129096900+128687058+128487286+128708946
4177+129225053+129857493+130528184+131136132+131502643+131495997+131169001
4167+130774728+130625407+130871013+131370375+131822191+132041958+132081528
4157+132104609+132155115+132106713+131917866+131800722+131959294+132268663
4147+132385625+132041485+131177487+130112387+129477688+129536953+129791063
4137+129709692+129511978+129687676+130125762+130363766+130431762+130763930
4127+131343070+131533464+130887794+129765014+129006042+129137581+129880201
4117+130392702+130209664+129903191+130372379+131488776+132086208+131513287
4107+130543334+130330187+131061726+132109890+132997643+133686972+134217500
4097+134482200+134290003+133572258+132573242+131721982+131319879+131477850
4087+132201450+133329556+134540526+135596630+136445095+137010614+137123980
4077+136792350+136298496+135831521+135284275+134637995+134187263+134079387
4067+134031650+133822991+133622299+133577885+133557954+133442540+133258565
4057+133020588+132747657+132581710+132710099+133183913+133800392+134172440
4047+134072258+133683330+133325058+133013595+132509571+131746748+131040766
4037+130809245+131148105+131805711+132525077+133173879+133553975+133463335
4027+133065321+132892180+133341975+134307503+135308850+135892196+135937102
4017+135657015+135270509+134753319+134030602+133282538+132855670+132911647
4007+133315543+133873287+134556178+135399125+136208949+136516651+136006381
3997+135015041+134357890+134487772+135048766+135448238+135548046+135565765
3987+135656468+135837302+136054183+136201283+136254164+136368714+136734433
3977+137362540+138018562+138347288+138171808+137671217+137174768+136891285
3967+136981916+137654473+138875932+140144637+140878115+140981175+140768892
3957+140500559+140316803+140413470+140978835+142060879+143435110+144479988
3947+144691988+144497688+144684704+145017864+144507913+143072660+141741831
3937+141404610+142379425+144580197+147138430+148424280+147707910+146404597
3927+146473540+148134132+149758459+149996545+149489972+149738273+150929741
3917+151514799+150035633+147097458+144649896+143840892+144528171+146567849
3907+150571142+156754665+163435584+167755184+168413364+166104725+161636460
3897+156131885+151987502+151390999+154040364+156714785+156688854+155801648
3887+157170908+160180812+162106386+163067124+164638315+165090741+162246930
3878+158709375+158242800+160982432+165036439+169263532+172205731+171921492
3868+169819062+169310240+170428422+170104048+167190475+164106639+163498809
3858+166755348+174756780+186255522+193070267+187181735+175069936+165341109
3848+160769211+161398656+165876828+171866807+177601210+182663137+186116490
3838+185862133+182182049+178362932+176038796+174010791+171455062+169638456
3828+169667993+171180420+174468917+180873737+188739432+192405749+190541852
3818+187604370+184607632+179250412+172740903+169023980+170166362+175388101
3808+181263630+184459130+186444214+190471999+194926078+195238197+192141013
3798+189530872+187685240+185316417+183257237+183094312+185003498+188346898
3788+192677077+197484740+202030288+206455250+212020446+218995164+225537742
3778+230433923+235467152+243209037+254836924+269994191+286176677+299405364
3768+308257546+314441315+319250416+323764589+329917219+338000395+345291912
3758+350059385+355238366+365245860+381793929+401990469+418520437+427734087
3748+435268852+446988554+461742106+472177715+476560667+481675877+492730333
3738+510330099+530308849+545112150+551013301+551536910+551390101+552513400
3728+555073609+558331040+560951014+562134988+561573175+558745462+554122831
3718+549829218+548000611+549507011+553719663+557999947+558809852+555352767
3708+550044277+546137042+545910874+548726605+551165573+551118991+550013211
3698+549650359+550967303+555220490+563319582+574336343+584748826+589302624
3688+586337972+580368679+575894241+574324944+575633365+579750743+587011594
3678+596643890+603212071+600306456+592423408+587738244+585684927+580851315
3668+572791266+565345584+560073987+556570029+554554261+554434440+556786728
3658+560604952+562957677+563251914+565865113+574919644+588065294+594808182
3648+588121381+575380574+565741759+561451751+560611909+560702412+560902794
3638+562385339+565948260+570222753+573800388+577957209+584253479+589393346
3628+587722437+581447218+577633472+579891906+587331215+595695880+600459238
3618+601572084+602533387+604655501+606487203+607384698+608580837+610834754
3608+613407820+615751731+618490215+622206865+626438929+630138316+632689238
3598+634335927+635751859+637177552+638416265+640311411+644846051+651922290
3588+656769413+654644385+647844792+641530749+637608618+636012334+636871115
3578+639854632+643506236+646305396+647877497+648914080+650040401+651037068
3568+651299801+650789267+649959914+648792802+646878135+644535826+643240371
3558+644348701+647150265+648911385+647659997+644405807+641600383+640363054
3548+640219924+640091362+638800568+636065798+633197077+631678659+631640199
3538+632492643+633969470+635727895+637004193+637510721+637670240+637432637
3528+636092166+633865309+632216580+631889457+631896668+631001103+629158402
3518+626978599+624725737+622534571+621051116+621029119+622210288+623485349
3508+624699806+626702755+628612832+627503919+622642155+617356901+615027048
3498+615889689+617808945+618513888+617663411+616905222+617357120+618183268
3488+618226098+617422675+615991665+614050849+612430747+612216234+613447809
3478+615259552+616533375+615760326+612185350+607588213+604998977+605712188
3468+608238198+610110290+610346655+609824539+609679916+609699765+608212959
3458+604172428+599083221+595632947+594917442+596027010+597785107+599737395
3448+601612983+602746079+602219884+599979442+597668964+596965441+597253486
3438+596390663+593769560+591091168+590099673+590920978+592382654+593027759
3428+591934325+589453038+587016984+585773646+585566671+585443536+585013890
3418+584647798+584231700+582897713+580622125+578840683+578585124+579164055
3408+579355296+578925905+578353785+577906257+577634347+577607578+577670766
3398+577435312+576769192+575922430+574982760+573751331+572620420+572748363
3388+574509156+576498847+576966224+575610675+573253325+570860356+569603105
3378+570361549+572267402+572902165+570996931+568166486+567053859+568509125
3368+571210752+573403266+574401644+574352587+573212061+570988955+568627635
3358+567415253+567429238+567493083+566919761+566352557+566640019+567683376
3348+568630621+568885379+568681536+568406675+567694339+566110948+564539539
3338+564494742+566117066+568009735+568937605+568801576+568131778+567449961
3328+566981092+566554178+565861362+564809956+563511260+562316796+561904742
3318+562491576+562979784+562137647+560554474+559896185+560380023+560703723
3308+560390731+560453846+561605844+563183262+564036398+563604276+561969933
3298+559691687+557930239+558059858+560436183+563630644+565579290+565775994
3288+565593567+566181457+566972205+566655571+565013507+563319800+563057322
3278+564518160+566569547+567689313+567301987+566109236+565199358+564989725
3268+565168255+565326281+565306979+565058777+564544346+563885947+563222013
3258+562354564+561096402+560036766+560153164+561423999+562582407+562591949
3248+561698532+560708968+559938651+559201548+558285843+557113378+555808453
3238+554733301+554216540+554223969+554428248+554637444+555048443+555772980
3228+556141731+555131189+552836007+550712254+549838760+549814395+549790066
3218+549750551+550278639+551588990+553008310+553247698+551588662+548869226
3208+546681993+545725461+545476167+545058795+543971661+542338775+540791549
3198+539849002+539474278+539427843+539475371+539052572+537540892+535156554
3188+532989862+531968394+532181159+533190172+534388969+534933009+534045092
3178+531861938+529543812+528165575+527807676+527799045+527487254+526659976
3168+525393256+523815255+522165398+520741344+519557005+518424383+517537012
3158+517326760+517523901+517181154+515871531+514030615+512105350+510340843
3148+509238631+509197623+509766064+509976935+509273849+507688237+505531815
3138+503365341+501824307+501050056+500735498+500747079+501081814+501388288
3128+501162229+500242664+498787179+497184194+496214442+496492508+497445944
3118+497636056+496355350+494301778+492494988+491229797+490296028+489474613
3108+488517389+487287235+486185788+485817328+486136876+486539207+486720614
3098+486780197+486555413+485660868+484264602+483142761+482837234+483168473
3088+483549024+483469119+482762792+481709456+480817860+480357477+480227458
3078+480211251+480074458+479564980+478626840+477530747+476621561+475997033
3068+475504854+475052301+474806721+474849369+474759412+474040410+472820016
3058+471470368+469909994+468177609+467083847+467187790+467741590+467649521
3048+466949567+466431348+466270300+465946709+465187391+464283995+463598901
3038+463169000+462803927+462361754+461788104+460954890+459770333+458468868
3028+457387343+456499098+455603424+454764346+454065849+453288466+452321336
3018+451442816+450830743+450291874+449683844+449163149+448851431+448546670
3008+447983691+447252161+446657825+446154830+445337458+444058028+442593948
2998+441256828+440305359+439998302+440201817+440229387+439558532+438437856
2988+437455684+436774487+436087098+435202459+434379988+433991534+434006393
2978+433940109+433305274+432069401+430621492+429384636+428639631+428473046
2968+428512853+428058515+426915732+425666092+424744633+423857408+422692773
2958+421601851+421160369+421442332+421966633+422178342+421853039+421097399
2948+420119343+419062074+417973993+416939887+416209268+415979385+416033578
2938+415876426+415247673+414268998+413237587+412527581+412411183+412708551
2928+412843742+412391808+411385162+410101324+408807253+407701399+406853872
2918+406135999+405354465+404518446+403881681+403609406+403466349+403062634
2908+402416108+401916391+401659813+401288804+400631607+400003218+399715246
2898+399694304+399631516+399225690+398346040+397155911+396023034+395241499
2888+394801365+394376163+393650788+392731331+392049842+391834200+391834601
2878+391539490+390647349+389431361+388479273+387995944+387696573+387363404
2868+387013591+386618908+386151969+385750294+385480058+385162295+384605253
2858+383784494+382806219+381880134+381216491+380819660+380478879+379999958
2848+379361918+378645502+377918561+377245376+376714956+376371845+376152706
2838+375911934+375464225+374680031+373672548+372812784+372383357+372239535
2828+371941401+371210673+370167971+369158303+368423277+367875412+367175495
2818+366202428+365380358+365205579+365515440+365615485+365060883+363978630
2808+362751971+361659338+360740355+359935658+359324313+359020899+358877951
2798+358621155+358256446+358025070+357950155+357681594+356902391+355753853
2788+354657614+353805680+353105690+352491323+351943531+351352036+350636786
2778+349837915+348968973+348010547+347066508+346343099+345967938+345826119
2768+345566263+344956448+344227796+343752115+343428051+342770308+341616708
2758+340406803+339669118+339452893+339391016+339141503+338561298+337648288
2748+336610211+335809302+335362867+335000197+334487041+333907929+333384028
2738+332804115+332004224+331049477+330185160+329555861+329081273+328603845
2728+328045164+327390844+326649845+325878363+325149309+324458642+323744157
2718+323045150+322535854+322273085+322030419+321572184+320938842+320261323
2708+319539080+318813414+318265367+317975064+317853021+317824942+317798829
2698+317533073+316831043+315789252+314679174+313709931+312995300+312580987
2688+312389892+312232631+311956313+311562833+311156205+310817573+310549595
2678+310287081+309932679+309434163+308847839+308299793+307874955+307548014
2668+307218013+306822529+306402098+306024315+305686812+305324852+304856456
2658+304227193+303495700+302810751+302214211+301591340+300929026+300455368
2648+300353410+300448102+300358436+299948184+299453001+299102624+298816527
2638+298403781+297874527+297379180+296990070+296677478+296376504+296013470
2628+295565797+295097128+294661182+294225745+293750666+293281123+292906125
2618+292642190+292399361+292083746+291707765+291343494+290980551+290518456
2608+289960029+289540199+289510007+289772813+289914541+289672968+289199546
2598+288773724+288444980+288052374+287481310+286827555+286323503+286096007
2588+286023258+285900851+285725125+285690744+285864959+286004210+285840248
2578+285439520+285066635+284797255+284510831+284148143+283739967+283298813
2568+282849301+282464069+282203540+282084775+282074595+282088253+282093115
2558+282185421+282434169+282711834+282819673+282717297+282515021+282288635
2548+282008020+281645532+281278293+281033733+280942082+280861722+280585040
2538+280059210+279450342+278925386+278494083+278163572+278054094+278198226
2528+278394638+278417055+278258119+278076019+277978996+277938825+277890496
2518+277835320+277816145+277847721+277905009+277930777+277852346+277653785
2508+277413814+277220570+277066806+276865932+276579508+276302789+276159149
2498+276116957+276005130+275710638+275279172+274838309+274484053+274220937
2488+273991893+273770314+273583644+273458432+273389799+273338556+273242444
2478+273074876+272855720+272562612+272123042+271547954+270986050+270597559
2468+270414695+270351816+270332622+270333387+270285532+270078630+269727615
2458+269390731+269179350+269082073+269043905+268994337+268860968+268634345
2448+268366331+268107913+267906457+267804172+267767151+267666122+267403462
2438+267056107+266821363+266793356+266867070+266885480+266788330+266607396
2428+266420981+266319460+266352875+266493274+266611639+266516310+266149215
2418+265730569+265552585+265676886+265959796+266265887+266527090+266705620
2408+266812385+266897298+266959977+266931788+266806977+266723630+266817247
2398+267051737+267288885+267454595+267575528+267754568+268154695+268944242
2388+270293690+272437528+275602471+279830201+284994378+291027496+298054077
2378+306270768+315712042+326147979+337208372+348525051+359679808+370108971
2368+379152139+386195964+390885098+393214040+393351781+391682875+388811677
2358+384714913+378395370+369391791+359147859+350316218+345013300+343965208
2348+346996472+353544623+362305536+370881000+376935879+379746220+380051492
2338+378847632+376632575+373699098+370618230+367899194+365401555+362581635
2328+359198009+355333932+350957426+345992594+340677002+335410686+330361833
2318+325482915+320743158+316189980+311910424+307965276+304295645+300749185
2308+297224158+293723333+290294000+287016938+284040195+281506627+279399190
2298+277525350+275709691+273963157+272406171+271067922+269843394+268643686
2288+267510482+266553822+265832872+265322484+264945483+264607980+264240121
2278+263827994+263392430+262937109+262452597+261990665+261674813+261549383
2268+261470844+261289145+261077363+261004378+261052634+261072410+261047007
2258+261087688+261199315+261240379+261112509+260847317+260518045+260201920
2248+260001483+259950878+259946398+259904534+259899180+260021278+260232531
2238+260456295+260674996+260882353+261069497+261278911+261578009+261987824
2228+262487414+263033057+263545867+263983124+264455381+265135796+266002625
2218+266827554+267472223+268051845+268791533+269839552+271176581+272623160
2208+274014509+275366143+276758876+278158182+279488710+280776663+282103676
2198+283506188+284981594+286527418+288108861+289605773+290891978+292011198
2188+293161975+294449527+295757584+296888167+297747767+298409790+299030804
2178+299659611+300153465+300349622+300266585+300055386+299792872+299416782
2168+298864765+298162116+297347877+296446885+295507598+294517833+293346806
2158+291892287+290180716+288301449+286376239+284532282+282829215+281287525
2148+279878804+278476201+277221262+276919833+278434209+281670025+285734120
2138+289979915+294351540+298920306+303657240+308547193+313583918+318716755
2128+323897630+329133864+334507291+340140100+346068748+352187727+358387485
2118+364659099+371022528+377523405+384397586+392135720+401411138+413068380
2108+428007127+446848774+469751531+496395886+525746529+555946339+584836453
2098+610465493+631449286+647838601+661081310+672165266+680674336+685829644
2088+687245213+684794373+678255036+666860199+649917448+628028439+602604733
2078+574926418+546412631+518428061+491665852+466667422+444247812+424836593
2068+408261100+394210853+382220260+371651499+362227452+354058981+347137308
2058+341351098+336674456+332961740+329971375+327630123+325954189+325005706
2048+325079674+326570668+329794120+335199269+343408858+355018353+370730768
2038+391332662+417009048+446958580+479769514+513613753+546298928+576036570
2028+602030829+624125975+642551525+657740367+669927118+679431908+686839859
2018+692120598+694566412+694137895+691695068+687663896+681429612+672195786
2008+659901159+645034633+628017003+609204891+589145144+568380307+547214160
1998+525976339+505362936+486142922+468445223+451687703+435441774+420001124
1988+405881679+393275080+382135401+372331131+363614249+355722823+348546612
1978+342084995+336288260+331005409+326118989+321759237+318258338+315696053
1968+313539450+310998507+307858056+304683353+302072702+300047173+298304318
1958+296718104+295334950+294113026+292911370+291665318+290503833+289679050
1948+289371885+289656124+290504397+291423581+291358753+289777347+287512613
1938+285726399+284709902+284147379+283833876+283752842+283848317+283989061
1928+284176769+284741951+285911376+287143534+287725687+287988439+288601094
1918+288972686+288006394+286153696+284965970+285160252+286184252+287029503
1908+287089432+286527473+285942060+285723085+285848770+286152476+286610128
1898+287361306+288342058+289102177+289542657+290381244+291916815+292993023
1888+292465791+290977401+289871074+289491214+289436585+289469745+289637276
1878+289989275+290435254+290892488+291796320+294132966+298199028+302177336
1868+303045605+300157853+296106323+293382170+292435726+292480723+292749392
1858+292903940+292915449+292906581+293019227+293428714+294368493+296060270
1848+298820715+302799934+306678999+307515928+304426265+300396094+298242768
1838+298113550+298664547+299201595+300630620+304080276+308617192+311382445
1828+311286552+310150797+309026479+307154497+304622677+302885594+302650758
1818+303256840+303954991+304894897+306640175+308995595+310722298+310835455
1808+309874407+309273588+310097916+312599562+316048780+318796806+319526151
1798+318888111+319119924+321945925+326722029+329872933+328205411+323652889
1788+320544488+320493937+322230546+324188807+326043454+327674555+328538071
1778+329019615+330915379+335739958+342713675+348045037+348255835+344554773
1768+340208169+337192274+336742489+339168854+342587917+344374786+344661666
1758+345161893+345895317+346619162+349015773+354556804+361463945+365589663
1748+365320994+363000537+361378031+361667824+363701365+366140951+367495771
1738+368635823+372495712+379605348+384739642+382758910+376926010+371802314
1728+368421783+366988661+367580520+369520681+372775963+378985846+389257894
1718+400627091+406044986+402838106+396156112+391089632+389602717+392018594
1708+397657850+404446881+410000514+414887845+422134893+431972597+439406989
1698+441131362+438965398+433775928+427257350+423647921+424876327+429545940
1688+436445287+446717991+459782351+467679458+464567196+457566165+454056343
1678+455686571+461048416+467094118+471725344+476360976+482418988+487059319
1668+486948603+485217165+487168870+493439537+499897913+502870395+504095123
1658+507987827+517665101+533881931+551035808+555615500+549666421+547634154
1648+551873357+554812150+549959237+541729980+536830813+537114597+542322241
1638+551539131+561017626+563561847+557936285+551992086+550940607+554316986
1628+559355204+564402381+569850287+575242106+578484168+580019230+583398268
1618+590041947+596070677+596931716+595027648+595007617+597659058+601023892
1608+603318235+604458579+605334076+606412469+607397992+608057155+608945764
1598+610893900+613967520+617321355+620089704+622155586+623866228+625352159
1588+626510166+627420372+628389505+629694576+631631604+634863942+640354313
1578+648169293+655388007+657606634+656466545+657790408+663139616+668802836
1568+671290679+672458737+675612918+682109061+693585697+713146455+739666108
1558+758471008+761553369+761976204+767401966+776507230+786016755+793881120
1548+800227723+807046109+815738808+825590825+834942288+839974278+834411140
1538+821887724+813131800+810723789+810159208+806602223+801247188+798723436
1528+800651141+805190224+810256522+815418022+819614176+820491312+818533452
1518+816273088+813567673+809458344+805701997+805294822+810070052+820380378
1508+833142417+837838179+827593701+813737827+806332133+806062772+810271891
1498+814953814+815970876+813165233+811125501+813424688+819028908+823037281
1488+821480040+815912604+810475187+807567278+807243869+808357006+810248000
1478+813507434+818926787+826096479+832376652+833351103+827987254+821435243
1468+818587572+819909177+822367082+822914838+822773237+825869073+833866444
1458+842873010+844172180+836421081+828054995+823782068+823525818+825814881
1448+828092872+827836840+825336469+823143919+822998021+825235076+829694619
1438+834898074+837043278+834166690+830030847+828330402+828439079+827837277
1428+826042578+824742461+824564294+824631234+825139874+827455888+830555148
1418+830279012+825363492+819323327+814829185+811780986+809221323+807086462
1408+806143114+806533463+807101540+807001750+807271985+809365473+813117596
1398+817018530+819592470+819784912+817342449+813912351+811940214+812019318
1388+812289262+810794808+808698042+809099899+812953852+818494483+824006560
1378+829581863+835732526+841307829+844062047+843783944+843028013+843828814
1368+846003154+848880107+852484292+856069174+857476730+855682614+852375178
1358+849732405+848501995+848203207+847915344+846973962+845355244+843563677
1348+842258752+841970307+842996328+845390863+848814551+852238603+854193987
1338+853907872+852016515+849900155+848847766+849681490+852306271+855607589
1328+858369673+860344214+862198205+864645548+867777805+871027916+873767201
1318+875940740+877951774+880172149+882848938+885941132+888688940+890121480
1308+890462734+891280434+893741835+897208645+899955797+901082191+901201867
1298+901208568+901098799+900346655+898806240+896808172+894758533+892883346
1288+891078740+889031651+886739747+884711160+883341553+882289383+880827852
1278+878767871+876789178+875873946+876503355+878237087+880051963+881274287
1268+882115587+883121504+884352424+885425863+886067291+886215592+885868147
1258+885179665+884485502+883984437+883515713+882849011+882189301+882070135
1248+882621241+883379576+884019036+884580922+884653616+883379284+880960057
1238+878974371+878492172+879019751+879766067+880685451+881919357+883547763
1228+885943463+889085115+891659273+892090776+890474898+888677140+888600148
1218+890571775+893230063+895089736+896188014+897742123+900399391+903431566
1208+905715093+907170869+908773489+911075591+913447982+915241006+916893814
1198+919178360+922191305+925643546+929059514+931456161+932217846+932529018
1188+934454465+938287367+941967669+943621351+943836957+944633241+946989754
1178+950288886+953527124+956091157+957581386+957926865+957843391+958419189
1168+960041113+962216691+964663306+967566190+970563401+972853557+974546718
1158+976632048+979606897+983094320+986159345+987456694+986464252+984835555
1148+984731540+986294681+988488397+991225862+994770027+998210541+1000608426
1138+1002619023+1004995421+1006603577+1006022025+1004274088+1004009170
1130+1006665637+1011210548+1015154822+1016699681+1015825458+1013806266
1121+1012257110+1012109391+1013283786+1015482601+1018763086+1022616019
1113+1025207367+1024778705+1021820099+1019054882+1019273037+1023411211
1104+1029870642+1035145189+1036155550+1032955334+1028580504+1026108686
1095+1026526568+1028988480+1032134867+1034985597+1037188345+1038987269
1087+1040815620+1042496617+1043439746+1043858065+1044921453+1047379577
1078+1049845131+1049631346+1046257553+1042549790+1041618388+1043792655
1070+1047001175+1049336272+1050265708+1050712288+1052843289+1058158481
1061+1064779107+1068296103+1066855987+1062427474+1057762524+1055047858
1053+1055343442+1057834926+1060860909+1064467498+1069454838+1073469038
1044+1072787185+1068267331+1064326407+1062938227+1062612269+1061893195
1035+1060826675+1059536464+1057782336+1056190932+1056634235+1060541652
1027+1066885852+1072299158+1073741823+1071313199+1067657371+1065152993
1018+1064623812+1065869227+1067679222+1067571565+1063861253+1058278375
1010+1054425588+1054201023+1057008850+1060608884+1062055336+1060098277
1001+1056771101+1054632671+1053562072+1052055017+1050041653+1048263488
993+1046494064+1044667607+1044237779+1046194984+1048644513+1048121305
984+1043419934+1036931803+1032076741+1030333903+1030526346+1030534504
975+1029758105+1029137219+1028736673+1027147964+1023752611+1019565999
967+1015690048+1012600476+1010462046+1008709084+1005810498+1000852658+994867414
957+989860407+987233513+986919647+987265708+986210916+983163154+979399959
947+976597594+975257270+974446854+973109734+971390716+970081056+969167646
937+967920920+966211880+964823554+964621351+965832603+967673702+968590099
927+967714783+965940625+964639852+964062597+963967468+964613848+965889710
917+966633768+965841198+963566995+960556600+958019809+957172755+957901590
907+958469157+957522604+955783190+954935700+955682234+957172245+957752122
897+956554491+954494873+953267304+953529965+954166293+953440590+950980572
887+948182432+946744065+947229251+948714090+949445401+948539129+947237919
877+947485210+949396671+951012403+950567061+948088178+944833113+942147729
867+940780672+940469282+940062836+939012632+938632919+940564265+944170709
857+946607418+946118226+944384785+944515022+947362985+950488904+950862135
847+948445384+945477818+942976792+940225051+937020319+934490156+933643758
837+934354310+935419956+935425710+934418409+934152180+935970770+939310474
827+942818001+945783454+947734977+948102673+947147743+946457878+947776788
817+951331150+955692651+958633775+958293978+955074824+952085552+952413404
807+955814293+958683525+958240950+955650403+953827224+953541910+953190021
797+951784724+950298792+950219979+952369627+956379238+960142214+961199921
787+959571223+957802673+958011141+960103755+962577321+964052181+964109214
777+963245480+962436959+962548768+963571511+964582600+964833169+964210753
767+962483066+959488477+956424326+955389054+957222941+960587120+963034536
757+962955651+961207205+960521928+962302933+964954010+966501710+967239868
747+968288251+969279892+969105222+967711068+965919428+964061431+961693629
737+958840786+957058105+958097602+961289514+963684704+963668315+962765320
727+963060394+964434444+965176754+964534234+963215616+961834574+960273326
717+958314154+956152561+954636182+955032431+957490409+960040311+959993330
707+955731110+947762147+939262254+934751432+936609721+942882537+949310065
697+952979660+953339780+951247603+948106970+944488217+939529358+932699172
687+926271061+923911344+925629488+926420310+921894702+914071636+908843853
677+908987201+911896641+913030829+910061078+903778137+897488131+897140321
667+904778519+911778786+912213129+909338945+907359014+905485720+901093190
657+896041023+894621376+897150883+899410227+897803746+893835143+891909041
647+893072001+894189800+893290229+891687317+889873315+886414955+881590703
637+877324696+874090391+871035637+868240483+866660005+866935485+868873024
627+870867595+871298952+870817263+870666557+870392243+869899846+870879978
617+873547079+874954417+872837401+867915690+862368577+858972495+859455350
607+862717042+864987240+861513438+852494854+844447005+842846933
##END=
