##TITLE=<SNM>
##JCAMP-DX=4.24
##DATA TYPE=INFRARED SPECTRUM
##DATE=3/5/2025
##SAMPLING PROCEDURE=Instrument type and / or accessory
##ORIGIN=Admin
##XUNITS=1/CM
##YUNITS=ABSORBANCE
##RESOLUTION=4
##FIRSTX=4497.3318
##LASTX=599.83466
##DELTAX=-1.4281778
##MAXY=1.7134073
##MINY=0.18039192
##XFACTOR=1
##YFACTOR=1.5957349e-09
##NPOINTS=2730
##FIRSTY=0.20144376
##XYDATA=(X++(Y..Y))
4497+126238866+127121738+128592763+129636961+129510859+128225383+126396111
4487+124718620+123668129+123557397+124366676+125496168+126222179+126420941
4477+126455249+126549134+126697956+126965288+127415376+127893917+128212076
4467+128336618+128193400+127661444+126995114+126724598+126848412+126780496
4457+126308939+125844228+125594891+125278459+124779094+124418073+124428242
4447+124638882+124754796+124572320+123962756+123084991+122568444+122953576
4437+123921322+124629441+124631496+123998801+122984691+121995476+121529821
4427+121682649+121872689+121472560+120648928+120091891+119925037+119643885
4417+119249873+119384724+120068947+120427643+119941799+118991515+118156426
4407+117824708+118229002+119148125+119860502+119901449+119543865+119214780
4397+118909750+118499928+118183170+118250367+118693480+119318218+119919873
4387+120174272+119742449+118668519+117411729+116371295+115505035+114513028
4377+113471763+113046299+113667359+114743726+115298934+115202807+115156322
4367+115688174+116711203+117739787+118140121+117526728+116232932+115112442
4357+114704534+114924802+115540763+116407265+117251777+117782051+118006549
4347+118082767+118015009+117779801+117509191+117343440+117264505+117158872
4337+116986976+116865982+116938614+117177016+117364264+117240142+116747322
4327+116288765+116499246+117411524+118141625+117853404+116820701+116076061
4317+116158797+116646228+116843272+116551287+116094700+115940042+116367037
4307+117213192+117958177+118324148+118617822+119209906+120006690+120711989
4297+121204229+121418371+121238192+120759716+120414261+120569311+121058405
4287+121281679+120877684+120148013+119636630+119468450+119394810+119376245
4277+119719757+120572122+121582058+122188971+122097158+121454378+120718871
4267+120332189+120427951+120837521+121270735+121474353+121451269+121537357
4257+121980339+122542465+122837989+122896520+123118618+123822488+124874632
4247+125617592+125456145+124717593+124357319+124660472+124967715+124729854
4237+124021651+123095413+122212120+121735792+121802223+122171966+122690381
4227+123409724+124132439+124435675+124296902+124244963+124784454+125858851
4217+126873438+127248653+126939300+126354407+125898295+125749913+125833330
4207+125829698+125568212+125407073+125767917+126435396+126837579+126817334
4197+126665842+126604435+126633570+126745375+126989090+127339373+127605808
4187+127591287+127424620+127546595+128120114+128668234+128679299+128393758
4177+128539564+129370301+130324601+130626876+130076861+129261540+128933473
4167+129190001+129513417+129631769+129813591+130189226+130475654+130576151
4157+130748934+130967960+130826235+130260635+129754892+129706063+130034092
4147+130425088+130672465+130779199+130844753+130925938+131073966+131383123
4137+131818933+132170112+132391239+132740802+133349320+133919412+134096584
4127+133923923+133679675+133448444+133183139+133079374+133450377+134209641
4117+134905294+135335902+135766063+136477123+137360845+137992980+137959129
4107+137127047+135736816+134342373+133608855+133891744+134863375+135719027
4097+135898925+135565648+135302724+135402371+135593382+135500729+135239337
4087+135362544+136194850+137383845+138224789+138352273+137939173+137294423
4077+136680358+136458587+136817609+137373526+137546534+137242419+136774197
4067+136364785+136099536+136075677+136330599+136805330+137416986+138042005
4057+138527101+138812119+138945608+138986864+139025029+139207047+139573503
4047+139968459+140210054+140206198+139888702+139271200+138596166+138188725
4037+138149487+138362144+138713854+139119166+139469551+139746594+140050186
4027+140410796+140757548+141139720+141728031+142480104+143055949+143219347
4017+143114676+142967386+142760089+142417539+142048581+141802204+141699139
4007+141731850+141945310+142387517+143099035+144056519+145006383+145482020
3997+145174413+144300860+143520053+143401478+143939522+144603014+144922134
3987+144967583+145078109+145243674+145118562+144630944+144221206+144425795
3977+145431725+146912498+148111307+148366313+147743927+146863464+146123287
3967+145557668+145324897+145682295+146474979+147189924+147530476+147589400
3957+147571480+147616770+147773127+148081509+148743731+149889752+151050144
3947+151471340+151123028+150597348+150068147+149274286+148395251+148033857
3937+148484365+149658279+151407495+153341326+154554366+154369611+153364895
3927+152794626+153059670+153375643+153084098+152670653+152913360+153701478
3917+154133264+153497823+152029937+150684276+150281570+150986822+152605137
3907+155157086+158719307+162717422+165970935+167597878+167089959+164103591
3897+159554041+155890464+155150950+157052173+158933169+158686530+157836967
3887+158894079+161399926+162997267+163457057+164072850+164047861+162160814
3878+160095484+160022852+161701454+163927418+166324327+168190456+168293157
3868+167426916+167489705+168164347+167465445+164973101+162513534+162023974
3858+164592180+170612484+178555656+182536066+178212760+170543027+164667446
3848+161919536+162298253+165221906+169425161+173725271+177710425+180740234
3838+181281041+179049306+175990045+173664162+172165189+171411042+171658596
3828+172558492+173396961+174879780+178496471+183142296+185055322+183798841
3818+182466646+181250506+178139661+173892087+171255077+171754106+175171820
3808+179395918+181881893+183282387+185835298+188550897+188607468+186966816
3798+186173020+185496455+183293854+180589106+179463563+180246154+181989935
3788+184174738+186665979+188848653+190445882+192451728+195612532+198943850
3778+201318981+203402334+206536842+211400787+217907663+224904622+230721504
3768+235139442+239215736+243550734+248740897+255936067+265160148+274304388
3758+281678010+288833473+298776833+312873656+329205726+342629981+350390667
3748+356286643+364592899+375177320+384159208+390306902+396797119+406369624
3738+419854875+436034846+451568321+462954849+469124992+471566611+472721139
3728+474490787+477412871+480817698+484093921+487360171+490846576+494663438
3718+499132662+505050489+513586089+524840016+535812230+542608251+545958357
3708+549246907+553878501+560070906+567822292+575708407+581505436+585082571
3698+588020305+591127845+594729968+600229858+609004888+618779470+623169357
3688+619511840+612707489+607487219+605602264+606994914+610091546+613680185
3678+617851298+621152809+620872665+619004705+619511690+622293553+624312790
3668+624025139+622753586+622160765+622976095+625312268+629574895+636115238
3658+643303722+647201527+646220726+644662157+647900168+657111811+666769890
3648+668926846+664450003+659589923+657112558+656713857+657683677+659879480
3638+663159923+666811501+670466291+675002077+680944482+686386289+688126316
3628+685846471+683290441+682861485+684210433+687306504+692790744+699578062
3618+704689374+706395411+704593080+700379945+697315249+699546088+706953158
3608+714535188+718296133+719040269+718593235+716653745+713413717+711704991
3598+714508891+721163683+726516890+726370543+723025330+721399900+722540346
3588+723403860+721457946+718070674+716222324+716724267+717986930+718083299
3578+716402662+714195803+714175409+718352386+725254302+730688638+732338721
3568+731862104+731625737+731733462+731202235+729669513+727453242+725414021
3558+724401993+724453240+725263864+726583452+727730995+727870992+726683333
3548+724575607+722583824+721802784+722700065+724676235+726725989+728618863
3538+730380630+730967437+729540349+727401247+726488353+727027722+727746309
3528+727608479+726656663+725396092+724259456+723360755+722619533+722371737
3518+722993954+723863071+723726137+722223447+720186169+718615198+718057451
3508+718400048+719482971+721710971+725186245+728360160+728764164+725855303
3498+721896464+719794341+720922759+724490593+728126034+729631414+728735926
3488+727134775+727182063+730157411+734645610+736898188+734646880+729850673
3478+725735177+723480507+723284855+725261847+727512856+726891610+723914693
3468+723291952+728383916+736671533+741458701+739174373+733320195+729720612
3458+730385635+733105493+735139260+735477300+734421420+732709183+730630070
3448+727857769+724910435+723833488+725623045+728108927+728423734+726674368
3438+725368675+726127080+728408344+730775894+732396169+733115578+732687593
3428+731051107+729362625+729435463+731651137+734422242+736027203+736622153
3418+737943385+740907080+743945778+744217854+740843282+736218074+733586070
3408+733748329+734262000+732149792+727357321+722976174+722309731+726112139
3398+732237571+737261852+738435765+735061119+729188712+724334534+722345590
3388+722324224+722687963+722943005+723279626+723778804+724368152+724727632
3378+724458993+723887873+724142393+725949058+728522419+730265808+730317579
3368+729026154+727695286+727573293+728698797+729699171+729500680+728816607
3358+728484842+728083154+727592940+727786575+728045652+726961160+725299423
3348+724995374+725940691+727025780+728753033+731904611+735229653+736777241
3338+736526680+735946597+735554769+734601160+732957726+731608107+731174295
3328+731353363+731625214+731607061+731277687+731574788+734087265+739050288
3318+744229956+746880263+746294726+743280008+738414400+732551630+727749970
3308+726200888+728535567+733464973+738847763+742694171+743661302+741967591
3298+739617747+738704404+739378094+740123724+739888104+739243550+739281650
3288+739935990+740294200+740254906+740431956+740569339+739893857+738902746
3278+738715087+738979543+738479692+737335063+736566946+736019733+734705075
3268+733101533+733235554+735601534+737601162+736733763+733944056+731846416
3258+731394077+731821539+732281198+732287474+731412753+729590774+727975355
3248+728620656+731976776+735330580+735604971+733149494+730862028+730750046
3238+732416489+733938154+734363673+734988356+736992765+739157415+739702836
3228+739036916+738677585+738737947+737985369+735871817+733983948+734860611
3218+738629027+741747884+740764767+736352543+731589281+728146504+726092491
3208+725546697+726522642+728076879+729234880+730298529+731866063+733150092
3198+732901847+731309735+729846265+729923137+731727485+733702535+733527875
3188+730482229+726619012+724659650+725148968+726620655+727562684+726918728
3178+723945322+719292548+715433888+714634321+716882417+720138432+722008297
3168+721301215+718768642+716323251+715337444+715756315+716262142+715358287
3158+712795683+709744583+707460779+706287836+706133272+706949348+708236664
3148+708967577+708567383+707323994+705665320+703762435+702006720+701100997
3138+701245700+701812039+702268112+703006870+704398697+705220751+703679588
3128+700148285+697027187+695857382+696258772+697263404+698071935+697901832
3118+696581422+695087548+694523451+694826080+695013291+694333625+693030397
3108+692201322+692564014+693439482+693677417+693212005+692700949+691904743
3098+689980419+687441571+686030693+686241361+686455914+685131320+682714541
3088+680833395+680445303+681173826+682090231+682589559+682455987+681671734
3078+680526881+679517617+678777515+678073944+677342882+676507381+675166876
3068+673464201+672632735+673479963+674830031+674572449+672154399+669113982
3058+667185997+666837648+667664258+669153501+670574837+670959344+669866261
3048+667822931+665668889+663759729+662172548+661266526+661492359+662616669
3038+663636914+663940216+664069381+664833538+665965393+666082829+664259505
3028+661339662+658992284+657694584+656465015+654523733+652224987+650377010
3018+649655659+650255914+651477414+652092460+651512824+650243288+648978758
3008+647825538+646545394+644944691+642947902+640915330+639720798+639711983
2998+639926984+639366622+638645121+638896429+639586628+639061527+636976586
2988+634699206+633349811+632752022+632423992+632384025+632640114+632783995
2978+632389180+631359148+629970906+628903895+628731401+628971652+628291837
2968+626228225+623935269+622713358+622603803+622856903+622943785+622453272
2958+620941692+618674659+616717651+615809649+615832584+616352493+616775398
2948+616291571+614712682+612964586+611977622+611618291+611059685+609824513
2938+608410610+607817191+608183656+608302848+607056396+604740281+602384199
2928+600693141+600066254+600540220+601332914+601243679+599810763+597673753
2918+595741547+594367163+593360365+592491210+591642300+590536107+588877619
2908+587020753+585924271+585994457+586391364+586082758+585203705+584500843
2898+583847250+582470699+580345829+578331970+577287072+577518620+578468120
2888+578850161+577870817+576081558+574372571+572850345+571317998+569990491
2878+569168064+568802607+568663395+568473756+567883027+566704108+565109494
2868+563416082+561822700+560428855+559445439+559224313+559784413+560391241
2858+560117522+558838984+557193496+555702945+554461424+553473974+552746236
2848+552130331+551468258+550836964+550353660+549792626+548776788+547393029
2838+546197824+545481068+544875957+543905839+542652066+541541614+540628159
2828+539474155+537812605+536060699+534903108+534418498+533931459+532825415
2818+531213693+529685379+528697593+528264341+527974748+527354659+526354846
2808+525324851+524477025+523686908+522835495+522002573+521250294+520436869
2798+519363135+518093225+517009705+516344943+515780174+514855887+513635955
2788+512518481+511560539+510479521+509154031+507683054+506143385+504704978
2778+503785286+503637445+503852184+503632776+502585338+500993973+499347700
2768+497893867+496696795+495822971+495262198+494810644+494181815+493175689
2758+491785804+490290099+489111292+488370816+487675986+486549659+485022354
2748+483639005+482810490+482241089+481240565+479643000+478009502+476827034
2738+476055818+475523583+475114312+474519884+473488097+472289643+471280005
2728+470166678+468402408+466156890+464243472+463131227+462516816+461889892
2718+461146242+460479799+459916673+459237232+458304765+457260576+456347943
2708+455609074+454784518+453593609+452155614+450967544+450347567+450047814
2698+449533918+448516250+447132341+445733304+444550164+443517705+442436687
2688+441283355+440243910+439427460+438711973+437967351+437275584+436778310
2678+436424209+436000856+435320779+434325410+433147575+432053259+431147686
2668+430242262+429199493+428229524+427610556+427262357+426817377+426066480
2658+425185447+424484005+424016613+423583250+423076153+422532749+421831718
2648+420739531+419372618+418229221+417568605+417062442+416267320+415164189
2638+414017692+413006636+412249800+411912694+412006523+412230675+412187496
2628+411654962+410620223+409214015+407676438+406316808+405435289+405164446
2618+405271387+405212108+404611854+403696307+403024785+402784347+402624366
2608+402219316+401655294+401172588+400815984+400419300+399768508+398814003
2598+397785615+396979885+396445595+396017162+395560117+395072144+394690738
2588+394601765+394727642+394624550+393983581+393077709+392391731+391994674
2578+391596459+391078679+390626229+390361400+390151852+389849111+389470431
2568+389028551+388416270+387662011+387093096+386997922+387265552+387582488
2558+387841079+388095711+388274442+388198318+387789047+387117972+386338053
2548+385581180+384873985+384294387+384153867+384650020+385391317+385724949
2538+385479170+384983951+384550027+384279072+384131567+383952985+383676652
2528+383507445+383628915+383876712+383990786+383989479+384021901+384023656
2518+383756661+383135228+382374619+381786168+381495715+381417761+381422841
2508+381415109+381317656+381123722+380943347+380896843+380969232+381006062
2498+380811978+380272795+379512897+378893518+378679712+378735629+378695886
2488+378400017+378008937+377735815+377615428+377538669+377422578+377297783
2478+377229988+377224385+377239588+377201750+376991679+376561304+376038967
2468+375593166+375288631+375167273+375267788+375462058+375489214+375236449
2458+374838758+374502772+374347498+374360272+374416861+374379434+374173024
2448+373764276+373194427+372658942+372380330+372378910+372514687+372672389
2438+372736000+372539750+372050134+371439533+370867704+370378686+370026340
2428+369863894+369816942+369749222+369592192+369322806+368981703+368752023
2418+368807491+369059919+369240668+369231628+369164245+369190205+369301627
2408+369418615+369525480+369614379+369592491+369393701+369144485+369076504
2398+369248736+369446667+369426646+369213251+369051477+369062571+369072245
2388+368814252+368176234+367196628+365918352+364281641+362118522+359317124
2378+356086733+352939077+350198489+347608804+344675963+341327239+337923084
2368+334771432+332063340+330104726+329159895+329226308+330244275+332293655
2358+335460884+339700726+344940381+351297062+358732035+366271856+372215493
2348+375264202+375353811+373740035+371875436+369900537+367107916+363432059
2338+359453124+355518265+351564133+347616088+344084935+341473773+339929920
2328+339200539+338880577+338631586+338414344+338540147+339265196+340435112
2318+341689222+342792390+343688588+344487333+345416513+346597449+347922976
2308+349223888+350388800+351307521+351927161+352383683+352865567+353316449
2298+353460294+353205288+352883048+352940795+353461676+354121881+354578402
2288+354751419+354740886+354645898+354533953+354452338+354371806+354195838
2278+353914163+353674174+353589645+353552143+353369527+353049752+352786754
2268+352661324+352548183+352395673+352383422+352619265+352872739+352847900
2258+352602830+352477849+352666703+353028312+353308381+353396271+353300911
2248+353040751+352727102+352623411+352899446+353404526+353847415+354097863
2238+354198378+354207717+354143918+354043627+354042245+354330195+354924623
2228+355535970+355812678+355713469+355524578+355517070+355695204+355911699
2218+356108808+356319812+356529584+356710818+356931758+357270246+357668834
2208+357993390+358210669+358435008+358792807+359268566+359714405+360008630
2198+360169732+360354552+360773422+361508818+362386750+363150347+363751908
2188+364331395+364956003+365540980+365983943+366274956+366514834+366846225
2178+367302635+367759493+368111353+368432285+368896651+369618152+370590474
2168+371703765+372842006+374049425+375528172+377389857+379524551+381796104
2158+384223193+386891430+389820013+392945593+396109198+399071511+401680469
2148+404008014+406232503+408454639+410704080+413002377+415306801+417523371
2138+419688806+422021543+424695046+427678911+430848194+434091659+437286528
2128+440342296+443313947+446342411+449427538+452269613+454319293+455058611
2118+454368225+452637386+450455105+448181497+445794861+443129276+440220565
2108+437277862+434313458+431098269+427590647+424074547+420761607+417611262
2098+414590567+411728509+408900852+405911234+402765409+399635645+396680691
2088+394048836+391843658+389956536+388124173+386238135+384442714+382902484
2078+381638925+380631043+379913241+379480998+379200667+378906068+378540313
2068+378146767+377749374+377301257+376781385+376288370+375931019+375671905
2058+375417310+375191104+375044831+374902182+374669551+374399156+374192896
2048+374029815+373818624+373601830+373585619+373891536+374402593+375000942
2038+375796774+376905881+378179862+379387617+380497994+381574118+382524963
2028+383154315+383406593+383395836+383183188+382728609+382119315+381551221
2018+380938902+379886421+378261552+376474273+375000793+373913014+372975392
2008+372008785+371081435+370401172+370028207+369713998+369107245+368134400
1998+367122857+366551290+366647734+367116283+367286312+366733308+365704248
1988+364736706+364094207+363751012+363605337+363513712+363348539+363113592
1978+362839201+362446925+361901318+361360865+361053902+361116878+361511059
1968+361934487+361951743+361414951+360618260+359957532+359622107+359576910
1958+359636151+359582663+359342673+359031228+358813538+358753363+358772525
1948+358820710+359126963+359978972+361038513+361344691+360469448+359119081
1938+358145190+357690312+357505940+357465226+357554573+357697222+357770844
1928+357823361+358194832+359085053+360044377+360515055+360753850+361242084
1918+361502020+360727404+359295945+358344167+358302818+358693300+358890073
1908+358676716+358219596+357742941+357334567+357043255+356980167+357245705
1898+357838228+358548298+358991933+359114151+359432058+360186465+360671039
1888+360183664+359145228+358400270+358128195+357994249+357758293+357418460
1878+357072054+356803639+356738421+357295496+359095549+362113330+364872034
1868+365297516+363149413+360332215+358519835+357936689+357993240+358135740
1858+358134321+358062305+358121808+358378718+358782872+359402512+360492308
1848+362418350+365243057+367832330+368107020+365766439+363081955+361825417
1838+361809169+362045237+362252244+363193414+365540681+368510576+370246010
1828+370192483+369522268+368782017+367473373+365764759+364643661+364537580
1818+364993691+365512854+366169136+367326839+368911069+370204586+370602128
1808+370371439+370352912+371246757+373235851+375774138+377747507+378457839
1798+378541209+379447530+382107997+385939987+388605721+388085999+385600566
1788+383969308+384401215+386273769+388623426+391053728+393264583+394845340
1778+396099151+398245835+402311651+407784984+412158174+413206882+411750248
1768+409789766+408502786+408879038+411411199+414812927+417028227+418091540
1758+419433241+421198668+423024121+425810130+430452407+435702820+438888650
1748+439222170+438396569+438156654+439243274+441570558+444224488+446107016
1738+447811820+451504299+457734504+462952496+463316645+460735589+458482226
1728+457522044+458058313+460068250+463018385+466909505+472936214+481808547
1718+491282218+496480898+495780240+492746397+490769779+491144238+494122799
1708+499321852+505401154+510782413+515916734+522984831+532101187+539409012
1698+542340359+542465304+540696701+538172048+537909609+541422161+547467958
1688+554651735+563709112+574830811+583161757+584292155+582206057+582071289
1678+585704415+592598523+600342289+606695907+612490023+619139323+624843009
1668+627136675+628090508+631360418+637282279+643108667+646811567+649798047
1658+654798647+663759580+677517840+692947699+700663002+700280662+701443220
1648+706677796+711369416+711128493+708474898+707707454+710128567+715716273
1638+724086663+732703505+735937483+732031833+726597795+723974382+724211346
1628+725453764+726372186+726748176+725959068+723390338+720713212+720283659
1618+721497091+720471691+715069477+708399894+703405869+699935002+696678614
1608+693001860+689307775+686267657+684103007+682499540+681006487+679587690
1598+678645437+678323459+678061767+677131168+675423562+673497444+672012833
1588+671205646+670814043+670450977+669956953+669576032+670104570+672549737
1578+676892037+680673004+680725596+678635800+678844077+682601139+687111300
1568+689222910+689885319+691994613+697185412+706630284+721749220+740267755
1558+751540134+752140388+751607891+754588768+760237657+766896707+773595051
1548+780559793+789280849+800835986+814295501+827344737+836146026+835352660
1538+827320234+821102317+820165592+822149083+823409804+823744557+825777054
1528+830466583+836312917+842060491+848305302+855035247+859987288+861938058
1518+862360141+862316813+862089485+862729483+865589113+871406686+880113025
1508+889220828+891749217+884723366+876823990+874373593+876972728+881930447
1498+885984834+886522560+884087776+882296949+883905870+888513522+892830048
1488+893634172+891498432+889340954+888863738+889872928+891496042+893404828
1478+895887647+899317052+903801665+908211199+909583155+906675938+902930232
1468+902152852+904841110+908409615+910001354+910267901+911950032+915749227
1458+918945628+917560449+912429339+908152556+906711647+907512185+908884888
1448+908973115+907208808+904896466+903727856+904352464+906544308+909840738
1438+913133359+914152932+912112366+909883469+909877045+911224498+911921719
1428+912032282+913108332+915000609+916087640+916302641+917109231+918375330
1418+917979991+915461912+912669964+910780078+909599292+908469678+907109899
1408+906026528+905832071+906217548+906373233+906152480+905951972+906098170
1398+906873308+908038182+908029890+905362550+901113781+897837446+896410357
1388+895429631+893143660+889768042+887367622+887649932+890613029+894892204
1378+899129543+902998138+906657037+909733014+911885039+913792555+916197158
1368+918821393+921231225+923616330+925684836+926197386+924913656+923432108
1358+923039309+923540580+924377873+925491275+926917915+928414629+929725029
1348+930798763+931797344+933151670+935370257+938466628+941623510+943616712
1338+943824541+942830816+941894838+941949447+943042679+944492254+945516310
1328+945775013+945326410+944545295+943995242+943824990+943701428+943630309
1318+944204341+945785472+948046267+950265079+951516760+951122692+949647194
1308+948718537+949148165+949903134+949493676+947920016+946617236+946630385
1298+947555605+948409782+948790777+948720853+947954081+946171024+943463194
1288+940094000+936318637+932716065+929970285+928056344+926274855+924198207
1278+921938457+919579126+917144491+915020929+913672504+912912456+911897141
1268+909995900+907552974+905453615+903839391+901898631+899154793+896110641
1258+893462799+891574258+890536980+889829823+888418721+886076347+883921931
1248+883041758+883318764+883883832+884117434+884094350+884307857+884953532
1238+885651575+886078663+886488420+887284028+888443598+889667041+890901988
1228+892488348+894685719+897119307+898997689+899891010+900020922+900053344
1218+900925524+903366359+906863298+909665555+910804731+911369799+912876075
1208+915377421+917840368+919478423+920249080+920861361+922586672+926180428
1198+930697538+934209268+935886693+936479775+936875263+937146143+937056049
1188+936920385+937563221+939457216+942046638+944264329+945924647+947865108
1178+950457071+952999728+954868921+956309232+957772926+959549783+962170134
1168+965736922+969023491+970571826+970606564+970914498+972984572+976603130
1158+980017071+981641157+981871995+982647507+984827024+987136453+988284892
1148+988670743+989279439+990415029+991797892+992936321+993602763+994455969
1138+996800957+1000769060+1004501543+1006237835+1006423104+1006708999
1130+1007608895+1008243290+1008148564+1008156557+1009030904+1010181734
1121+1010557948+1010185469+1010065791+1010816800+1012391356+1015006478
1113+1018753379+1022286325+1023579169+1022453665+1021220884+1022259880
1104+1025447914+1028377842+1029025608+1027866038+1027042267+1027986313
1095+1030445824+1033463007+1036752117+1040986244+1046620491+1052186756
1087+1054400638+1051422450+1045690115+1041800229+1042165984+1045433280
1078+1048066181+1047670618+1045805310+1046338554+1050249134+1053979899
1070+1054411918+1053076194+1052681826+1053034060+1052860894+1052557293
1061+1053187877+1054757428+1056585533+1058335870+1060230313+1062187433
1053+1063095546+1062210965+1060968995+1061614072+1063728521+1064121918
1044+1061259672+1057921258+1057969143+1061779096+1066477887+1069951742
1035+1072329377+1073741823+1073184001+1070647320+1068024878+1066830868
1027+1066906320+1067511430+1067987002+1067787390+1067288959+1067376513
1018+1067875692+1067659346+1066546616+1065639175+1064881517+1062279768
1010+1056893467+1051169947+1048749731+1050471232+1053704163+1055546163
1001+1055506196+1054546910+1053016728+1050589565+1047267959+1043548026
993+1040421549+1039124447+1039605696+1039837580+1038339597+1036127658
984+1034883148+1034921995+1035956658+1037959872+1039907953+1039628631
975+1036277068+1031396519+1026600312+1021804404+1016619283+1011889190
967+1008318816+1004850041+1000240970+995280786+991572731+989070863+986368561
957+982643473+978322464+974291311+970836730+967458647+964014599+961256194
947+959339564+957241251+954823724+953610964+954295635+955347780+955010636
937+953316403+951713533+951605734+953251036+955490914+956837919+956875720
927+956040145+954743491+953586162+953388269+954073014+954388792+953512951
917+952118583+951177301+950788462+950778601+951336423+952158775+951966260
907+949852558+946726903+944661162+944968349+947000697+948730565+948730266
897+947304970+945440185+943376984+940750732+937514663+934223013+931964459
887+932002558+934487992+937539390+938864208+938406640+937876534+937951612
877+937581449+935886095+933529826+931885197+931471033+931520562+930971406
867+929754163+928739596+928494190+928707174+929009056+929693877+931217708
857+933430842+935289725+935303396+933009730+929691635+927085255+926062320
847+926724878+928713374+931036175+932384450+931999346+930113494+927705231
837+925851801+925193651+925707994+926647035+927259242+927704932+928796670
827+931013689+934075695+937145097+939438315+940982242+942320507+943399321
817+943387891+941664149+938685588+936169899+936082345+938759172+942405820
807+945008241+946024303+945680511+944037973+941421732+938634639+936315873
797+934811539+934629483+936178117+938827602+940977611+942008912+943515188
787+947027740+951010933+951993079+948937722+944353154+940795181+938632846
777+937265148+936723836+937314528+938522582+939242065+938966852+938320580
767+938237807+939045591+940305042+941786815+943601771+944629039+942882363
757+938705161+935443916+935721221+938739749+941965285+944265898+946364136
747+948461851+948938020+946488744+942921657+941650105+943658846+946632177
737+947891180+947142562+946065316+946023930+946832088+947662882+948530654
727+949998681+951655263+952139426+951042832+949881096+950320958+951475000
717+950120973+944901936+939164073+937502561+940061877+942034237+939689473
707+935143453+932995462+934287260+935830963+934410747+929866146+924647184
697+922021305+923622157+927251772+928559781+925981340+921621783+917328116
687+913400429+910262970+908329831+906847236+904580090+901225465+897410582
677+894012478+891788512+891054312+890499403+886467577+876237706+864107490
667+860080893+865001484+871620492+876303521+878841099+879196097+877236287
657+873298290+867962938+862687125+859998793+861071556+863916544+865658141
647+865481912+863951805+861293429+857844825+855163889+855058555+857056763
637+858046902+855669566+850985417+845974284+840755172+835386576+831448654
627+829873500+829185990+827456123+825043900+823891053+824516035+824740150
617+822224834+818218856+816622038+819037622+822907787+825478832+827569599
607+831230441+835829053+838761372+838283036+834900097+830513049
##END=
