##TITLE=<SNM>
##JCAMP-DX=4.24
##DATA TYPE=INFRARED SPECTRUM
##DATE=2/5/2025
##SAMPLING PROCEDURE=Instrument type and / or accessory
##ORIGIN=Admin
##XUNITS=1/CM
##YUNITS=ABSORBANCE
##RESOLUTION=4
##FIRSTX=4497.3318
##LASTX=599.83466
##DELTAX=-1.4281778
##MAXY=1.8441122
##MINY=0.38578504
##XFACTOR=1
##YFACTOR=1.7174633e-09
##NPOINTS=2730
##FIRSTY=0.3982484
##XYDATA=(X++(Y..Y))
4497+231881757+232585471+233575711+233941554+233575641+232999589+232638726
4487+232476029+232491959+233161020+234847494+236803818+237630405+236813501
4477+235130965+233658430+232941198+232988206+233492470+233907248+233797025
4467+233315909+232986089+233081997+233783039+235453965+237841534+239544389
4457+239357068+237692979+235797424+234236130+232930630+231968988+231676026
4447+232150721+233075316+233856926+233987954+233545535+233157688+233238915
4437+233521015+233534602+233193799+232706193+232424839+232833352+234034234
4427+235343343+235929268+235585705+234562184+233237788+232228946+232087090
4417+232617747+233090187+233305428+233821422+234916193+235955627+236151554
4407+235571494+234851208+234132102+233092200+231979382+231595562+232144648
4397+232992475+233595059+233851685+233628775+232801441+231641945+230570358
4387+229854011+229730773+230205347+230812807+231172022+231349226+231192046
4377+230302504+229203187+229136085+230108399+230562393+229620029+228359646
4367+228181505+229041687+229864960+229854809+228909409+227385493+226010149
4357+225504184+225796435+226094638+225983912+225841847+226065139+226579485
4347+227160517+227614633+227718540+227505485+227475257+228077147+229032160
4337+229456482+228778553+227411400+226243367+225616646+225279868+225224687
4327+225841500+227061434+228015303+227974004+227242230+226664652+226482780
4317+226297507+226057122+226107670+226245623+225912801+225447008+225816217
4307+226944652+227614008+227205651+226395115+226045496+226286280+226621808
4297+226439607+225600213+224761930+224887736+226316248+228460551+230336446
4287+231126593+230412536+228411461+226119800+224728752+224624914+225198797
4277+225668790+225758867+225607345+225505711+225771673+226493764+227353755
4267+227875962+227846428+227456499+227046234+226707026+226284197+225831210
4257+225742174+226309671+227489261+229083038+230666109+231490614+231149654
4247+230216140+229572501+229333921+229005472+228467284+228083932+227824841
4237+227133569+226013689+225424727+225984259+226975175+227343743+227143529
4227+227286167+228282878+229745367+230824867+230976667+230450469+229891128
4217+229597055+229594365+229933156+230273091+229838636+228459492+226974602
4207+226193392+226240139+226961293+228007216+228620767+228313159+227626710
4197+227529536+228194450+228863702+228871355+228406914+228060384+227876049
4187+227333210+226318868+225581854+225803550+226636245+227206449+227326425
4177+227548572+228227281+229159754+229997776+230527184+230664495+230488228
4167+230201773+229970568+229735354+229185522+228237103+227586053+228141941
4157+229686073+230845031+230735831+229938309+229547739+229888681+230456646
4147+230695782+230483907+229965917+229218474+228256433+227303918+226855772
4137+227262238+228198771+228820841+228722366+228403218+228427824+228570410
4127+228308994+227751336+227409214+227350094+227271816+227239489+227629330
4117+228356089+228807775+228639803+228143572+227720969+227404633+227056298
4107+226766268+226789520+227149169+227573785+227846966+227983704+228038156
4097+227970741+227778666+227597193+227585914+227740421+227863503+227800721
4087+227641442+227546507+227479717+227301073+227039379+226889453+226963184
4077+227171658+227368175+227497920+227532538+227373259+226978767+226499213
4067+226155355+226124433+226574054+227512183+228549344+229178980+229331682
4057+229265344+228995495+228341027+227468611+226873923+226805398+227133430
4047+227815506+228935368+230068436+230266758+229192845+227733532+226973978
4037+227038650+227371819+227690377+228121222+228629634+228812547+228372279
4027+227642588+227436926+228207343+229491447+230478597+230955167+231324706
4017+231809900+232040203+231534065+230355394+229099471+228264363+227853074
4007+227710332+227993942+228955150+230415313+231835686+232774545+233012239
3997+232500600+231492176+230491004+229914259+229943602+230557656+231457245
3987+232201963+232620090+232820928+232831964+232629339+232472871+232808764
3977+233796018+235074639+235958004+235895032+234934656+233727250+232956416
3967+232849264+233304924+234207290+235350527+236348626+236956451+237262445
3957+237321999+236952789+236188549+235622406+235969543+237275859+238650265
3947+239113126+238816971+238797571+239467135+240124553+240101839+239578382
3937+239150643+239493286+241156698+243747291+245607499+245422521+243943167
3927+243024385+243489225+244562183+245023292+244733331+244672875+245452350
3917+246256258+245671322+243499116+241011631+239635021+240043447+242180497
3907+245710261+250298789+255330170+259567344+261674600+260978174+257662783
3897+253065614+249492521+248810185+250882996+253153296+253264144+252582468
3887+253801465+256441287+257724697+257539928+258037234+258600462+256978122
3878+254372745+253803513+255718572+258599264+261485215+263451811+263195913
3868+261840629+262041745+263784667+264237950+261917067+258721287+257347349
3858+259624330+266637595+277084439+283242833+277910055+267076840+258537229
3848+254748687+255496807+259241846+263873633+268237325+272503304+276160747
3838+277113314+274645473+270966287+268013668+265810505+264070654+263329823
3828+263872540+265179428+267467341+271802505+276977721+278880738+276858440
3818+274714414+273448617+270750942+266538894+263517976+263619245+266854172
3808+271245072+274333370+276665428+280424488+284549408+285515979+283668074
3798+282032460+280792049+278760207+276670374+276174195+277692628+280708410
3788+284836280+289628596+294127290+297963655+302201836+307556894+312738184
3778+316451971+320082987+326254551+336363576+349938004+364571699+377296548
3768+387680055+397224186+406007652+413474165+420497946+427476541+432426071
3758+433880247+434318850+437737852+445727752+455722771+462284524+464334655
3748+466814470+472488051+479087771+482794062+485029032+490607660+501441882
3738+516326738+532292622+545449965+552633805+554147986+553785145+555210967
3728+559427457+564826730+568929005+570778159+571180426+571018874+570615358
3718+570312105+571195210+574732765+580294526+583152869+579263335+571956743
3708+566386270+563686079+563244353+564536005+566175437+566229924+564533402
3698+562932285+563471983+567087278+573442396+581208414+587341074+587713598
3688+582660890+578047721+577789204+581123318+585331096+588969851+593335191
3678+599842457+605328978+604321490+599529070+597448919+597805409+595049551
3668+587457058+579502974+574800509+573255440+572621483+571452478+570171376
3658+568765371+566235512+563940050+565585694+572504041+580971587+583651927
3648+577646635+568296575+560707830+555540422+551354716+547227106+543861306
3638+542803184+544609651+548233934+552801396+559240258+567911245+573986190
3628+571323376+563533619+558068095+557647262+561464366+566792840+569722328
3618+568793482+567355548+568782341+572517819+576056172+578400429+579678963
3608+579457406+577918376+576612355+576783312+578316477+580205195+581988098
3598+584578760+588438933+591841555+592838284+592895686+595477186+601127307
3588+606019677+606468830+603722203+601132651+600158689+600545997+601416400
3578+601734298+600850708+599118023+598080828+599890974+605662562+613629661
3568+619192672+619079603+615387750+611708251+608732224+605726350+603023452
3558+601936143+602962510+604840400+605841155+606228463+608290915+612890930
3548+617261961+617583052+613201123+606941513+601867635+599134335+598499302
3538+599243447+600450836+601101903+600776022+600356994+600937887+602017977
3528+602253694+601766782+601531759+601133068+599636794+597760987+596748293
3518+596090077+594214200+590743210+586813626+583975725+583330975+584611244
3508+586046020+586309501+586053517+586461926+587066626+586232248+583483885
3498+580239172+578391093+578586656+579770549+580425711+580199122+579783494
3488+579322160+578049075+575842632+573779452+572592956+571810600+570893068
3478+570215139+570282884+570849999+571202949+570773439+569434658+567740218
3468+566447004+565525203+564392500+562871829+561137236+559243173+557555363
3458+556783314+556850260+556950072+557028020+557771263+559028210+559617641
3448+558901086+557442155+555872341+554265463+552913806+552455248+552879690
3438+553388328+553485918+553179403+552137419+550209588+548528858+548258505
3428+548643176+547974167+545968389+543831252+542445375+541545786+540650014
3418+540027821+540309488+541534715+543037547+543934152+543409342+541183534
3408+538123451+535644852+534237701+533309618+532583172+532677188+533920254
3398+535276631+535124866+533147025+530761574+529625851+530207681+531686949
3388+532751492+532456707+530954534+529436153+528831661+528761522+528350475
3378+527606711+527134619+526973934+526697439+526259982+525963983+526016630
3368+526520652+527325705+527803316+527530777+527121084+527505477+528607709
3358+529623561+530388668+531477157+532946604+533913174+533474259+531430340
3348+528393683+525682178+524512201+524877576+525627136+525614329+524431304
3338+522616750+521608603+522668183+525388747+527921694+528923872+528576509
3328+527705482+526786388+525869099+524872370+523766945+522740092+522308604
3318+522820191+523599805+523521094+522841813+523097554+524659281+525909426
3308+525423868+523620143+521849456+521087403+521521980+522482789+522975566
3298+522836051+522779725+523096964+523256677+522839383+521906095+520683887
3288+519770416+519996068+521305177+522570870+523066354+523263791+523744977
3278+524214224+524082102+523416771+522789234+522393840+521959437+521463189
3268+521112738+520677328+519792939+518850732+518734193+519778745+521426714
3258+522707816+522950405+522272372+521306079+520425022+519673519+519268720
3248+519391367+519522171+518702611+516770893+514663221+513192213+512331181
3238+511977120+512477983+513813399+515085963+515431626+514744743+513187458
3228+510886444+508448102+506886896+506612136+506982682+507073054+506556469
3218+505696582+504893646+504516541+504650398+504701415+503924438+502637263
3208+502064248+502598879+503053758+502061957+499739530+497574872+496908188
3198+497710534+498794373+499085860+498404774+497117078+495584850+494037387
3188+492515987+490830918+488956359+487523076+487342887+488281450+489203008
3178+489150014+488025050+486086217+483602794+481189300+479615461+479067399
3168+479117617+479276150+479124003+478294552+476878344+475525818+474732288
3158+474306457+473772242+472978954+472100708+471311550+470649308+470016288
3148+469245732+468298735+467369924+466693002+466260855+465824717+465176877
3138+464365300+463572775+462832413+462014311+461114617+460302623+459578016
3128+458705948+457695476+456982877+456876506+457166605+457456184+457457746
3118+456864949+455483237+453658793+452100953+451177937+450732880+450435353
3108+449953612+449126383+448322302+448144820+448511930+448614032+448046778
3098+447320645+446932156+446623455+445994669+445261317+444830384+444578391
3088+444176090+443781216+443768757+444042926+444177790+444003744+443619490
3078+443040055+442200123+441143944+439984692+438837447+437900723+437450494
3068+437603613+438081259+438328324+437954551+436970697+435590234+434098334
3058+432945675+432480662+432402125+431940027+430800313+429549474+428918918
3048+429055413+429490406+429592751+429105041+428376547+427924861+427787846
3038+427585064+427145768+426668122+426276406+425814517+425144813+424358154
3028+423520374+422535237+421504879+420810743+420510961+420092696+419170131
3018+418021672+417146445+416664809+416327198+415795135+414868510+413694091
3008+412750982+412429266+412614313+412802588+412606852+412045359+411410291
2998+410990082+410800246+410453924+409524106+408177516+407105789+406702794
2988+406676106+406518024+406004355+405227170+404447001+403911571+403675438
2978+403607590+403527664+403261511+402655318+401646893+400351701+399058799
2968+398020598+397213115+396480492+395868989+395511700+395269424+394835716
2958+394134812+393399308+392944707+392935024+393178549+393183616+392651692
2948+391848479+391252558+390905785+390425710+389672472+388998882+388657488
2938+388406189+387971057+387443159+386953436+386432478+385917872+385616910
2928+385454316+385013181+384130319+383160139+382506990+382208423+382013901
2918+381650435+381065100+380501733+380195252+380030403+379698831+379076049
2908+378282831+377545939+377065169+376816612+376564410+376241063+376071078
2898+376113869+375991604+375346159+374342663+373497629+373123891+373072527
2888+372974937+372618204+372038213+371369065+370731117+370197492+369785369
2878+369504293+369371408+369329970+369260074+369123822+368998953+368899107
2868+368632988+367982650+367021841+366089594+365370020+364693757+363905154
2858+363200572+362863274+362876115+363042213+363269046+363432402+363169546
2848+362254443+361098557+360395745+360257099+360122165+359579795+358879169
2838+358480651+358422833+358343809+357962921+357344824+356720134+356217153
2828+355795626+355322423+354700682+354009739+353457026+353106540+352782568
2818+352323455+351755021+351163578+350619785+350238098+350075887+349988534
2808+349798628+349546774+349356000+349131840+348604775+347637962+346391981
2798+345235158+344520719+344330501+344393838+344350804+344100788+343799653
2788+343547694+343220703+342653137+341914856+341313105+341070378+341057919
2778+340959288+340629243+340132370+339536346+338889964+338293280+337776418
2768+337240607+336650205+336091800+335587918+335070084+334519766+333957961
2758+333399036+332933919+332686333+332621088+332559868+332350076+331899153
2748+331195821+330425091+329890668+329677162+329511342+329078709+328391098
2738+327723962+327250100+326891076+326506579+326053400+325544971+324991183
2728+324381797+323702723+323037462+322590565+322465939+322479613+322317645
2718+321851660+321232765+320686855+320280563+319963775+319768490+319733680
2708+319657225+319242951+318532678+317905210+317616777+317545562+317386405
2698+316977024+316429135+315973562+315703696+315514414+315259020+314883338
2688+314423774+313935716+313437317+312947004+312555011+312330157+312143374
2678+311771406+311222927+310769783+310574567+310445360+310090258+309528557
2668+309075517+308903936+308809885+308551853+308223196+308031867+307896622
2658+307593230+307183607+306952853+306950146+306880284+306506650+305962614
2648+305540149+305295583+305041229+304666519+304253772+303898600+303630747
2638+303485402+303469229+303464891+303286681+302854568+302304702+301902505
2628+301783918+301814736+301751087+301447522+300896648+300241938+299747425
2618+299548114+299460588+299215397+298810424+298488777+298412322+298449422
2608+298319521+297947170+297557190+297321438+297103074+296738602+296359588
2598+296178220+296132131+295985815+295652855+295237574+294858491+294550657
2588+294268574+293934955+293545078+293206565+293004582+292880824+292737318
2578+292589752+292500526+292428409+292280947+292058834+291827352+291592815
2568+291310767+290975239+290642660+290404965+290329378+290360057+290312841
2558+290041309+289596928+289208509+289087579+289203147+289284582+289126484
2548+288807770+288520533+288322177+288180407+288116619+288154881+288212023
2538+288159653+287971205+287729345+287502530+287315331+287238026+287343165
2528+287538259+287618445+287529114+287419828+287402181+287389045+287227892
2518+286937428+286721753+286697859+286725762+286654807+286598342+286742524
2508+286996965+287076647+286877423+286589302+286447167+286481647+286528464
2498+286437779+286224742+285986059+285730629+285386616+284958199+284578769
2488+284406441+284513367+284829790+285154786+285293328+285217949+285030282
2478+284802599+284569346+284405296+284353776+284320615+284180737+283956386
2468+283772050+283673904+283610828+283568158+283594968+283677097+283684107
2458+283506990+283212258+282987976+282912892+282850457+282649741+282385167
2448+282268003+282362435+282533236+282659719+282772579+282934808+283050532
2438+282904077+282456069+282000357+281883315+282128037+282461709+282639763
2428+282616927+282467748+282279369+282123387+282041413+282022031+282027618
2418+282058870+282152765+282314646+282491625+282617014+282670685+282718335
2408+282853754+283054436+283170646+283124020+283020668+283028061+283229228
2398+283573312+283877102+283953280+283819665+283690493+283716366+283827335
2388+283827734+283526269+282750004+281321960+279105939+276089272+272403926
2378+268268542+263908599+259488182+255089231+250774699+246621147+242638066
2368+238835226+235489451+233022391+231488098+230662916+230769530+232546203
2358+236425915+242115235+249241239+257946532+267986164+277478966+283764745
2348+285378547+282992106+279104048+276252872+274909474+273944014+272604712
2338+271073386+269761102+268708775+267654870+266526279+265654349+265383216
2328+265622924+265964994+266160054+266373247+266980256+268173884+269787079
2318+271405878+272613527+273285347+273725216+274379823+275392915+276575160
2308+277740417+278857329+279900737+280744486+281245349+281377888+281278492
2298+281154023+281135247+281237280+281436001+281704323+281977626+282178637
2288+282293719+282357889+282368144+282269842+282024634+281648570+281202384
2278+280773204+280430145+280166386+279927598+279714076+279573503+279466004
2268+279261157+278957540+278779382+278907374+279200424+279359720+279307367
2258+279198931+279105696+278928457+278637577+278378556+278298526+278420306
2248+278693869+279047045+279380734+279589137+279602239+279421443+279145659
2238+278946400+278962382+279172417+279375493+279366088+279157979+278960126
2228+278929186+279043227+279199938+279328624+279410111+279447853+279415959
2218+279262598+279007689+278781360+278708271+278796925+278964967+279120185
2208+279206670+279212865+279163046+279101879+279056901+279003021+278895609
2198+278731853+278555396+278447636+278514131+278783425+279120966+279343478
2188+279398798+279366661+279345543+279371519+279378374+279251804+278990250
2178+278753249+278690797+278783651+278886742+278897709+278855386+278860106
2168+278924345+278979196+279031028+279187583+279470793+279699794+279675171
2158+279451653+279307003+279419517+279682355+279872174+279904346+279869433
2148+279864852+279865910+279816230+279792665+279928275+280178794+280359815
2138+280416645+280459471+280552237+280662096+280788544+280977704+281215416
2128+281397322+281425416+281325917+281266762+281422067+281792665+282178481
2118+282358843+282319731+282272133+282408280+282690571+282957956+283178680
2108+283455904+283801723+284069281+284167167+284213620+284374113+284621734
2098+284771607+284724357+284604173+284656699+285015289+285550389+285978840
2088+286148999+286161892+286192484+286279785+286340571+286335382+286348292
2078+286485933+286748233+287045777+287301206+287463366+287479295+287366920
2068+287283941+287397721+287679040+287922323+287988436+287940109+287935250
2058+288076291+288364812+288713320+288995715+289154039+289257235+289416305
2048+289662972+289946147+290204839+290387561+290439254+290363788+290289068
2038+290350288+290486765+290488553+290297779+290138257+290261946+290650452
2028+291053290+291286717+291412453+291610272+291974119+292498721+293134969
2018+293704930+293905664+293637845+293225792+293091344+293318211+293669704
2008+293903512+293963795+293963586+294048579+294243031+294426413+294459764
1998+294355962+294405416+295018238+296189603+297249460+297523665+297097730
1988+296508334+296035686+295705780+295581848+295695993+295928517+296143341
1978+296318740+296505002+296716807+296886897+297015340+297353506+298151618
1968+299135575+299614297+299321976+298748822+298442412+298451782+298599313
1958+298852486+299212621+299545026+299713206+299751243+299841546+300157014
1948+300758592+301700487+303039234+304392071+304811655+303827038+302235083
1938+301130803+300787605+300884085+301166411+301549346+301955430+302321048
1928+302747677+303592328+305062920+306645435+307619259+308195467+308984382
1918+309482747+308638546+306859739+305745360+306071761+307160528+307863166
1908+307714594+307146819+306782624+306761593+306824236+306850612+307094623
1898+307860286+309004650+309980243+310651300+311605897+313019989+313864641
1888+313234570+311795387+310768742+310463303+310520150+310729421+311118847
1878+311672288+312230102+312688660+313494719+315666110+319606244+323697899
1868+325049869+322865048+319435460+317109389+316383047+316552199+316895328
1858+317130108+317289543+317480941+317748239+318212350+319207483+321088808
1848+324067508+328010175+331603987+332366075+329681049+326208393+324399080
1838+324328559+324758937+325126706+326353391+329490310+333664078+336247904
1828+336237909+335366986+334718279+333522655+331547417+329950812+329511481
1818+329832363+330324238+331137273+332795897+335103297+336846219+337034702
1808+336132336+335488280+336170893+338511749+341840414+344545013+345363601
1798+344858469+344935237+347113291+351106280+354100597+353090090+349241543
1788+346302858+346027509+347526593+349351870+350994911+352265012+352822028
1778+353157591+354820900+359056720+365222141+370068146+370426372+367140359
1768+363001053+359793127+358803894+360608591+363656736+365367382+365571760
1758+365853357+366382817+366918073+368897441+373672161+379682416+383202722
1748+382830164+380691847+379107284+378962564+380140627+381694892+382390694
1738+382883020+385864773+392178072+397304494+396039078+390736112+385644674
1728+382035141+380318559+380609249+382153103+384790444+390083415+399195988
1718+409443625+414227265+410905263+404088428+398446602+395933922+397121043
1708+401565163+407236002+411588258+414979566+420349895+428101441+433710193
1698+434129568+431110680+425634259+419221460+415473801+415959880+419350042
1688+424515333+432417603+442561715+448265871+444633398+437542116+433312577
1678+433666464+437558531+442081293+445026676+447604220+451144620+453178891
1668+450945517+447293471+446643445+449282035+451794854+451653015+450688145
1658+452489961+459484000+472269791+486242008+490031418+484891392+482879818
1648+486251136+488740980+484746498+477817948+473708142+474180096+479181752
1638+488053716+497452259+500402188+495067849+488713424+486746064+489224699
1628+493680098+498099196+502119498+505028232+505475511+504810042+506526414
1618+511564442+516050000+515666544+512514944+510982022+512226476+514806657
1608+516944974+518208203+519308318+520711166+522117518+523248452+524467154
1598+526283200+528655394+531049834+532982280+534348861+535319700+536115383
1588+536927203+537889956+539010512+540165219+541385587+543379218+547456367
1578+554044392+560361856+561828699+559696213+559602058+563271388+567259068
1568+567929465+566620633+566439265+568933586+575725017+588929107+605517079
1558+611740666+604062174+594935788+590097904+589021145+590028424+591748684
1548+594405494+599966423+609729439+622547748+635923490+646017730+646775897
1538+639709949+634648010+636031075+641106411+644512573+645432950+648084763
1528+655002728+664768382+675000401+685444885+695743955+703050617+706536323
1518+709119697+711668089+712631084+712529329+714228211+720029853+730538056
1508+743433410+750449452+745275624+736084131+731440734+732564692+737547504
1498+743014798+745332957+744327274+743919698+747075497+752769415+756898761
1488+756463004+752948216+749770274+748936520+750373171+752900878+756117064
1478+760858884+767521629+774886248+780190845+780179878+775054290+769741363
1468+768254391+770605589+773811988+775140983+775910949+779770706+788213403
1458+797822606+800477472+793676602+784427012+777889553+775077889+774993209
1448+775207964+773798383+771399224+769714779+769366271+770489882+773694477
1438+778668196+782246008+781327019+778097159+776512388+777222869+778335860
1428+778725459+779196823+780359442+781799493+783700983+786765161+789426205
1418+788068752+782764502+777599974+774869034+773727446+772464738+770859282
1408+770387086+771955129+774192147+775271335+775898594+778117913+782062558
1398+785796127+787616476+787048979+784603939+782105037+781609587+783294795
1388+785072388+784794886+783395717+784006040+787978102+793767321+799237044
1378+803982057+808973615+814471241+819187657+822095455+824022279+825992276
1368+827633478+828689483+830368027+833404650+836085545+836148222+833974229
1358+831735545+830643099+830440283+830477695+830393709+829960937+829054164
1348+827979557+827328767+827546438+828876127+831225450+833867615+835804642
1338+836639229+836729948+836606815+836761391+837438834+838226569+838573272
1328+838702236+839189981+840133750+841608020+844150859+847829941+851584750
1318+854514342+857113125+860173694+863251337+865401593+866973662+869368727
1308+872908850+876079017+877485682+877803788+878870552+881380838+884366513
1298+886594369+887660785+887773924+887220240+886263421+885144878+883855238
1288+882047660+879553131+876930471+875027246+873908077+872579985+870032148
1278+866424559+862996116+860880497+860261983+860568151+861130095+861657820
1268+862241629+862857435+863130564+863015968+863220797+864213084+865411032
1258+866141435+866709904+867729954+869176183+870746725+872334551+873761969
1248+874893701+876183340+878277582+880901214+882866283+883572947+883983508
1238+885518096+888180736+890460928+891441137+892214990+894269876+897167956
1228+899099430+899600918+900303210+902695776+906379369+909777479+911828339
1218+912809451+913892179+915891676+918331788+919961051+920197947+919804462
1208+920233694+922501183+926310409+930082084+932371784+933283833+933890477
1198+934778718+936042398+937985950+940907213+944380910+947312932+949108224
1188+950662177+953398600+957039160+959497666+959714850+959236753+960096258
1178+962614803+965833280+968746283+970895983+972650254+974739984+977115960
1168+978750360+978851143+977924241+977238608+977389159+978061465+979416905
1158+982624901+987900068+993066886+995729041+996215675+996720217+998200873
1148+999637870+1000156433+1000410335+1001264149+1002281354+1002352916
1140+1001632300+1001933054+1004862854+1010012944+1015023173+1017485496
1131+1017099090+1015793001+1015769679+1017817277+1020974256+1023403193
1123+1024275747+1024656670+1025566428+1025859755+1023710957+1020212758
1114+1019256217+1023228904+1030539106+1037345321+1040592395+1039916410
1105+1037673770+1036634978+1037274731+1037737210+1036386212+1033681926
1097+1031778493+1033148717+1038575476+1045550149+1049488409+1048172324
1088+1044610337+1043616245+1046583110+1050941856+1053502811+1053157496
1080+1051006130+1048989767+1048096945+1048019761+1048433722+1049225900
1071+1049658117+1049200218+1048930074+1050472019+1054018459+1058207774
1063+1061480669+1063475376+1065187931+1067676283+1070886292+1073479661
1054+1073741823+1071568732+1069224406+1068786150+1069668977+1070223703
1045+1070392161+1071019559+1071808613+1071306223+1068554182+1064499869
1037+1061912399+1062810150+1066073326+1068505456+1067896660+1064949993
1028+1062276316+1061565002+1062454284+1064218203+1066595151+1068183116
1020+1066859118+1062504259+1057092076+1052687312+1050607716+1051329650
1011+1054126391+1057166623+1058497284+1057412751+1055128673+1053921007
1003+1055180453+1058358394+1061562781+1062816813+1061446449+1058657621
994+1056468219+1055788694+1055670835+1054379738+1051666012+1049444333
985+1048928131+1048968250+1048517639+1047773077+1045840006+1041337720
977+1035976970+1033243115+1033450721+1033695946+1032383193+1030943142
968+1031122289+1032435112+1032846228+1031587476+1029962655+1029003199
960+1028162782+1027088869+1026285933+1024955133+1021245649+1015149569
951+1008404088+1002100263+996880207+994157874+994301275+994736893+992573033
941+988518096+985584061+985181761+986306412+986985382+985628067+982255500
931+978717668+976621275+975449008+973900607+972267735+971615974+971428428
921+970357708+968836377+968646888+970249775+972301121+973548073+973955858
911+973807667+973026526+971801438+970702121+970154128+970038213+969775218
901+969126997+968574771+968051419+966255294+962579265+958627194+956519348
891+956769779+958654194+961328496+963561071+963743412+961600791+958923644
881+957559458+957498585+957495670+956754717+955049381+952223626+949044158
871+947616462+949138625+951672718+952225709+950919272+950495176+952134851
861+954266713+955046327+954364303+953326622+952759333+952471351+951892887
851+951303873+951688891+953319334+955146694+955579466+953709627+950469147
841+948296611+948559120+949897208+950210803+949468809+948906310+948798724
831+948820796+949254054+950638786+952945561+955238593+956081925+954978027
821+953596766+954452176+958014094+962036964+964033893+963794220+963034040
811+962940337+962649647+960280611+955323620+949830644+947226169+949442780
801+954413029+957425913+956562035+954697610+954776738+956380736+957732567
791+958276256+958518844+959452271+962077708+965706815+967957507+968087789
781+967985340+968931955+970085343+969925977+967798211+964502827+961501327
771+959580819+958529048+958497674+960219461+962653673+963150025+961545819
761+960992342+963169182+965607767+965736522+965025624+966551744+970445650
751+973664752+973403700+969995109+966636216+966156523+968219530+970128654
741+970267822+969444202+968620928+967735950+967488989+969504102+973629353
731+976808751+976266936+973005425+970161138+969616269+971299256+973377394
721+973114885+969576358+964896522+961345918+959984161+961449408+964393784
711+965788719+965107112+965548768+969342516+973933855+974771218+970415318
701+963109489+956688917+954334040+956406487+960676943+964622213+965969463
691+961865174+951265836+938482440+929945138+927194416+926270567+924215126
681+922932219+924833917+928420267+930225346+929309341+927810916+926568198
671+922503820+912732336+902531065+902690362+911518840+918719651+920544651
661+919301447+917818222+916643248+914716285+911235161+907460431+905652507
651+905577752+904397711+901263776+899240680+900493601+903837919+906573023
641+906814709+904647587+900724529+895962372+893043747+893943301+896610731
631+897604337+896099387+892280444+886233922+879983960+876447238+876522895
621+878317284+879958694+881093341+880594699+877451810+874695813+877376847
611+886314091+896164008+898621472+891363467+882959570+883357568+893660663
601+904890245+905418248
##END=
