##TITLE=<SNM>
##JCAMP-DX=4.24
##DATA TYPE=INFRARED SPECTRUM
##DATE=2/5/2025
##SAMPLING PROCEDURE=Instrument type and / or accessory
##ORIGIN=Admin
##XUNITS=1/CM
##YUNITS=ABSORBANCE
##RESOLUTION=4
##FIRSTX=4497.3318
##LASTX=599.83466
##DELTAX=-1.4281778
##MAXY=1.8428918
##MINY=0.39064154
##XFACTOR=1
##YFACTOR=1.7163267e-09
##NPOINTS=2730
##FIRSTY=0.41372624
##XYDATA=(X++(Y..Y))
4497+241053308+241270202+241210522+240107803+238339399+236954150+236653475
4487+237429768+238676070+239786673+240793438+241855317+242324284+241424290
4477+239663128+238420177+238377131+239181710+240197332+240871038+240818720
4467+240091880+239137241+238386560+237962131+237639855+237201379+236967017
4457+237562030+239012481+240642354+241833716+242359342+242177784+241489891
4447+240793386+240400282+240071824+239481500+238871103+238830992+239459726
4437+240124038+240147341+239501555+238798903+238735959+239367106+239977781
4427+240015634+239781116+239688965+239415934+238376333+236613434+234822874
4417+233931805+234634787+236700097+238838615+239899973+239988877+239816921
4407+239505132+238823022+238056609+237712055+237721362+237624123+237236298
4397+236838888+236945729+237826536+238961986+239334462+238675428+237876961
4387+237717941+237805525+237323691+236351202+235696874+235626515+235627574
4377+235466940+235408475+235185278+234028019+232133501+230913383+231260438
4367+232393475+232829693+231998304+230579352+229599379+229566387+230330248
4357+231389418+232159686+232246592+231868387+231752083+232209104+232638220
4347+232384879+231743418+231596623+232302452+233303019+233743475+233294146
4337+232363869+231558283+231042172+230609913+230244278+230255964+230848234
4327+231795927+232563885+232600488+231614629+229869806+228251480+227603247
4317+227830542+228158444+228324166+228757763+229512090+229901443+229444058
4307+228589592+228347329+229371893+231268304+232831395+233183971+232401150
4297+231024791+229688890+229100962+229569669+230695552+231978857+233218022
4287+234075336+234090911+233365651+232542302+231961770+231340781+230486142
4277+229833689+229839436+230229363+230372477+230063068+229413167+228573513
4267+228034083+228464363+229869320+231362521+231960190+231467660+230582252
4257+230077219+230087256+230415713+231068218+231985976+232770795+233168240
4247+233370999+233623177+233999160+234521990+235047773+235288611+235165761
4237+234749129+233967575+232888019+232005285+231759428+232057950+232638151
4227+233514947+234611293+235362495+235328583+234866527+234550797+234304332
4217+233719148+232934485+232648344+233302220+234428051+234948381+234342672
4207+233368724+233244138+234207250+235241798+235253293+234282002+233341255
4197+233120072+233288781+233316702+233315539+233530279+233680860+233452402
4187+233025716+232617696+232116710+231483149+230960231+230774037+231035209
4177+231781202+232781456+233568046+233930346+234115360+234400355+234751959
4167+234975747+234943050+234589936+233899785+233031654+232357792+232213479
4157+232621725+233337157+234073686+234637114+234962585+235053676+234910006
4147+234591794+234204576+233748180+233253566+232992464+233211823+233812705
4137+234505738+235026484+235156905+234925877+234645309+234485543+234402699
4127+234470818+234737686+234889378+234581254+233947172+233460354+233455041
4117+233863286+234360904+234787625+235197346+235406548+235042824+234235675
4107+233639325+233620833+233992318+234508620+234995941+235098267+234573006
4097+233771274+233291785+233249451+233336115+233466397+233848510+234435969
4087+234816658+234765521+234565105+234659218+235111273+235463189+235171300
4077+234223711+233239640+232866175+233230264+234028383+234848955+235269824
4067+234990558+234160576+233367995+233133407+233540385+234267868+234758367
4057+234545067+233690497+232790781+232511220+233167927+234495163+235737489
4047+236245612+236009218+235464578+234984099+234713099+234651925+234733588
4037+234897122+235124504+235463971+236050249+236910532+237697799+237946816
4027+237678369+237416762+237583440+238099515+238584492+238789961+238735368
4017+238471296+237828290+236572680+234910771+233635453+233469974+234362016
4007+235689338+236974848+238048604+238761692+238984143+238748930+238190694
3997+237515581+237039338+237044287+237571320+238302015+238614584+238126812
3987+237324143+237164203+238008667+239350784+240453746+240921845+240877984
3977+240830493+241133321+241516198+241433979+240888958+240563903+240992916
3967+241950316+243008635+244240369+245681356+246622260+246387030+245342133
3957+244288901+243539349+243221066+243881350+246102242+249414741+252013717
3947+252480479+251659699+251328186+251456870+250537602+248294658+246100332
3937+245124041+245870520+248567620+252378622+254882131+254297814+252013248
3927+250899173+251839330+253162208+253317181+253054325+253933847+255894140
3917+257126933+256013674+252890930+249569992+247565352+247344273+249217451
3907+254077187+262179497+271306370+277529858+278795296+275808928+269827077
3897+262825837+258112254+258261602+262565342+266445679+265961396+263698396
3887+264450171+267900644+270045135+270370206+271253149+271344119+267871698
3878+263451063+262822243+266701451+272549755+278085576+281392344+280654773
3868+277525083+275788421+275963260+275128085+271827846+268297151+267386930
3858+270647701+278886700+290883601+298670806+293954532+282399891+272527598
3848+267514885+267594760+271487581+277179626+283255416+289206828+293834755
3838+294785955+291659738+287118441+283270210+280178305+277698098+276562092
3828+276893606+277802821+279920397+285501990+293523661+297822713+296229183
3818+293538038+291263387+286420043+279302898+274066293+273613179+278093234
3808+284929325+290606090+295012035+299999431+303592046+302030882+297551036
3798+294653572+293134499+290890755+288266271+286923287+287387652+289548899
3788+293609370+299144844+304396104+308402399+312750626+318886374+325083000
3778+328860333+331367975+336050459+345025883+357849625+371632068+383079017
3768+392032389+400451470+408837560+417158777+426324199+435691876+441871486
3758+443364895+443833897+447923296+457404986+469820048+478645725+481172953
3748+483668856+491587090+502319787+507678530+507394490+509587634+519184586
3738+535611465+553374088+564594540+566365287+563876260+563693556+567830498
3728+574336933+580385514+584786875+588348164+591099110+590982772+587089412
3718+582020440+579761763+582744936+589834802+595290506+593572927+586392837
3708+579003859+574932414+575748349+580295811+584097037+583468946+579897411
3698+577033703+576709309+579278766+584957181+593429222+602075460+605826781
3688+602769881+597479969+594129826+593856169+596628229+602041773+610280165
3678+621287005+629722930+627142220+617493524+610922147+608343174+604236446
3668+597068372+590388644+585884558+582890099+580982280+580618712+582045305
3658+584167465+585374403+586760260+592092471+603105840+615576328+619362725
3648+609845787+595424695+584650532+579230633+577055686+575963316+575679900
3638+576872009+579076232+580783115+581969355+585172217+592160538+598809289
3628+597858435+590868586+584996007+584196498+589132045+597430100+603307541
3618+603217178+601534050+603857910+609476003+613529805+614192277+613575577
3608+612397324+609406130+605769897+604725069+607411213+611943082+616355000
3598+620734899+625305246+628462997+628929394+628682131+631257353+637425467
3588+643026821+642882560+637697596+632476584+630815265+632991462+636192970
3578+636902533+634512689+631563585+630501393+632111246+636627140+643744580
3568+650657194+652688922+648869047+643286170+639755996+638898630+639060046
3558+638766108+638441610+639328425+641072049+642060965+642381435+643616572
3548+645637604+646612142+645739705+643281308+639148881+634392877+631513437
3538+631317154+631965735+631772092+630735182+629476708+628727555+629319876
3528+631277287+633377221+634171660+633022509+630245100+626736944+623430975
3518+621245332+621282143+623861116+627251336+628563847+626618938+623293174
3508+621409456+621894051+623193643+623271643+621714993+619575261+618060910
3498+617559021+617427749+616808756+615698501+615326147+616906412+619717229
3488+621346182+620225717+617491648+615710031+615866793+616500719+615894020
3478+614018845+612000175+610705166+610407825+611017371+611840704+611820978
3468+610828868+610031373+610484782+611692623+612016636+610438038+607647363
3458+605419213+604902668+605257450+604269090+601198160+598293994+597916361
3448+599164001+599243389+597561094+595918458+595244665+594791672+594034671
3438+593367962+593121393+593238565+593736913+594536074+594978648+594362226
3428+592905107+591421317+590445598+590279043+590971311+591568286+590642367
3418+588315034+586302128+585472267+584855567+583441789+581705839+580788185
3408+580927132+581296985+580986378+579722799+578114057+577325835+578062452
3398+579676715+580693864+580418609+579467964+578528363+577286315+575063443
3388+572196471+570106920+569711576+570327130+570857601+571398247+572729303
3378+574859242+576882011+577861932+577449085+576250794+575686707+576540357
3368+577742850+577413767+575064936+572127744+570224127+569543736+569042541
3358+567718153+565608842+563711649+562989688+563393367+563798782+563218789
3348+561914786+560995223+561295933+562771492+564631560+566003734+566534031
3338+566350424+565808146+565461247+565586998+565483821+564170129+561934338
3328+560175607+559776373+560445443+561334030+561578063+560794287+559536055
3318+558561240+558109289+558469974+560079341+562512421+564415448+564861911
3308+564181832+563418510+563275049+563597637+563799407+563508282+562770311
3298+562087940+562103846+562684255+562788891+561746842+560026936+558636599
3288+558347419+559144254+560195645+560997932+562061755+563616633+564817320
3278+565153488+565179568+565269340+565179360+564879970+564521993+563918559
3268+562891755+561706383+560591996+559307996+557733462+556504611+556609281
3258+558293452+560593246+562191360+562526555+562087558+561738750+561619355
3248+560886246+558848683+556132153+554177555+553876046+555106773+557176702
3238+559259481+560601511+560738097+559604122+557546070+555459054+554484100
3228+554855689+555386855+554775572+553100882+551436507+550331634+549319903
3218+547966864+546903388+547221253+548833189+550143443+549827383+548365715
3208+547234901+547119257+547366694+546852337+545173584+542956721+540959512
3198+539384700+538285315+537850311+537877990+537802213+537584434+537654202
3188+537837427+537377871+536126134+534885857+534375703+534296766+533656589
3178+532026074+530246575+529491066+529873179+530266196+529440155+527419296
3168+525456920+524517700+524301900+523966254+523161328+522026728+520788466
3158+519666403+518921139+518859219+519470988+519970898+519364373+517657803
3148+515758041+514215665+512873809+511622037+510679414+510162279+509906229
3138+509768047+509795377+509882059+509618056+508922280+508300683+507998063
3128+507673946+507285548+507201402+507152366+506391371+504958840+503581422
3118+502553507+501649502+500766472+499941994+499083691+498226082+497788092
3108+498017297+498347769+498034244+497295371+496922114+496961044+496765942
3098+496108679+495354664+494751265+494169362+493473864+492788992+492179585
3088+491312669+489961054+488697058+488383742+489060556+489965986+490462631
3078+490381576+489720354+488524738+486990488+485452488+484300941+483887087
3068+484243744+484787481+484624884+483436943+481819728+480540278+479759314
3058+479171090+478604016+478253750+478383771+478901427+479304550+479063572
3048+478072018+476844243+476196774+476331831+476376179+475405669+473690764
3038+472264519+471693382+471862368+472366064+472645520+472277334+471347143
3028+470168995+468860790+467543035+466523733+465962806+465687030+465395176
3018+464776114+463693885+462592103+462198878+462456316+462409850+461516125
3008+460303908+459446334+458979485+458659397+458432935+458315833+458104235
2998+457404986+456012704+454214904+452554765+451386097+450818607+450777489
2988+450918623+450866497+450625484+450391556+450093972+449542178+448843658
2978+448281585+447832309+447082704+445803879+444454522+443728637+443680781
2968+443726483+443382190+442642066+441856379+441475378+441602830+441768830
2958+441431586+440521677+439362420+438370553+437771738+437363857+436805291
2948+436122990+435523792+434970506+434362834+433750545+433148395+432554824
2938+432097178+431843594+431707182+431604144+431369556+430739034+429813532
2928+429111783+428841390+428640975+428144503+427232024+425836687+424116885
2918+422652508+421917524+421698738+421421817+420887144+420337677+419937610
2908+419594080+419315006+419337267+419690451+419904862+419443777+418293550
2898+416876682+415529026+414353656+413464132+413015897+412978669+413111434
2888+413157206+412951199+412478689+411930091+411528600+411264806+410985731
2878+410675853+410417442+410179867+409840366+409271799+408358382+407184401
2868+406202327+405867237+406055810+406133705+405679844+404921523+404332397
2858+404024463+403731463+403233185+402573804+401954846+401558009+401354503
2848+401061294+400489636+399850640+399459603+399341909+399355210+399343438
2838+398987927+398029537+396808396+396019062+395846151+395846533+395609133
2828+395074217+394381879+393780493+393464712+393325348+393115660+392782896
2818+392306497+391500737+390353705+389197470+388274885+387551327+387046104
2808+386853224+386773350+386379951+385555959+384658552+384065258+383734439
2798+383313500+382625608+381876628+381347859+381068889+380846699+380481291
2788+379929323+379306789+378745375+378325479+378136107+378154791+378064428
2778+377526977+376638322+375776233+375065107+374320573+373400905+372361357
2768+371431930+370951190+371051138+371354938+371286177+370689098+369857014
2758+369022534+368179650+367387574+366876690+366718017+366637969+366335002
2748+365817207+365288195+364887538+364614402+364287958+363641044+362684044
2738+361782192+361148371+360586020+359942648+359407941+359154496+359032982
2728+358771550+358280530+357736654+357427714+357423095+357390103+356910370
2718+355995287+355070445+354408320+353844719+353149429+352379821+351716169
2708+351240985+350984623+350890232+350756807+350497284+350259918+350062941
2698+349667840+349016134+348376478+347915880+347490115+346949538+346403093
2688+346113635+346200802+346459283+346515924+346190731+345605112+344913816
2678+344108160+343167135+342229513+341479110+340989306+340779201+340845948
2668+341025180+341023721+340740618+340391150+340192679+340072937+339802058
2658+339302808+338705556+338161645+337739873+337472641+337359984+337319039
2648+337224058+337009751+336711125+336404303+336099356+335717035+335213722
2638+334663005+334161914+333735141+333362440+333036830+332790400+332663573
2628+332582865+332316744+331697301+330869905+330199724+329927526+329965414
2618+330015457+329852756+329475957+329013484+328568375+328196368+327953550
2608+327865549+327829953+327637733+327182379+326596517+326080007+325679211
2598+325362422+325207882+325318873+325558184+325555996+325095850+324383856
2588+323799140+323480302+323311662+323215084+323245332+323392023+323432863
2578+323103746+322420263+321720181+321331470+321296256+321421069+321460832
2568+321277433+320928556+320579226+320325017+320162976+320031600+319823822
2558+319528634+319318946+319268903+319128810+318662378+318026612+317543337
2548+317289023+317139762+317045719+317056589+317162440+317252524+317226582
2538+317075898+316862320+316661314+316516394+316407348+316269270+316069410
2528+315849998+315692784+315654445+315725880+315834232+315888859+315827043
2518+315620654+315275353+314857089+314514046+314414758+314587287+314822014
2508+314838440+314597844+314346934+314281021+314275742+314081994+313701757
2498+313385593+313297071+313373403+313500091+313625598+313686129+313591878
2488+313334612+313024005+312787507+312658735+312575110+312488533+312447207
2478+312514614+312628800+312626924+312407478+312008904+311555009+311189462
2468+311033846+311116116+311318928+311460514+311465897+311426307+311444748
2458+311462806+311334590+311059371+310811170+310722266+310774775+310898649
2448+311019051+311027108+310880695+310696949+310576929+310411276+310050799
2438+309596557+309320434+309354433+309611386+309924528+310121471+310060697
2428+309764849+309462159+309375652+309512480+309705429+309797701+309766793
2418+309703588+309676153+309650559+309589264+309559988+309664867+309907129
2408+310175751+310344807+310393218+310419368+310490109+310542409+310541541
2398+310631626+310947616+311358692+311579874+311493992+311235720+310994151
2388+310823776+310613949+310164152+309262786+307724646+305440897+302451161
2378+298936094+295119344+291203169+287344364+283614070+280051634+276843320
2368+274320381+272668368+271742363+271225575+270945563+271144832+272490734
2358+275589169+280386916+286393476+293462956+301458772+309081436+314239277
2348+315652812+313756488+310497541+307924541+306551013+305663399+304644687
2338+303383955+302100442+301022554+300103094+299201728+298441358+298051849
2328+297965758+297850530+297486824+297044527+297040048+297918701+299541612
2318+301162299+302065992+302233555+302271165+302718601+303582461+304552380
2308+305441973+306260096+306981953+307468388+307644876+307639424+307667137
2298+307831782+308086478+308335339+308518460+308617330+308616566+308502346
2288+308324851+308195038+308142459+308050395+307819558+307510687+307243733
2278+307051339+306895063+306724583+306475410+306114447+305715977+305399119
2268+305199085+305083094+305034544+305029751+305012596+304981063+305011137
2258+305142027+305312507+305435930+305491252+305529766+305568279+305488127
2248+305180714+304804957+304679068+304878719+305163177+305293511+305216276
2238+305008533+304851770+304953558+305303860+305628914+305730251+305727542
2228+305822176+305963519+305941848+305726708+305503824+305407453+305414851
2218+305481702+305577378+305608112+305502886+305347825+305281078+305329281
2208+305474062+305740843+306073607+306272494+306211616+305997691+305808111
2198+305692779+305603215+305513860+305474062+305582865+305860307+306124900
2188+306140284+305928930+305762200+305775710+305799811+305676596+305542684
2178+305621239+305888367+306142958+306278919+306290657+306153689+305928374
2168+305846867+306074753+306500101+306899891+307166255+307273217+307197683
2158+306971639+306697947+306480550+306403766+306538927+306878012+307275231
2148+307523953+307527634+307397543+307366948+307588235+308004172+308406427
2138+308605940+308560168+308383159+308264320+308339680+308565655+308733357
2128+308700330+308600765+308718076+309147593+309683932+310067226+310271600
2118+310477016+310775400+311039472+311163763+311286249+311616582+312162298
2108+312751320+313214696+313479741+313598198+313709085+313895609+314113492
2098+314303385+314487826+314726025+315049795+315438818+315800372+315999572
2088+315968837+315801032+315703064+315807908+316027007+316152306+316110389
2078+316032737+316076008+316264373+316500628+316665621+316750253+316939764
2068+317442903+318137533+318567189+318469394+318101416+317849916+317804318
2058+317884956+318052172+318203343+318182367+318061271+318148924+318591359
2048+319163434+319577010+319855425+320212151+320609995+320717270+320379679
2038+319864662+319526203+319464804+319576802+319734085+319858307+319929847
2028+319967006+319999060+320059869+320183709+320440002+320973355+321836832
2018+322704026+323003208+322530872+321715284+321140049+321042984+321301674
2008+321633500+321768279+321636104+321439197+321459686+321796131+322279580
1998+322680585+323125381+324111414+325723559+327083057+327204397+326205445
1988+324978816+324107941+323690024+323675404+323923327+324234039+324505820
1978+324708424+324801842+324804099+324807885+324961730+325518524+326599643
1968+327737159+328093122+327450236+326514802+325996486+325941824+326109422
1958+326423398+326808462+327028673+326958105+326774568+326774012+327141226
1948+327977443+329472588+331691293+333855648+334419596+332803249+330373538
1938+328774486+328327293+328455647+328682769+328861236+328988896+329112945
1928+329433832+330449453+332432458+334620498+335944295+336654171+337601274
1918+338162270+336980788+334573545+332951885+333148411+334469882+335494081
1908+335381875+334484225+333721354+333511597+333598243+333731703+334109197
1898+335077519+336481017+337570296+338071457+338848496+340417682+341528424
1888+340774096+338885273+337572901+337321435+337550745+337780262+337884168
1878+337890350+337934837+338272393+339560317+342886602+348474064+353946229
1868+355394249+352015628+347203782+344133199+343296150+343561090+343830163
1858+343704100+343359216+343176651+343406515+344201857+345781739+348339319
1848+352058413+356943119+361534824+362570101+358956094+354066041+351275991
1838+350918813+351453243+351957355+353376273+357040566+362072275+365360568
1828+365542994+364479830+363298661+361121213+358024480+355769763+355365772
1818+356064812+356736557+357417261+359052187+361797438+364203326+364697089
1808+363514252+362397677+363107796+366386747+371147473+374657643+374977176
1798+373295332+372677486+375247256+380467330+384381491+382801192+377359484
1788+373274739+372914157+374836284+376829604+378384308+379708314+380480700
1778+381073299+383284780+388691031+396454482+402454305+402857219+398846167
1768+393644082+389171806+387185988+388812788+392315422+394348436+394504885
1758+394632303+394873489+395103597+397494031+403899790+412061154+416600212
1748+415420258+411660601+408837178+408220686+409393104+410939300+411462339
1738+411996664+415811156+423723556+429892747+427780067+420597651+413828741
1728+409092151+406892512+407299108+409226340+412280705+418346545+429172418
1718+441953722+448368510+444220733+435076079+427254250+423485356+424507541
1708+429861005+437205706+443188755+447679540+454132598+463440821+470376043
1698+470967010+467083548+459916065+451547513+446608458+447020090+451051736
1688+457332404+467309107+480599142+488360266+483585717+473890312+467683996
1678+467292472+471501996+476719326+480192233+483450868+487969332+490196128
1668+486583753+481309156+480275581+483705355+486937493+486477555+484762963
1658+486662586+495428184+511855097+529880819+534314790+527007005+523892248
1648+527514660+529556946+523308818+514071752+509001668+509713037+515763285
1638+526339428+537429998+540351459+532986998+524651611+521871876+524312527
1628+528686592+532762829+536620557+539528891+539432451+537652431+538554144
1618+543468681+547765615+546240777+541497762+538784461+539425887+541738010
1608+543625131+544463882+545062871+546180975+547636635+548884656+549918510
1598+551170664+552879942+554886840+556806398+558263204+559131995+559620583
1588+560078403+560771331+561811332+563160898+564890180+567778336+573218343
1578+581322441+588106805+588017415+583763717+582902115+587239160+591960852
1568+592200753+589877934+589332773+592631033+601489598+618051186+638181427
1558+644850667+634477752+622577707+615671900+613152381+613337204+614711600
1548+617521792+624024894+635436246+649951798+664525415+674833041+673783491
1538+663611374+656240697+656503032+660756591+662942164+662759356+665112875
1528+672210450+681742044+691126113+700918028+711096952+717839538+719440153
1518+719107528+718285932+716337134+715110262+718152993+727401831+742414688
1508+758635039+763638654+751192198+735866510+728590988+729424530+735194523
1498+741668800+744434471+742896922+741631085+744848568+752160971+758426463
1488+758655390+754113381+749595959+748046394+749526572+752583958+756518991
1478+762269397+770576480+780158360+787653086+789102286+784321140+778630258
1468+776999152+780168987+785051609+788079129+790251784+795824105+806698076
1458+818585549+821500342+813555125+804358240+799461518+798653189+799909163
1448+800619490+799097291+796134434+793597760+792434719+793146088+796470254
1438+801870046+805908708+805681031+803581652+802924736+803254930+802434307
1428+800701309+800366948+802152107+804706493+807531548+811730306+816389766
1418+817094536+812177047+805606226+801099014+799330594+799189459+799627796
1408+800687835+802614615+804552995+805671307+807038132+810054540+813985961
1398+817080992+819038889+820061977+819384780+817486060+817024386+819529179
1388+822978714+823712101+821491799+820079202+822089191+826660233+831796161
1378+836982792+842764523+848516526+852068926+852548450+852116295+853106391
1368+855421083+858008044+860968191+864236377+865829629+864173936+860928810
1358+858755669+858181267+858124174+857928378+857606379+856953076+855894149
1348+855118949+855205770+855853933+856845071+858687602+861383539+863508338
1338+863620649+862175338+861075223+861634761+863385887+864712915+864642625
1328+863754004+863242391+863681492+864905586+866546068+868260800+869649782
1318+870582716+871731658+873832495+876160176+877030808+876323745+875889506
1308+876995454+879079761+881168444+882913597+884035868+884346267+884439546
1298+885014434+885626203+885152304+883389371+881317844+879710006+878188501
1288+876001538+873321576+871087731+869597342+867995408+865424492+862223123
1278+859673461+858840961+859742570+861344435+862362383+862394194+862214164
1268+862799470+864433493+866780205+869379528+871772567+873375613+873822354
1258+873488479+873121612+872955543+872784820+872906576+874142408+876763888
1248+880029087+882892482+884857950+886249502+887762602+889698690+891807306
1238+893798333+895668160+897456862+898979686+900065353+900891672+901871836
1228+903279502+905151273+907522156+910342766+913014185+914646680+915251782
1218+916059972+918089131+920962736+923737506+926384615+929502498+932795131
1208+934988345+935483706+935141218+935246027+936572846+939320528+943115607
1198+947169271+950723407+953146034+954037433+953876851+954001108+955259304
1188+957144411+958764265+960170195+962162889+965183950+968859148+972431273
1178+975237158+976915078+977505663+977337718+976866459+976599747+976775818
1168+977100664+977275138+977740355+979299643+981969951+984773267+986820901
1158+988268573+989900027+991939187+993766368+994875095+995496657+996212818
1148+997356343+998723585+999883085+1000674328+1001148574+1001444249+1002234450
1138+1004442944+1007741829+1010516807+1012111588+1013567456+1015741709
1130+1018447925+1020930562+1021993379+1021165463+1019980126+1020281565
1121+1021855231+1023450706+1024508244+1024301265+1021968583+1018842158
1113+1018017575+1020416379+1023441052+1023945858+1021787858+1020069168
1104+1021988586+1027605428+1033372156+1035501749+1033969131+1032031516
1095+1032428040+1035059175+1037595918+1038350489+1038736734+1041247640
1087+1045050290+1046955400+1047272536+1049625291+1054372057+1057824648
1078+1058537406+1059316078+1061407886+1061679737+1057474798+1050823130
1070+1046311403+1047051319+1052986825+1061080331+1067404930+1069792135
1061+1068210551+1064331361+1061147773+1060717631+1061885118+1062090153
1053+1061251193+1061561870+1064042423+1067534049+1069838115+1069353173
1044+1066959370+1065142746+1064947575+1064902567+1063220897+1060269987
1035+1058078510+1058105042+1060337429+1064022073+1068238125+1071858244
1027+1073741823+1073236808+1070790566+1067780062+1065547467+1064205298
1018+1062459103+1059980564+1059264958+1063039895+1069765325+1073573323
1010+1070673254+1064247874+1059620573+1057702127+1055846192+1052972448
1001+1051420244+1053604220+1058341401+1061240010+1059450961+1055141560
993+1052276428+1051675842+1051480254+1050947248+1051043514+1052127445
984+1053427176+1054091385+1053176440+1050047375+1045845214+1042699133
975+1041297648+1040474941+1038837237+1036381479+1034556035+1034183056
967+1033710338+1031186930+1027297043+1024307238+1022968750+1021944065
958+1019409336+1015190019+1011695338+1011148371+1012452339+1012598475
950+1010117713+1005750316+1001042445+997195552+994304305+991905709+990484986
940+990718914+991073973+988953619+984660817+981217811+980412746+981217672
930+981709630+981170859+979724089+977406549+974860290+973608553+974370694
920+976086745+977333064+977977964+979009873+980867614+982385229+981889937
910+979301449+976475074+975072131+974730060+973453527+969823198+965484417
900+963993334+966291496+969540581+971033956+970928382+970281191+969155378
890+967358966+965095393+962724789+960909346+960423987+961078888+961336640
880+959839445+957194211+955404120+955428291+955904898+954742690+951705029
870+948750924+948268135+951159174+956130839+960678821+962820638+962100170
860+959318177+955771404+953079009+952724366+954321717+955500039+954869447
850+953583816+953006705+953122072+953752872+954355611+952789238+947940789
840+942649626+940597061+942048623+944708651+946983337+948771761+950307018
830+951772332+953491648+955449475+957106280+958068246+958029073+956778864
820+954963074+953517485+952362431+951238562+951640574+955487676+961657318
810+966220998+966643986+964130093+961621062+960848225+961599253+962912876
800+964068555+964139886+962197895+958939225+956352126+955390576+955656384
790+956900551+959038408+961277185+963026228+964803886+966782064+967769521
780+966673991+963712523+959911471+956789907+956102362+958348154+961650859
770+963491722+963500682+963349685+964286300+965899208+966868051+966165364
760+963722178+961147303+960872743+963186602+965788287+966964525+967384526
750+967499267+966849159+966699620+968981529+972861692+975004689+972833770
740+967071279+961126813+958092417+958819483+962521907+967862453+973002896
730+976316506+978165287+979649493+979204558+974155311+965936992+959570303
720+958126103+960407526+963541245+965705981+966265936+965551720+965249308
710+967119273+970611246+972979073+972102190+968487697+963950827+959447991
700+955260207+952158577+950656104+949574882+947550863+945533859+944808807
690+944043609+941116245+936250640+931545061+928788281+928202558+927999885
680+926280848+923994771+923350358+923620125+921125819+912814013+899186109
670+885914932+882910957+893465153+905840138+911928865+915425213+921070810
660+926639102+926007955+918823629+909448033+900710184+894420451+891772647
650+892211124+894784123+899070048+902726354+901870447+896829743+892674187
640+892478738+894478030+896774525+899766554+902544518+902007831+896496979
630+887899430+879330567+872995063+870573895+873332828+879872047+884413778
620+882657304+877248205+872406909+868873402+865448524+861654626+858120701
610+856887231+860728290+869332993+877971451+883625174+886195812+884575611
600+880286838
##END=
