##TITLE=<SNM>
##JCAMP-DX=4.24
##DATA TYPE=INFRARED SPECTRUM
##DATE=3/5/2025
##SAMPLING PROCEDURE=Instrument type and / or accessory
##ORIGIN=Admin
##XUNITS=1/CM
##YUNITS=ABSORBANCE
##RESOLUTION=4
##FIRSTX=4497.3318
##LASTX=599.83466
##DELTAX=-1.4281778
##MAXY=1.7087679
##MINY=0.17657937
##XFACTOR=1
##YFACTOR=1.5914141e-09
##NPOINTS=2730
##FIRSTY=0.19849962
##XYDATA=(X++(Y..Y))
4497+124731595+125773215+126600600+126433705+125517274+124829031+124978341
4487+125731108+126463949+126850876+126973790+126818310+126066236+124657745
4477+123189590+122434342+122686669+123625909+124514053+124635759+123924239
4467+123026122+122594223+122820922+123614757+124676079+125393498+125246024
4457+124451421+123864818+124089101+124808160+125134336+124602959+123623456
4447+122865988+122527340+122351634+122078071+121710395+121465719+121498416
4437+121676350+121671144+121229562+120390258+119570365+119353750+119955419
4427+120884987+121336334+120958612+120063689+119052246+117952301+116709253
4417+115658447+115412880+116303843+117913536+119114101+118875623+117262578
4407+115360154+114202202+114061319+114584990+115236753+115635309+115655216
4397+115300406+114690357+114184945+114187202+114744104+115534942+116185320
4387+116456383+116236098+115471261+114237896+112934191+112090159+111798842
4377+111784928+112045935+112670816+113122996+112699327+111651920+110957525
4367+111089681+111704973+112358160+112947656+113429922+113592116+113471776
4357+113617322+114313702+114850529+114342148+113074671+112203204+112281567
4347+112801932+113022714+112701443+112057171+111455596+111248916+111600814
4337+112246538+112654561+112651077+112626105+112902037+113254506+113327551
4327+113147276+112944622+112817401+112797943+112960025+113281651+113527348
4317+113415923+112980868+112639101+112751594+113259207+113917496+114634851
4307+115314901+115649523+115461102+115081423+115008256+115260649+115417777
4297+115229188+114873666+114726369+115146901+116239104+117514240+118154842
4287+117881438+117183400+116631854+116434154+116550411+116797972+116987273
4277+117154533+117396944+117538416+117359490+116966421+116574672+116231042
4267+116021637+116214974+116914341+117751220+118183438+118103062+117934884
4257+118028575+118270228+118504296+118892187+119540420+120215639+120671631
4247+120864041+120754085+120354555+119972207+119997405+120491702+121234460
4237+121990663+122550027+122759095+122637810+122275490+121735471+121292747
4227+121415465+122119645+122674430+122393910+121513191+120927525+121195779
4217+122004980+122621143+122714768+122552621+122423340+122201641+121627014
4207+120878020+120640600+121374809+122576535+123218617+123035617+122795828
4197+123097023+123538417+123473247+123031628+122872365+123275359+123951243
4187+124521825+124794873+124735265+124482217+124252541+124081105+123887918
4177+123863104+124432254+125673916+127034044+127806849+127786774+127295276
4167+126728776+126300416+126060065+125950625+125957722+126187886+126573773
4157+126717006+126401186+125995148+126003351+126487086+127118109+127532799
4147+127576021+127354874+127003323+126505195+125951552+125677764+125870436
4137+126391616+127120647+127979193+128585684+128533061+128136762+128263665
4127+129205798+130211698+130327346+129418209+128233084+127647604+127983819
4117+128977358+130208261+131352599+132095787+132168673+131596667+130725996
4107+129973950+129612829+129686940+130107913+130865109+131935176+132942039
4097+133262607+132631181+131471974+130621462+130732765+131685386+132583343
4087+132658841+132062004+131466047+131222709+131270257+131546133+132135011
4077+133116649+134340970+135275435+135257092+134141481+132590778+131520823
4067+131322439+131676135+132008988+132066302+132054195+132250659+132579879
4057+132727166+132639487+132687830+133228393+134100581+134688523+134536713
4047+133859210+133322814+133315763+133549803+133483501+133007181+132488070
4037+132233280+132281849+132746820+133835782+135341241+136569457+137023530
4027+136840848+136411205+135929296+135487031+135273413+135422910+135805014
4017+136128251+136148551+135728374+134924679+134093428+133667540+133779742
4007+134264358+134937910+135699703+136509578+137416505+138416580+139202981
3997+139302037+138570263+137420035+136488660+136188093+136593044+137571330
3987+138820520+139831251+140117989+139651528+138911187+138422283+138374416
3977+138683776+139200593+139716417+139910166+139549382+138822496+138325539
3967+138603353+139698533+141124215+142230313+142632240+142357450+141680640
3957+140926955+140334790+139923828+139589645+139409998+139571714+139929043
3947+140090816+140045019+140192775+140711211+141289836+141559102+141509400
3937+141407929+141478070+141689610+141835493+141812215+141772870+141951356
3927+142405494+142967312+143358658+143440476+143386421+143488763+143821813
3917+144112586+143988670+143457508+143005384+143104187+143736437+144516217
3907+145224274+145976947+146829931+147538156+147834800+147573775+146689395
3897+145584880+145185649+145981610+147266166+147664966+146815689+145989803
3887+146251681+147212654+147953379+148434147+149038503+149350699+148931319
3878+148487846+148787037+149646557+150721549+152067483+153237926+153317431
3868+152604590+152221868+152256250+151952265+151192026+150638879+150746419
3858+151629151+153442377+155944082+157422096+156375307+154202551+152646932
3848+152229255+152841561+154044552+155159039+155774481+156068663+156299763
3838+156454251+156630340+156977023+157208628+157023924+156761213+157010188
3828+157797946+158838340+160309997+162443614+164364942+164735586+164088963
3818+163931432+164033532+163281738+161955215+161237131+161902911+163996246
3808+166406291+167602737+167892930+168724369+169973774+170284379+169781299
3798+169661165+170132167+170805962+171732628+173147898+174899447+176611277
3788+178125800+179495994+180740512+182018120+183846095+186594349+189949393
3778+193398503+196950311+200927390+205606485+211097955+216993178+222496016
3768+227399441+232166609+237197210+242856960+249626844+257636096+266395062
3758+275336447+284609748+295009064+307179405+320655875+333482708+344245869
3748+354129088+364951314+376226395+385070756+391020119+397162144+405807587
3738+417023716+429392637+441343162+452155687+461561107+469019749+474041903
3728+476806862+478200333+479472679+481527437+484223143+487098291+490776712
3718+496433148+503836658+511258370+517475041+522993198+529082638+535785947
3708+541932205+547249271+552750199+559206275+566342364+573075262+577853479
3698+579967601+580951777+583165714+587465158+593288825+599341336+603279463
3688+603501602+601665163+600323003+600315474+601121182+601866440+602598776
3678+604417649+607064815+608479710+608637316+609182270+609979701+609748910
3668+609125265+609762880+611953483+614878145+617621680+619932510+622254838
3658+624784960+626985451+628850393+631659958+636391433+642170643+646724511
3648+648865750+649307256+648880806+648186261+648248210+649845619+652452709
3638+654635596+655413139+655701459+658448252+665567487+674113565+676845901
3628+671627975+666024649+666000679+671584604+679793822+686353945+688287989
3618+687062572+686953806+689984350+694788560+698592227+699179055+696553238
3608+692986729+690832231+690821295+692658333+696135702+701092574+706846240
3598+712403648+717095197+720783581+723182727+723467901+721365614+717000663
3588+710150122+702640094+698740245+699921915+702918076+704127612+703761238
3578+704446120+707507301+711939444+715489773+716261099+714309826+711574569
3568+709997685+709887196+710063754+709721725+709425614+710072368+711930530
3558+715112238+719239282+721900980+720479904+716692343+715595094+719061975
3548+723488575+724387169+721465990+717928471+716473612+717467488+719589775
3538+721045233+720758037+719022199+717265537+717235274+719395315+722181435
3528+723754797+724041544+724161771+724703654+725457601+726194094+726930138
3518+727460560+726834331+724186491+720385521+717634158+717087481+717781801
3508+718169449+717916860+717633634+717598427+717752288+718233196+718828338
3498+718847664+718658896+720244170+724037649+727009765+726538071+724074054
3488+722472526+721978734+720877740+718545861+716354434+716139373+718113268
3478+720769573+723384978+726459343+728856466+727520636+722088100+716941486
3468+715845660+717488687+718179037+716567921+714013940+712206191+712016749
3458+713564119+716264320+719019203+720886204+721679103+721838357+721699328
3448+721147707+720341849+720018023+720651893+721876036+722763468+722718149
3438+722342936+722424435+721953041+719332467+715593521+713452581+713572284
3428+714444136+715144823+715794648+715882140+714499792+712231135+711175984
3418+712686275+715540036+717122089+716452263+715354115+716365895+719535467
3408+722078811+721626218+718892309+716522826+716413761+718749535+722118063
3398+724012480+722687287+719042349+716006937+715967086+718754853+721701575
3388+721911092+719397637+717309508+718181135+721048380+723276961+724126939
3378+724503875+724284845+722492077+719321830+715989858+713697155+713640076
3368+716301474+720347018+723621162+725262092+725899332+726610507+728234357
3358+730219788+730298291+727073137+722434398+719654795+720014727+722555524
3348+725951393+729249657+731372693+731433069+729550712+726532902+723397113
3338+721514306+721803001+723401982+724409641+724231960+724049410+724645001
3328+725116995+724259601+722079036+719561310+717737681+717290481+718393274
3318+720440653+722274470+723027368+722775079+722308928+722391176+723230818
3308+724332037+724886130+724789424+724995944+726294021+728294209+729944502
3298+730054317+727679665+723676219+720968453+721433480+723641986+725331756
3288+726426383+727621687+728528295+729136996+730416121+732359154+733996863
3278+734833433+734195893+731141303+726569457+723330445+723013585+724660133
3268+726547884+727465579+726860174+725184412+723704160+723234488+723556442
3258+724200274+725087332+726293422+727246923+726664141+723918321+720191060
3248+717742999+717901654+719776296+721224188+721230106+721244488+723631724
3238+728756614+734050122+736192784+734506535+731383705+729297748+728734966
3228+728776540+728667699+728325295+727605656+725987574+723142951+719796746
3218+717671687+718015064+720374659+722705639+722943921+720872122+718259638
3208+717091451+717638278+718379865+717971842+716807850+716029783+715605805
3198+714566909+712798337+711172988+710284282+710301661+711337111+712925980
3188+713791989+713063286+711337635+709967872+709798880+710497844+710617397
3178+708866727+705773935+703479960+703429172+704801557+705590336+705065233
3168+704322747+704086638+703422206+701281192+698398441+696568069+696425070
3158+696902383+696916840+696794740+697538575+699179654+700239524+699286098
3148+697096019+695930604+696423048+697062236+696897289+696401849+695498386
3138+693372654+690335443+687651123+685830639+684633388+684105963+684396979
3128+684994818+684881033+683450295+681111674+678921371+677638950+677280816
3118+677496400+677843822+677795507+677025006+675936820+675636590+676687846
3108+677879179+677252725+674750581+672548592+672252781+672990548+672714513
3098+670716048+668369113+667438084+668224391+669527486+669904572+668845002
3088+667186019+666512149+667618687+669429882+669891613+668144464+665236095
3078+662644660+661080586+660630615+661153247+662182554+662940771+662872455
3068+662013113+660750617+659545876+658873953+658847136+658720841+657466286
3058+655102721+652910245+652032326+652152553+651885357+650282106+647704754
3048+645480892+644855862+645957680+647600408+648316526+647615614+646084499
3038+644515855+643318380+642724661+642985190+643850599+644277574+643362500
3028+641331451+639079574+637187104+635890824+635381302+635589470+636012625
3018+636008579+635246917+633865843+632228508+630513570+628749267+627334072
3008+626850280+627149799+627469468+627583552+627904644+628265063+627707113
2998+625786103+623223246+621062306+619879437+619789174+620495479+621157252
2988+620725671+618897359+616411882+613977154+611683703+609874718+609341299
2978+610151989+611140921+610970581+609365457+607139910+605345307+604540872
2968+604573457+604742711+604261766+602916235+601270474+600015768+599412124
2958+599373509+599564486+599411637+598575442+597337029+596115171+595008970
2948+594106968+593607858+593369614+592917695+592023970+590883911+589847188
2938+589180658+588862038+588538062+587847749+586720987+585290810+583703215
2928+582140376+580910466+580391692+580675368+581146949+580725406+578810801
2918+575877187+573053764+571340698+571042078+571529166+571693026+570901176
2908+569449988+568037040+566937094+565757484+564077453+562191200+560781623
2898+559957675+559276501+558633680+558205545+557675310+556615365+555380585
2888+554600683+554255770+553966626+553481935+552526786+551047770+549712726
2878+549233541+549236874+548622406+547027020+545286351+544290564+543874601
2868+543236874+542185393+541289084+540911662+540852297+540905145+541012675
2858+540846492+539938722+538243859+536233746+534561505+533735684+533811603
2848+534202809+534030858+532955819+531532721+530527384+530051720+529517440
2838+528314009+526418992+524441689+523181179+522977055+523304739+523128219
2828+521853101+519908870+518330264+517740964+517672873+517033910+515390770
2818+513538338+512534125+512430265+512231310+511037580+509060164+507362192
2808+506646598+506571241+506293783+505406762+504185578+503077168+502168574
2798+501236946+500256328+499481070+498884093+498003440+496576671+494911359
2788+493492231+492541277+491983439+491617365+491267957+490708284+489517512
2778+487498036+485273238+483821787+483293613+482877987+481928381+480663451
2768+479628488+478948962+478333332+477545153+476653638+475874859+475278556
2758+474661503+473752010+472543560+471248105+469903399+468357527+466681316
2748+465184583+463986134+462968175+462115949+461525264+461111510+460566706
2738+459633168+458370710+457102409+456025348+454993118+453820175+452587642
2728+451489569+450617418+449970889+449439756+448794537+447906094+446875438
2718+445799425+444589590+443151847+441653317+440493483+439902161+439590919
2708+438982818+437846429+436474081+435219414+434205350+433488969+433092108
2698+432763974+432065909+430846635+429411851+428152314+427212634+426548015
2688+426062575+425628672+425135629+424521123+423675601+422470110+420990494
2678+419562078+418451533+417687586+417157089+416724909+416272578+415745377
2668+415153081+414495129+413751295+412928957+412024259+410954501+409635749
2658+408185685+406999408+406465203+406519324+406638539+406381980+405744478
2648+404935137+404098866+403309638+402569624+401790321+400952478+400206209
2638+399649532+399110271+398310518+397208999+396073472+395223943+394796894
2628+394727567+394770002+394515353+393679457+392504491+391599568+391234992
2618+391032141+390478086+389536832+388589773+387916090+387452336+387017796
2608+386547263+386067142+385610129+385157724+384571683+383715038+382755544
2598+382118116+381973582+381989687+381735000+381145813+380465576+379893542
2588+379445145+379055662+378677602+378293924+377903617+377485595+377005810
2578+376508872+376092722+375703576+375171469+374569959+374251377+374363214
2568+374621571+374725805+374706928+374694456+374623893+374398795+374123659
2558+373906576+373590802+372965547+372149015+371527393+371347951+371491475
2548+371614136+371469751+371099744+370705729+370427072+370304786+370316696
2538+370351378+370278568+370091673+369888074+369763053+369786499+369936576
2528+370008975+369789345+369359712+369021540+368858579+368596439+368006690
2518+367265740+366761535+366685616+366945060+367327539+367612937+367643986
2508+367414806+367035286+366565801+365976614+365310722+364750449+364413064
2498+364217855+364075155+364032870+364116018+364201000+364112684+363707321
2488+362966108+362161224+361722077+361798408+362125493+362328943+362224222
2478+361889609+361519452+361178172+360792996+360370816+359985416+359631963
2468+359387389+359523722+360125119+360799551+361084575+360964535+360726740
2458+360476848+360095605+359604098+359230046+359047570+358855245+358505650
2448+358113658+357869458+357807622+357761778+357490537+356916931+356242274
2438+355755486+355589003+355673986+355806423+355745973+355385104+354849402
2428+354365497+354032083+353797060+353631064+353563947+353566044+353589640
2418+353705110+353952194+354123770+353987363+353640877+353404168+353460536
2408+353754175+354099350+354312425+354344973+354301489+354302725+354390591
2398+354520968+354556737+354359804+353998262+353752490+353796648+353930133
2388+353700728+352761535+351027457+348472802+344880750+339947960+333683049
2378+326581642+319280681+312051406+304741400+297255435+289930298+283285997
2368+277582669+272846943+269153877+266648812+265482573+265882299+268136424
2358+272470438+278992115+287854716+299385363+313101370+326321974+335168620
2348+337268921+333330757+326765765+321105621+317236710+314155678+311208694
2338+308351093+305521265+302554767+299435851+296530328+294505683+293839266
2328+294376992+295408566+296270305+297045338+298529111+301239331+304683384
2318+307914512+310551434+312940093+315523194+318332423+321064010+323483344
2308+325657804+327796234+329940581+331906274+333510199+334738349+335653535
2298+336280963+336674715+336990527+337395441+337954328+338632992+339348361
2288+340005602+340545912+340961612+341235887+341304166+341136185+340834606
2278+340581530+340463363+340389729+340220400+339947886+339693761+339535930
2268+339437764+339349747+339251693+339096821+338865618+338664978+338640707
2258+338828127+339153077+339477989+339645445+339624808+339580800+339653423
2248+339774699+339830617+339856124+339950432+340126091+340327968+340519357
2238+340690334+340831760+340965545+341180493+341549152+342004216+342404037
2228+342702020+342929252+343073974+343131915+343216711+343482409+343932867
2218+344363661+344530893+344424749+344340328+344583703+345150118+345766347
2208+346188789+346419505+346690035+347219296+347934290+348536998+348925208
2198+349359448+350098076+351067570+352022794+352855244+353590764+354216318
2188+354689324+355075998+355532673+356115605+356713594+357213566+357639754
2178+358101148+358702208+359490313+360358644+361074163+361552711+361995940
2168+362628349+363461136+364444151+365678144+367328026+369427204+371883092
2158+374637489+377745600+381275891+385142592+389048171+392626216+395695338
2148+398378347+400951953+403620692+406450409+409413386+412435427+415469379
2138+418543183+421715190+425040870+428572734+432289358+436075048+439876430
2128+443781934+447861224+452009879+455954297+459321589+461801411+463364661
2118+464209771+464398838+463684892+461849577+459161174+456371234+454287450
2108+453419943+453907105+455586388+458152391+461312788+464654199+467293574
2098+467990591+465954148+461431479+455311289+448356889+441003792+433560431
2088+426198757+418852851+411439379+404188868+397611890+392141825+387835752
2078+384387859+381436081+378844384+376639099+374778577+373144464+371704512
2068+370543554+369713239+369075437+368338382+367357876+366370142+365758783
2058+365599641+365595933+365445743+365115137+364767603+364595390+364728501
2048+365174427+365830806+366662657+367867024+369783165+372680111+376717752
2038+382031261+388699176+396626966+405523387+414936523+424226098+432534382
2028+438917348+442649141+443499794+441786541+438193964+433444287+428024072
2018+422243926+416458387+410989782+405898975+401080757+396513780+392237070
2008+388224673+384462729+381036298+378013807+375320985+372775207+370199016
1998+367562037+365086223+363091129+361633349+360412015+359116860+357753726
1988+356544752+355650540+355048132+354578835+354093582+353568179+353047458
1978+352543553+352078001+351726571+351516567+351360460+351140793+350781984
1968+350262312+349661364+349162815+348915507+348907267+348986033+348972550
1958+348773145+348413475+347981744+347569265+347249783+347040116+346864383
1948+346644566+346442764+346405160+346531717+346617262+346504226+346277892
1938+346104406+346004029+345879383+345693087+345534994+345504357+345581999
1928+345673836+345742901+345827959+345982156+346269540+346712020+347133376
1918+347210906+346858914+346405160+346227704+346412314+346743107+346871948
1908+346627225+346218191+345988336+346014554+346114331+346155043+346179800
1898+346259015+346329541+346254296+346070173+346019835+346195231+346344523
1888+346229389+345960957+345775298+345741253+345797958+345874851+345935526
1878+345986950+346043468+346131148+346386658+347004086+347924402+348647749
1868+348616251+347892230+347092065+346682881+346690859+346901537+347112627
1858+347236262+347281619+347299709+347353118+347501211+347753837+348098001
1848+348639360+349520238+350505125+350923597+350496211+349780205+349409262
1838+349535369+349937886+350400479+351007569+351934553+352960040+353555033
1828+353627656+353569789+353509601+353281732+352998468+353008131+353384505
1818+353863503+354225570+354537673+354978955+355573984+356199052+356785281
1808+357383307+358041859+358781872+359676159+360788914+361985978+362960415
1798+363622712+364344299+365607319+367392896+368951090+369590914+369711366
1788+370210552+371416492+373073377+374870826+376693632+378411492+379817361
1778+380969256+382328382+384333401+386848842+389061692+390313064+390886745
1768+391379002+392155196+393550803+395701780+398117406+400036131+401395370
1758+402668540+403999464+405386381+407192258+409724178+412533219+414668878
1748+415841559+416635356+417623053+418961393+420519100+422018828+423335220
1738+424939670+427597697+431294358+434515618+435853208+436198795+436849594
1728+438031826+439706127+441983586+444760417+447828826+451371814+455661970
1718+460154676+463442566+464980834+465790700+466967276+468938624+471680885
1708+475005442+478623525+482214641+485858455+490043740+494773117+499099677
1698+502545360+505706656+508767013+511652984+514959339+519253090+524340152
1688+529841828+536039285+543071552+549232005+552787840+555091965+558162360
1678+562702970+568356147+574035655+578904398+583537444+589013801+595221109
1668+600920355+605739509+610502819+615631680+620653872+625184781+629703367
1658+634908034+641175568+648672787+656639079+662465556+665664118+668934966
1648+673386885+677863074+680950473+683235010+685962777+689358496+693113847
1638+696803280+699408422+699681611+698414471+697829591+698659944+700123267
1628+701096993+701165384+700652416+699621460+697929443+696199448+695223025
1618+694687510+693434827+691122724+688625224+686385481+684085438+681382241
1608+678382934+675633369+673669062+672627395+672377428+672867250+674041803
1598+675402803+676090456+675725356+674774626+673680074+672248212+670352371
1588+668470613+667078527+666118658+665313475+664592412+664176300+664411061
1578+665403813+666648107+667396810+667937045+669242762+671570147+674296115
1568+676901558+679798241+683545727+688236677+694057011+701665394+711096507
1558+719972479+726822570+733839556+742493951+752316083+762366309+772027914
1548+780859166+788761787+796063647+803056288+809548844+814117469+814797707
1538+813222995+812932129+814476577+816453168+818098143+820086121+822880330
1528+825926530+828641188+831196966+833942561+836563059+838562648+840229495
1518+842152378+844498265+847346783+850660253+854002488+857088539+860316165
1508+863947095+866772766+867468809+867208429+867483565+868482760+869842336
1498+871066329+871784545+872241033+873026591+874276952+875599074+876497742
1488+876864940+877157455+877790351+878604823+879322664+880152343+881298582
1478+882291784+882872169+883921028+886140021+888423884+889454240+889795895
1468+890315230+890776438+890690668+890421075+890936291+892656023+895044308
1458+896926591+897436413+897195884+897251466+897830128+898751194+899533231
1448+899405364+898149835+896614600+895579150+894942433+894518755+894616135
1438+895216671+895377947+894680706+894466245+895760127+897655818+898331935
1428+897316860+896050994+895822075+896368528+896723291+896494822+895804247
1418+894951722+894528568+894802131+895186183+894966029+894279500+893919643
1408+894198899+894452911+893706755+891870990+889999644+889019850+888930336
1398+889247795+889411618+888646510+886466619+883787692+882205116+881962040
1388+881498361+879302289+876168073+874421449+875421692+878964980+884050768
1378+889394015+893807056+896900897+899272402+901429971+902975244+903551584
1368+903930992+905331168+907917434+910599357+912240362+912931311+913715221
1358+915003260+916003279+915963802+915431208+915556529+916667486+918350738
1348+920410627+922883558+925320982+926925132+927577054+928152421+929506229
1338+931350009+932663067+933168320+933527129+934220250+935156972+936382313
1328+938198602+940385984+942146766+943031277+943430311+943952343+944807340
1318+945947212+947224315+948147778+947981857+946657862+945342407+945303904
1308+946294859+947015097+947259446+948170400+949926238+950840712+949540763
1298+946919440+945074536+944982924+945720916+945682413+944300514+942283922
1288+940262761+937993355+935199594+932326731+929825860+927464693+924990264
1278+922781608+921199406+919943128+918688573+917704359+917246373+916829511
1268+915698179+913735670+911291729+908367330+904674751+900427780+896393772
1258+893103672+890509017+888388902+886609917+884974231+883301016+881641285
1248+880130320+878821157+877733421+876843666+876058408+875416149+875129477
1238+875241914+875621097+876400737+877839341+879551508+880613775+880797149
1228+880945017+881879192+883577800+885533268+887370681+889028615+890685425
1218+892497594+894375681+896178262+897957546+899745445+901355962+902752168
1208+904292647+906283396+908615424+911126633+914053205+917716869+921716644
1198+924824868+926211635+926606774+927503045+929473120+932125379+935188134
1188+938481978+941328549+943298398+945072589+947495855+950305346+952471904
1178+953382333+953342108+953180681+953447503+954131186+955227087+956834907
1168+958659061+960500444+963000341+966727228+971103565+975003264+977652452
1158+978915622+979557357+980544866+981535296+981321060+980059389+979388065
1148+980406661+982967308+986268869+989170421+991034801+992711761+995409789
1138+998852551+1001838824+1003996992+1005658297+1006723560+1006846259
1130+1006035532+1004656405+1003621404+1004230554+1006735995+1009527658
1121+1011026337+1011658035+1012411982+1012993116+1013320838+1015183195
1113+1020036095+1026247897+1030584907+1031840586+1031407170+1030810305
1104+1030344229+1030086396+1030715621+1032386814+1033769387+1033794930
1095+1033696052+1035555862+1039573690+1044085985+1047617886+1049321589
1087+1048289060+1044584271+1040334379+1038169844+1039124618+1042615395
1078+1047210313+1050801617+1051454663+1049225932+1046455842+1045542716
1070+1047308592+1051638786+1057657101+1062600041+1063119002+1059368519
1061+1055222149+1053275446+1052618879+1051550769+1050232767+1050434868
1053+1053432602+1057977332+1061323238+1062892555+1064289735+1065502567
1044+1064619554+1062030142+1060905851+1062759369+1066006322+1068696709
1035+1070050518+1069815757+1068510713+1067791074+1068640903+1070076735
1027+1070911133+1071495489+1072608618+1073741823+1073680249+1072005760
1018+1069276870+1066486705+1064330560+1062917949+1062173740+1062001902
1010+1061765718+1060401497+1057766542+1055392340+1055179826+1057367583
1001+1060293256+1062131418+1061953736+1059210164+1054034037+1048246138
993+1044186661+1042541761+1042334566+1042360260+1041831785+1040487266
984+1038700865+1036865774+1034658542+1031582454+1028084636+1025601143
975+1025063081+1025334546+1024083512+1020522171+1015920587+1011417431
967+1006837645+1001704365+996420220+992190628+990185347+990163474+989711330
957+986065868+979446493+973187949+969655822+967747247+965308400+962389394
947+960520595+959927699+959258174+957867211+956813783+957140681+958383476
937+959268286+959208210+958577337+957889534+957153041+956003955+954598835
927+953947812+954468646+954823634+953577468+951288885+949365553+947963729
917+946580557+945544133+945534620+946384524+947126560+946954647+945947961
907+944979104+944734380+944842547+944492578+943599378+942513140+941272368
897+939988823+938906630+937727133+936032044+934439206+934087663+935136447
887+936730410+937925338+937799044+935663873+932284933+929845037+929802639
877+931554208+933299858+933648554+932644116+931653086+931890469+932829737
867+932797826+931107757+928657449+926994122+927456378+930087289+932951312
857+933981294+933564732+933405328+933520686+932696476+931212029+930664378
847+931568440+933038730+934160698+934374410+933308997+931028130+927996463
837+925007643+923443344+924327180+926764305+928982549+930831647+933139256
827+935170081+935046857+932544264+930270288+931114873+934884233+938482802
817+939599078+939107683+938868352+939353755+940712657+943601550+947449862
807+949851106+949168022+946461454+943945077+942537260+941730054+941120080
797+940756777+940476323+940320140+941008318+942695166+944181935+944308829
787+943362669+942467671+942271113+942596437+942880563+942681832+941922792
777+940870862+940091896+940442539+942693818+946753070+951184689+953771629
767+953364730+951234652+949624360+949058132+948346358+946650746+944100586
757+941047270+937942867+935668967+935117121+936676401+940034067+943844251
747+946300552+947192179+948555651+951981183+956128003+958163546+956975659
737+953894028+951120193+949850431+949425405+948670110+947663574+947451885
727+948216169+948443888+946354860+942328867+939252030+939340796+941246674
717+942105267+941737245+941899121+942465873+941810205+940147178+939044236
707+938511717+937676495+937008093+937544432+938906780+939187310+937143226
697+933259858+928276992+922848950+918396357+916381863+916152645+914958914
687+910698160+903965225+897264949+892750857+891273825+892366580+894046162
677+894075526+892774902+891788067+888857300+878815763+862811643+854206762
667+864794526+882939586+890966029+886908200+878139271+870603399+866210283
657+865785931+868862243+871963275+871882749+869167268+865740686+862235077
647+859549933+859801024+863280940+866656209+866358900+862347963+856829208
637+851744618+848821717+849197529+851830537+854121142+854420698+852388375
627+847753007+841154756+835034791+831486859+830288559+830413955+832036682
617+835381764+838525119+838537778+834776359+830211779+829213633+833339254
607+839467384+843368056+844245900+844910782+848918198+856463658
##END=
