##TITLE=<SNM>
##JCAMP-DX=4.24
##DATA TYPE=INFRARED SPECTRUM
##DATE=3/5/2025
##SAMPLING PROCEDURE=Instrument type and / or accessory
##ORIGIN=Admin
##XUNITS=1/CM
##YUNITS=ABSORBANCE
##RESOLUTION=4
##FIRSTX=4497.3318
##LASTX=599.83466
##DELTAX=-1.4281778
##MAXY=1.7412403
##MINY=0.18462662
##XFACTOR=1
##YFACTOR=1.6216564e-09
##NPOINTS=2730
##FIRSTY=0.20853363
##XYDATA=(X++(Y..Y))
4497+128592983+129543009+130609458+130951633+130552534+130053119+129711450
4487+129208921+128475458+128118351+128564709+129136697+128737074+127350604
4477+126083645+125807502+126435588+127420752+128328987+128862713+128804253
4467+128217894+127591867+127483126+127966873+128669830+129281440+129742389
4457+129992712+129841133+129156269+128055619+126926649+126304803+126561309
4447+127466320+128177858+128042874+127259111+126336936+125404111+124602274
4437+124423247+124903788+125277599+125022581+124527136+124400817+124690441
4427+124881854+124474034+123674668+123292182+123587668+123749125+123018391
4417+121819237+121207167+121627410+122630713+123501679+123800344+123409781
4407+122453130+121307629+120417624+119891958+119487924+119082447+118904845
4397+119204291+119864639+120436526+120513262+120088296+119558237+119346011
4387+119502157+119704000+119638667+119311865+118925244+118519878+117879250
4377+116886100+115827655+115150602+115036430+115410315+116143880+116929646
4367+117302181+117207416+117159322+117456976+117676994+117287938+116416936
4357+115707216+115631151+116129793+116747532+117008137+116823129+116568855
4347+116600382+116792888+116845035+116830811+116984660+117116777+116805597
4337+116036618+115217313+114751328+114804871+115225656+115587201+115544362
4327+115180521+114847241+114724450+114727611+114824673+115187853+115827241
4317+116288246+116099801+115376868+114614202+114091697+113850645+114014382
4307+114736506+115884690+116992296+117626667+117821397+117980787+118225835
4297+118103173+117275689+116222656+115761559+116112132+116908778+117847925
4287+118792162+119520094+119840757+119720999+119091020+117924771+116620239
4277+115849965+115899723+116414400+116843868+116976656+117008781+117191437
4267+117517871+117841226+118157258+118502465+118682117+118425251+117811932
4257+117288949+117218516+117563199+118026814+118453865+119053438+120069302
4247+121234375+121893510+121849248+121687625+121972985+122507730+122720783
4237+122432832+121895642+121355365+120877012+120412745+119904951+119482162
4227+119519947+120256709+121343236+122032795+121956877+121539510+121458703
4217+121838653+122291994+122621350+122984337+123374000+123470244+123094420
4207+122429606+121819338+121613379+122002564+122736836+123223183+123161995
4197+122910891+122937465+123127784+123050139+122771698+122840908+123397330
4187+123910105+123973315+123814532+123805609+123949810+124048746+124075458
4177+124233056+124715765+125431825+126050694+126421768+126751399+127175740
4167+127454043+127362035+127040600+126664877+126203450+125761999+125631067
4157+125728845+125564347+125024419+124623472+124714856+124997560+125035161
4147+124812193+124596953+124623344+125008302+125618285+125961847+125637343
4137+124921403+124502667+124712310+125355337+126135149+126905910+127542642
4127+127849605+127688295+127087215+126211471+125359674+124984061+125428811
4117+126507463+127619397+128359715+128710950+128712163+128358557+127781993
4107+127251622+127049623+127367016+128123019+128917708+129331969+129274667
4097+129037154+129025273+129342729+129662143+129621951+129273556+129023747
4087+129149451+129431209+129353756+128674709+127667675+126829771+126492871
4077+126647896+126997431+127217632+127191040+126982297+126755985+126726828
4067+126946267+127182209+127217476+127109075+126980450+126787658+126438500
4057+125988320+125624129+125477319+125499400+125575493+125672793+125799048
4047+125961461+126216286+126592469+127002815+127326254+127465401+127383399
4037+127215115+127132939+127083264+127010148+127178791+127761796+128386087
4027+128616130+128531739+128408802+128256000+128028245+127927315+128183261
4017+128712833+129146060+129138920+128686324+128180202+128003252+128025498
4007+127806353+127349373+127186087+127616511+128367728+129042585+129436924
3997+129455017+129177220+128939798+128996999+129217715+129334064+129361125
3987+129594963+130209367+130992082+131552152+131656997+131288901+130605765
3977+129952952+129629274+129554247+129408815+129108781+128901095+129004726
3967+129389179+129930751+130582112+131274070+131808585+132070183+132262735
3957+132671492+133242965+133657897+133864959+134285367+135219772+136208033
3947+136499495+136147699+135901741+136007689+135852691+134966390+133791135
3937+133289093+134184372+136376006+138678714+139482940+138386205+136776143
3927+136186798+136717711+137391723+137674979+138006586+138781904+139578835
3917+139595338+138559167+137011755+135739071+135121589+135164979+136093090
3907+138502214+142499981+146826855+149579403+150113579+149054003+146804039
3897+143780576+141309804+140825083+142337522+143989089+144058869+143512427
3887+144147009+145577144+146230839+146409277+147260321+147719883+146299709
3878+144431101+144410711+146403874+149331837+152489054+154767439+154715816
3868+153186644+152504546+152940502+152718214+151035469+149170692+148686807
3858+150582596+155580138+162969280+167711150+164737178+157637577+151824093
3848+149188188+149578200+151963837+155105423+158380018+161744185+164437622
3838+164746569+162429049+159570231+157688887+156460430+155340878+154707840
3828+154890882+155665465+157443086+161030671+165065110+166249443+164718948
3818+163577711+162923446+160701177+157477011+155796278+156946888+160354500
3808+163893384+165724557+167148480+170393909+174174479+175113800+173695924
3798+172757393+172400369+171432213+170432411+170889960+173185979+176784775
3788+181168317+185819935+190089866+194087807+199052562+205759230+213206887
3778+220077484+226811975+234719167+244308984+254975919+264995094+272456406
3768+277240729+280503176+283058761+286225074+291974521+300852717+311149432
3758+321114339+331384352+344048465+360479897+379992021+398895439+413409636
3748+424814950+436650890+449003832+458127848+463621091+470029802+480617381
3738+495486415+512108534+526240549+535049718+539672482+542941362+546435257
3728+550454902+554670197+557976419+558930075+556991779+552847239+547657375
3718+542498055+538654725+537690925+540025334+543208867+543669192+541310818
3708+538630062+537248243+537881318+540782055+545116253+549280530+552312190
3698+554024000+554949023+556789073+561251179+567935114+574034343+576934676
3688+576988743+575989584+574781544+573948409+574256236+576084193+579551955
3678+584096284+586890504+585515778+583085547+583242970+584096725+581368665
3668+575070846+568558192+563820309+561285729+561068542+563351898+567840432
3658+572682626+575089444+575135058+576543856+581792528+588723496+591510512
3648+587541846+581303534+577252133+576046298+576232023+576080995+575562964
3638+576556316+580021763+584263006+587663691+591383301+596713571+601106247
3628+601018254+598726812+598478602+601700398+607646945+613717469+616401864
3618+615516462+615068451+617523234+621675420+625658530+629467493+633720461
3608+637561475+639420637+639145192+638391560+638870997+640851673+643652361
3598+646571917+648310374+647364217+644807363+644457452+648880598+656347092
3588+661349650+660067989+655069033+651060414+649892474+650755124+652202846
3578+653349762+653923220+653913369+653489726+653031680+653391957+655572802
3568+658933056+660585579+658571603+654274675+650147777+647205580+645438307
3558+645031718+645772560+646205466+645043848+642702675+640350917+638643040
3548+638217486+639645066+641968964+642962389+641693372+639703801+639241124
3538+640806463+642550067+642577045+641553039+641484674+642559329+643061040
3528+642339679+641920079+642495375+642378786+640526314+638327091+636774101
3518+634626188+630897131+626973050+624782942+624607178+625433219+626108048
3508+626180089+626192586+626544041+626556464+625732335+624782722+624193533
3498+623344997+622017245+621208920+621687181+622887760+623427550+622046576
3488+618720138+615338530+614247408+615769854+617827716+618289658+617062027
3478+615271892+613700451+612976296+613922711+616394071+618534743+618502472
3468+616867812+616016336+616914491+617832127+617047546+615040921+613139894
3458+611568013+609832128+607870087+605825458+603736868+601687239+599642426
3448+597847733+597378623+598948520+601335858+602762703+603409414+604298197
3438+604713459+603441575+601587154+601123191+601362836+599919856+596954025
3428+595163742+595254381+594803760+592431896+589971857+589343303+590151150
3418+591235875+592193685+592719324+592375514+591379589+590444862+589923597
3408+589685091+589467756+588991369+588124309+586753627+584305091+580254755
3398+575690726+573364844+574878946+578367549+580406739+580233033+579955971
3388+580696629+581303277+580871622+580092260+579750398+579711952+579468962
3378+578766345+577955300+577771486+578224350+578362403+577900314+577913914
3368+579059727+580269899+580080608+578483439+576681321+575555687+575000680
3358+574531681+574154975+574560460+576421828+579439998+582267629+583598138
3348+583282262+582234402+581327830+580556738+579345463+577407828+575045521
3338+572921941+571713901+571728897+572680164+574015120+575481147+576898141
3328+577602522+576918577+575173982+573550017+572798700+572692881+572586548
3318+571912086+570458226+568675478+567299576+566489928+565975242+565945470
3308+566888798+568569439+569865618+569760498+568405179+567023286+566644154
3298+567162295+567805992+568085223+567950478+567489785+566928199+566743798
3288+567406865+568741050+569728557+569630641+569068283+569085080+569635860
3278+569958389+569815925+569503063+569138376+568557015+567666285+566700095
3268+566229222+566788970+568309725+569871315+570231849+568912477+566660216
3258+564504768+562677877+561055677+560121208+560421389+561477850+562358804
3248+562932703+563509248+563777967+563200870+561952252+560471671+558704985
3238+556620586+554788218+553892415+554137317+555172864+556224215+556497749
3228+555894997+555074837+554487375+553873927+553046159+552553930+553057884
3218+554298563+555154192+554818615+553539306+551944709+550212317+548338783
3208+546723677+545887087+545858124+546181167+546350389+546037601+545051379
3198+543387021+541414946+539812226+539006107+538635796+537894991+536602707
3188+535447191+534956469+534909900+534991681+535202179+535262973+534472253
3178+532604196+530335064+528482482+527201776+526106685+524982190+524072200
3168+523567622+523175184+522530715+521734335+521102657+520622631+519950375
3158+518801401+517269362+515759964+514521490+513388689+512098243+510728847
3148+509779895+509758283+510532095+511171235+510661253+508753501+506044296
3138+503481599+501795371+501016119+500596813+500215733+500061508+500084223
3128+499699320+498696118+497684719+497125044+496632926+495713710+494578850
3118+493776296+493389555+492956834+492037838+490708653+489475067+488663361
3108+488028080+487156022+486095040+485284583+485040380+485369121+486005504
3098+486430911+486214679+485461303+484579945+483714245+482900517+482532448
3088+482921651+483492316+483174198+481685824+479839600+478573523+478105186
3078+477996573+477712822+477048982+476158105+475269175+474438209+473597943
3068+472744666+471966407+471320762+470790381+470348875+469946845+469505780
3058+469113820+469037736+469198688+468932836+467810142+466372491+465450482
3048+465087044+464739669+464185765+463510017+462539564+461095921+459532052
3038+458306553+457345068+456394132+455540782+454928915+454487776+454154883
3028+453835441+453260219+452367247+451437408+450541017+449495105+448501276
3018+447973909+447739777+447246777+446432240+445711724+445289184+444905053
3008+444156198+442972196+441793560+441098589+440828290+440592651+440206204
2998+439627491+438717500+437518539+436416097+435650041+435024500+434305344
2988+433511611+432725964+432019819+431602204+431634071+431822479+431564787
2978+430646269+429489283+428561025+427879543+427267197+426671245+426043389
2968+425323130+424623491+424056870+423476686+422747899+422042526+421539602
2958+421103021+420495013+419698707+418895418+418217758+417610485+416993288
2948+416471509+416177429+415984904+415655245+415172205+414654321+414071821
2938+413310690+412386182+411421646+410561276+409985686+409787354+409757545
2928+409553148+409082716+408417994+407451437+406115929+404771637+403826876
2918+403176967+402516251+401950916+401809335+402022810+402032881+401272044
2908+399722950+398049550+397001690+396618736+396292568+395656405+394983708
2898+394590940+394319427+393873400+393334309+393010200+392930771+392771069
2888+392244143+391383662+390429345+389555265+388762634+388009957+387394304
2878+387119631+387240372+387478694+387356960+386562860+385252345+383991966
2868+383259688+382942452+382495653+381661746+380764032+380204357+379995807
2858+379932919+379910204+379900317+379825152+379571723+379110112+378599102
2848+378264958+378084085+377705761+376803747+375448906+374071864+373099537
2838+372620761+372364465+372006578+371465685+370890684+370436093+370085226
2828+369655261+369011416+368285166+367760152+367535025+367441335+367274539
2818+366939256+366393953+365607351+364582132+363407392+362333987+361701133
2808+361622329+361812134+361872817+361655556+361215630+360592185+359776877
2798+358781687+357715670+356833430+356314407+355957438+355409819+354682981
2788+354054206+353573152+353082210+352549954+352019059+351395394+350536530
2778+349454855+348366490+347554159+347067959+346576024+345681030+344355556
2768+342963335+341975607+341676124+341900148+342022176+341433759+340101706
2758+338557501+337392097+336836686+336701720+336572892+336133555+335410392
2748+334666279+334035152+333392961+332602316+331689054+330703458+329591827
2738+328351185+327218457+326518670+326280201+326162768+325882140+325534360
2728+325331434+325179781+324742833+323871693+322817217+321975224+321477225
2718+321108642+320611672+319931072+319164280+318435200+317820245+317301957
2708+316852439+316542480+316389945+316187349+315731619+315106483+314511670
2698+313963574+313339614+312565949+311659303+310719651+309907063+309304678
2688+308822080+308335585+307890771+307651071+307633869+307613580+307355723
2678+306849876+306218382+305521977+304782789+304076479+303450754+302853038
2668+302255965+301753279+301433930+301251697+301078524+300820170+300452799
2658+299988597+299426717+298754424+298007554+297282903+296676990+296258989
2648+296055584+295970826+295785689+295350046+294735459+294139874+293691954
2638+293355550+292966182+292405129+291780048+291334021+291139971+291019707
2628+290777728+290378472+289913921+289519425+289289005+289204008+289175431
2618+289125389+288963720+288595872+288071648+287590850+287252866+286929528
2608+286477896+285971462+285616938+285491234+285477230+285464090+285451814
2598+285416841+285296780+285153581+285077478+284923216+284475204+283855747
2588+283423614+283285009+283199148+282952758+282590001+282242534+281923717
2578+281592716+281291892+281091079+280979857+280914120+280886351+280895595
2568+280929575+280981915+281042488+281112544+281227717+281406587+281630133
2558+281900892+282209785+282429766+282375202+282000481+281472324+281013433
2548+280686769+280375855+279976269+279505505+279027042+278605788+278321191
2538+278192620+278132856+278058243+277983611+277944099+277864560+277595437
2528+277152038+276815358+276821478+277069982+277315655+277441983+277375731
2518+277024331+276479138+276013447+275767645+275645213+275553196+275554262
2508+275715048+275934901+276041271+275993269+275841671+275545753+275030755
2498+274409570+273951377+273793678+273794744+273717374+273488424+273178264
2488+272792001+272294406+271809584+271523057+271385776+271165096+270759629
2478+270258524+269775301+269396977+269187288+269098284+268962381+268654922
2468+268219793+267806460+267516442+267315353+267090722+266797120+266510795
2458+266335288+266297247+266334700+266326522+266149729+265806654+265491660
2448+265399367+265435736+265276016+264793399+264270351+264045481+264092528
2438+264113773+263940857+263665173+263417993+263193105+262935486+262701796
2428+262605055+262609319+262536543+262338965+262219969+262393693+262808441
2418+263180075+263274868+263134554+263006810+263056228+263197773+263248551
2408+263187573+263197093+263439679+263844503+264168502+264252874+264156501
2398+264052777+264059632+264160838+264251018+264255759+264201894+264128659
2388+263940894+263410679+262335583+260631088+258249539+255095392+251088630
2378+246291387+240976059+235574061+230453426+225691652+221191430+217017541
2368+213408196+210478827+208176597+206582606+206088687+207150128+209923122
2358+214293689+220172239+227645882+236948235+247818979+258501810+266252442
2348+269254697+267987150+265004081+262638705+260776694+258127548+254543013
2338+250832169+247480645+244307293+241052583+238019123+235907726+234963259
2328+234653301+234349371+233989756+233981136+234689450+236111002+237929274
2318+239761439+241356054+242710436+244054159+245607534+247353030+249122987
2308+250810465+252358897+253670440+254709479+255602819+256463245+257209251
2298+257726399+258080464+258411502+258767938+259169784+259661903+260223047
2288+260776235+261281897+261693356+261917913+261942980+261876967+261778481
2278+261568902+261180544+260694086+260281874+260070990+260067315+260137628
2268+260073949+259793193+259467724+259328053+259386623+259501006+259597728
2258+259652401+259566265+259262684+258857327+258572748+258477018+258437176
2248+258377154+258407992+258593019+258799841+258936479+259101291+259346725
2238+259543422+259635255+259792513+260136635+260504704+260696181+260809149
2228+261085440+261536373+261989494+262418191+262975403+263772076+264800879
2218+265998149+267263105+268489394+269659907+270877871+272262852+273841368
2208+275579237+277459589+279440577+281408756+283270123+285032086+286762567
2198+288525540+290342526+292185956+294031629+295884102+297731116+299538233
2188+301259930+302818323+304148666+305238391+306050814+306571509+306988003
2178+307569070+308316730+308937014+309161920+309000748+308675021+308338048
2168+307938002+307383638+306682272+305847538+304815336+303500301+301932425
2158+300334355+298925428+297670911+296437583+295244889+294187160+293359814
2148+292840405+292580305+292832723+294748819+299529209+306903374+315444339
2138+324193523+332963327+341544723+349708945+357593752+365487271+373539131
2128+381782525+390221309+398868240+407563210+415787343+423011252+429071116
2118+433885928+437224201+439077409+439970860+440823879+442717150+446760539
2108+453869293+464376195+477843744+493190929+508573179+521354395+529381409
2098+532358597+531208557+526925890+520525009+512912780+504542286+495370194
2088+484680067+471512809+455863862+438598670+420452046+402190635+384893319
2078+369305827+355707207+344265910+334810507+326868986+320293002+315131955
2068+311104628+307841243+305127187+302685158+300355692+298278129+296509238
2058+294990615+293840097+293110980+292674840+292609452+293151117+294424434
2048+296653301+300187830+305279740+312372873+322240561+335384737+351816280
2038+371420550+393758760+417629929+441336801+463081302+481182165+494606123
2028+503175867+507234326+507616656+505517371+501929491+497409531+492043903
2018+485482217+477547606+468675585+459359779+449630292+439284636+428245663
2008+416670135+404845001+392999577+381356419+370299657+360186258+351016188
1998+342546859+334738393+327864948+322063951+316966307+312081991+307420982
1988+303329462+299939124+297156372+294901777+293072368+291497619+290059380
1978+288714059+287434713+286226434+285143252+284297492+283836524+283749891
1968+283709424+283314799+282535125+281722702+281174734+280867275+280657126
1958+280546198+280592583+280716872+280767024+280667142+280438045+280191986
1948+280140529+280518245+281364300+282238674+282350209+281389055+279990750
1938+278954193+278461633+278284362+278263944+278364820+278528859+278669209
1928+278834260+279319155+280327172+281517405+282382094+282998409+283638651
1918+283906800+283278889+282231489+281777853+282255949+283147856+283728481
1908+283707715+283369087+283159967+283243916+283508408+283831746+284200715
1898+284640916+285067113+285302146+285465524+286057855+287179631+288025942
1888+287812118+286828286+285892438+285403885+285320377+285442809+285541368
1878+285529515+285526905+285723363+286421955+288055567+290599354+292859150
1868+293138013+291294619+288979892+287569900+287154876+287198560+287330126
1858+287475898+287688454+288029232+288488289+289022161+289665656+290608157
1848+292235411+294753524+297279650+297948966+296294311+294147023+293112211
1838+293190390+293587642+293965708+294907805+297039619+299727854+301344872
1828+301429869+301069647+300733059+299895716+298641401+297826864+297826993
1818+298257785+298726839+299351313+300490933+302099442+303504638+304074586
1808+303997105+304060563+304922221+306730201+309017288+310841055+311516104
1798+311463912+311996792+314135552+317459454+319772619+319181151+316892428
1788+315513660+315982144+317507530+319184055+320852677+322429337+323563609
1778+324457574+326155968+329572089+334260609+337945780+338519054+336682240
1768+334426707+332986814+333150706+335190007+338030318+339983647+340912861
1758+341823256+342906768+344131936+346456606+350671238+355650016+358942345
1748+359686826+359299975+359309715+360299759+362141426+364118132+365423647
1738+366618492+369458362+374134790+377312074+375965062+372304113+369260103
1728+367513045+367113330+367956462+369494456+371667436+375513669+381733897
1718+388622559+392257559+391135747+387935711+385416311+384767468+386363535
1708+390007871+394560727+398545785+402171780+407064550+413090526+417321257
1698+418476443+418027843+416138211+413260409+411860800+413363655+417059301
1688+422183961+429302528+437823388+442877367+441278617+437461494+435976355
1678+438040649+442927538+448504804+452858850+456531230+460568628+463533356
1668+463631089+462821882+464259459+468244885+472322604+474496650+475911513
1658+479150326+486023698+497004965+508887437+513675234+511978494+512403056
1648+516964696+521366046+521350204+519065856+518575722+521132576+526638757
1638+534764422+543608399+548740005+548503411+547348923+549188936+554334326
1628+561007785+567792466+574997004+582966055+590692263+597858575+606217123
1618+616920225+627245775+632395944+632443505+630946972+629625615+628346306
1608+626955261+626096213+626652470+628976441+632976238+638543727+645383100
1598+652700220+659612296+665726484+671022498+675404772+678664389+680863980
1588+682620962+684701980+687248982+689749085+691892073+694226482+697846008
1578+703382329+709860617+715149132+719457748+725413595+734231732+744317196
1568+753284561+761346566+770287908+780954328+794027124+811532623+834148448
1558+853944250+863327759+867691141+871722254+875098606+876873966+877317015
1548+877444336+878292357+880190333+882742261+884908992+883467004+875024286
1538+864117854+857547309+855440269+854068851+850663536+846469376+844003161
1528+843549894+844003235+845070685+847302253+850182334+852003932+852068695
1518+851003082+849299101+847702740+847311736+848497098+851237802+855992188
1508+862102481+864729978+859926708+852943474+849224047+849232501+851366226
1498+853174077+852160951+848618979+845792856+845667152+847224332+847917024
1488+846286187+843317379+840940407+840249478+840989659+842299916+844040358
1478+846869936+851048365+855654406+858484940+857213276+852601060+848458726
1468+847302915+848853185+850865690+851003303+849827277+850193287+853444524
1458+856936802+855510545+849452004+844303380+842386217+842814785+843895689
1448+843933179+842276172+839962566+838140012+836714343+835549932+835557650
1438+837026911+837644475+835003452+830764157+827793805+826520965+825909502
1428+825572161+825880686+826644904+827242547+827853422+829022244+829832775
1418+828389096+824992602+821813112+819852358+818599880+817210893+815482654
1408+814088448+813643707+813631578+813092597+812333744+812558467+814011702
1398+815552636+815918279+814788124+812828178+811243579+810775241+810891168
1388+810124377+807758651+805452544+805807527+809484097+814924339+820445149
1378+825682721+830834727+835529496+839222679+842186562+845044295+847591519
1368+849251687+850579660+852897750+856076873+858029099+857377499+855462396
1358+854418689+854787787+855474598+855267739+854251231+853443568+853311984
1348+853570080+854299895+856066287+858751564+861380825+863347754+865002850
1338+866826654+868656559+870129054+871510249+873636843+876995773+881024607
1328+884675522+887674690+890772436+894807371+899879838+905264065+909828058
1318+912857145+914889645+917314179+920874970+925072144+929060253+932548562
1308+935550596+937753863+938825944+939193866+939715572+940740534+942095926
1298+943467785+944181134+943461610+941539376+939499304+937791280+935944467
1288+933763328+931600492+929411928+926644613+923210261+920067821+918540928
1278+918952956+920048341+920113398+918740657+917134739+916674782+917522582
1268+918648474+919112915+919248910+920231383+922394438+924505816+925050605
1258+924015426+922844913+922731559+923451671+923847380+923093967+921196065
1248+918344066+914557156+910309995+906675914+904235575+902461759+900608845
1238+898483647+896001555+892892708+889258701+885725404+882826504+880806059
1228+879917902+880238776+881364521+882861201+884722054+886916352+888947677
1218+890354453+891204533+891818054+892607192+894198187+896873981+899826249
1208+901758701+902414565+902861805+904213007+906699805+909930385+913217421
1198+915746193+917230303+918381997+920098254+922339526+924327038+925764836
1188+927340467+929678552+932143590+933638874+934584517+936579821+939930739
1178+943120006+944967479+945971490+947315342+949491629+951914399+953737908
1168+955205625+957522245+961041429+964451963+966261212+966330018+965608730
1158+965099153+965540438+967411141+970362380+972748468+972907987+971377859
1148+970758383+973015606+977660241+982592449+986057161+987832447+988961353
1138+990486556+992786121+995963700+999814638+1003243403+1004769561+1004480884
1128+1004529695+1006474350+1008970998+1009275995+1006755382+1003784516
1120+1003247960+1005999838+1010586693+1015009471+1018597093+1021643749
1111+1023826800+1024463624+1023719548+1022372535+1020961054+1019982552
1103+1020139865+1021820690+1024891751+1028847295+1032321122+1033480388
1094+1032159619+1030382495+1029962895+1030830396+1032061923+1033399305
1085+1035078513+1037000380+1038625925+1039019869+1037301774+1034000771
1077+1031567857+1032674709+1037711524+1044143426+1049029323+1051867502
1068+1053654477+1054606442+1054605560+1054913423+1057194023+1060678583
1060+1062441666+1061102593+1058627778+1057679929+1058916602+1061904302
1051+1066335755+1070874828+1073434327+1073741823+1072975105+1071344047
1043+1068433313+1065178106+1063506544+1063658785+1063388706+1060815092
1034+1057234380+1055840615+1058258533+1063399512+1068891726+1072547052
1025+1073439252+1072532129+1071310526+1070144792+1069280231+1069442396
1017+1069816566+1068436841+1065735980+1064215115+1064178359+1063632983
1008+1062335664+1062041620+1063034016+1063681867+1062948229+1061384287
1000+1060349769+1060494291+1060260600+1057469100+1052952816+1049989889
991+1049788543+1049826180+1047115983+1041942953+1037095209+1034299004
983+1032763951+1031018069+1029265277+1028463715+1028179523+1027341279
974+1025753592+1023310974+1019314412+1013784634+1008078356+1003626688
965+1000916197+999380042+997769125+995120751+991381697+987024857+982529230
955+978339995+974768398+971738723+968970232+966349645+963927464+961737135
945+959780424+958114449+957049424+957316636+959340903+962394763+964887589
935+965612773+964669923+962925658+960863312+958398421+955787170+954132367
925+954348269+955731375+956641439+956805000+957467039+959003194+959924138
915+958759580+955867664+952941786+951721213+953127254+956384518+959259968
905+960143641+959106771+956372022+951654318+946026917+942348804+942367622
895+944625581+946288248+946046839+944477015+942946226+942644170+943724779
885+945160739+945526676+943849968+940258229+936230866+933615424+933083867
875+933915348+935339106+937176582+938875270+939291709+938056580+936331355
865+935407030+935345501+935814133+936836080+938063123+938607103+937984466
855+936521160+934944206+934055533+934229827+935013012+935556257+935279636
845+934404342+933709959+933467153+933228169+932943829+933146204+933554704
835+933179284+932320678+932408082+933731645+935530160+937836856+941141021
825+944864270+947579686+948278333+947033134+944735626+942328882+940575796
815+940776701+944382701+950656335+956086947+957849369+956674519+954839468
805+953058080+950349427+946246935+942497516+941799898+944425558+947237714
795+947476110+946339338+947065993+950424702+953721221+954190000+952091266
785+949904099+949518387+950909065+952829094+953616836+951743707+947299390
776+942669311+940302630+940524780+942357698+945081127+947942756+949973860
766+951155694+952339365+953421297+953117183+951232439+949648207+949724806
756+950050973+948723368+946580380+945940542+947563514+950603775+953884636
746+956135758+956450972+955248409+953890149+953324631+953826783+955407633
736+957494238+958862642+958472226+956097385+952525421+949335051+948077428
726+949078278+950934573+952015550+952551370+954030408+956208387+957079416
716+956141418+955026700+955053385+955947203+956844476+956907548+954990459
706+950554596+944879928+939878252+935587278+930761955+925990441+923585020
696+924191043+926022197+927037896+925774319+921416671+915512061+911602168
686+911444193+913458169+913998106+909714557+901506192+895081787+894960053
676+899360999+902412654+900229456+892797291+882721825+876556252+880258183
666+889281342+895359805+894927120+888974802+881297406+876042779+875277017
656+877424488+878239576+874900053+869152022+865420539+866160278+869484585
646+871659623+871636246+870766540+868958100+865188024+860777742+858166638
636+857465418+856850941+855316109+852905028+848999545+843483440+839524000
626+841404774+848662498+854572474+852976113+845486683+838765589+837480473
616+841179905+844611757+842038952+834262096+828549423+830111601+837152541
606+844485025+848865388+849586382+847347463+843316276
##END=
