##TITLE=<SNM>
##JCAMP-DX=4.24
##DATA TYPE=INFRARED SPECTRUM
##DATE=2/5/2025
##SAMPLING PROCEDURE=Instrument type and / or accessory
##ORIGIN=Admin
##XUNITS=1/CM
##YUNITS=ABSORBANCE
##RESOLUTION=4
##FIRSTX=4497.3318
##LASTX=599.83466
##DELTAX=-1.4281778
##MAXY=1.7522619
##MINY=0.19063351
##XFACTOR=1
##YFACTOR=1.631921e-09
##NPOINTS=2730
##FIRSTY=0.2088197
##XYDATA=(X++(Y..Y))
4497+127959440+128067679+128614492+129026650+128596723+127060058+125238266
4487+124394867+124961148+126514669+128574069+130657566+132014779+132109906
4477+131261394+130411438+130227302+130497882+130515395+130002486+129310306
4467+128686025+127886793+126797522+126029317+126451190+128061260+129663194
4457+130066586+129381044+128655902+128552575+128883055+129107524+128862802
4447+128223930+127598014+127275131+127196248+127176424+127077937+126724957
4437+126002371+125170085+124787914+125066347+125491169+125481709+125238778
4427+125401931+126016945+126480729+126452386+126182691+125891840+125436292
4417+124841257+124560276+124824274+125264801+125557671+125842258+126175049
4407+126307732+126261502+126374562+126633017+126565274+125832735+124642967
4397+123682462+123542584+123980144+124110992+123600046+123084744+123186372
4387+123715234+123993740+123525198+122340307+120963965+120005597+119671427
4377+119727729+119879834+120037720+120253925+120520835+120675688+120571859
4367+120360594+120411463+120768195+120859852+120113014+118815957+117900852
4357+117811313+118096485+118229670+118315073+118807410+119889943+121209663
4347+122062978+121901249+120795990+119382457+118322716+117827712+117649209
4337+117462890+117201705+117022463+117061498+117280387+117500062+117570125
4327+117494785+117329220+117068930+116815398+116862368+117371652+118050208
4317+118414748+118430891+118558744+119016137+119399988+119352050+119162471
4307+119265917+119592800+119874511+120169170+120664083+121212658+121399279
4297+121017180+120372884+120030725+120226057+120678884+121014277+121142687
4287+121171395+121113979+120768341+119951276+118885727+118166182+118193064
4277+118758504+119284992+119405458+119262046+119287402+119751991+120533235
4267+121267143+121658555+121635380+121267225+120716458+120352065+120582268
4257+121313858+121913366+121981036+121832465+122069480+122965465+124204193
4247+125087768+125248064+125044469+124885917+124608662+124041870+123542511
4237+123367368+123173470+122639221+122013269+121721020+121886128+122362158
4227+122921279+123379019+123636369+123627585+123372390+123110685+123140187
4217+123471407+123898439+124315875+124668132+124786243+124621884+124435555
4207+124492652+124754786+124970863+124918077+124623865+124477257+124863300
4197+125581010+126010827+125962158+125909609+126280494+126888750+127182460
4187+126887015+126344220+126159681+126480857+126868032+126989375+127079388
4177+127505517+128254208+129069876+129791577+130360770+130672103+130599200
4167+130211331+129852088+129834337+130115355+130459504+130797810+131172904
4157+131445311+131339409+130806110+130145980+129712255+129669467+130086802
4147+130943633+131869586+132262760+131922053+131195522+130375161+129440972
4137+128508061+127992768+128141275+128738465+129410218+129970664+130362094
4127+130461157+130162645+129575938+128961801+128518041+128290148+128191852
4117+128119197+128161455+128566947+129319255+129918115+129874359+129329125
4107+128894542+128966796+129528675+130511633+131809686+132924898+133241572
4097+132779030+132148603+131767911+131578022+131379741+131068509+130758300
4087+130870950+131795633+133336773+134723625+135214209+134650449+133536022
4077+132619346+132341068+132670681+133326327+133918430+134056711+133673051
4067+133120878+132718582+132438030+132242754+132360079+132915009+133584416
4057+133910377+133781300+133447825+133233829+133323158+133659108+133976969
4047+134047808+133868511+133521056+133000449+132376259+131933649+131838011
4037+131762004+131242693+130473411+130323050+131287892+132699672+133402726
4027+133109263+132591569+132587807+133061974+133549773+133763449+133774141
4017+133816391+133907674+133728285+133089330+132354682+132081810+132407140
4007+133043018+133664030+134109160+134435531+134874643+135503937+135992613
3997+135970954+135583414+135341377+135460254+135661311+135624504+135372313
3987+135176434+135246752+135545584+135827743+135844389+135592472+135370177
3977+135487757+135916232+136315798+136422348+136271403+136076893+136054759
3967+136339283+136959209+137878377+138969301+139891610+140261866+140136167
3957+140004598+140093206+140082084+139845042+139958888+140838976+141811533
3947+142017448+141884189+142429103+143490844+143884164+143118060+141814611
3937+140760065+140579517+141709686+143751554+145229269+145008106+143816129
3927+143338985+144151229+145212075+145478364+145487906+146458044+148319565
3917+149459157+148505410+145934387+143409861+142111397+142194773+143539558
3907+146467897+151204321+156639381+160451359+161145447+158950031+154804313
3897+150192600+147302557+147796438+151104336+153991010+153765783+152307554
3887+152977673+155586936+157524545+158441705+159604856+159783203+157321800
3878+154404610+154172846+156808032+160730550+164724364+167224630+166720687
3868+164895097+164718046+165830172+165322887+162313528+159016286+157738431
3858+159777798+166027987+175670418+182396280+179394993+170824877+163451660
3848+159751573+159800169+162622048+166785316+171198940+175279791+178011766
3838+177899290+175152395+172038230+169910986+168252914+166567303+165515461
3828+165571690+166374127+168382849+172833234+178431174+180888761+179459952
3818+177647309+176093587+172883583+168680430+166184438+166888004+170531241
3808+175102959+178202551+180507138+184309126+188394050+189013227+186528028
3798+184181912+182391148+180181615+178460704+178903304+181645178+185596569
3788+189888913+194081036+197774602+201393294+206450146+213485532+220632026
3778+226077166+230944987+237655983+247560877+260526592+274457259+286085986
3768+294554017+301802121+309058900+316439276+324459082+333068352+340617762
3758+346229490+352130891+361841768+377445098+397563333+416138090+428497229
3748+438869597+453460585+471449275+484020839+488059249+490938124+498034561
3738+509890579+524356362+536686610+541694264+540202834+538658261+541750949
3728+549690767+559207226+565095734+564127221+557830920+550015175+543621208
3718+540157032+540178581+543506303+548821527+552997779+552843428+549028692
3708+545041672+543209434+543628769+544779574+545001495+544568062+545469590
3698+548833872+554178827+560470343+567070598+573753837+579294817+580795707
3688+577545708+573024485+570184033+569447266+570402995+573143481+578546910
3678+586600720+592698841+590515131+583340860+579086483+577967161+574400023
3668+567392413+561647263+559503693+559171030+558200070+556825043+557238680
3658+560136256+563846240+567541615+573044536+581687226+590547089+592308762
3648+583698177+570863091+560621444+555308850+554030648+554589907+555918768
3638+559221872+565429309+572345426+576711970+578755719+581074971+583277381
3628+582432503+579575652+578774310+582185855+589474409+598417000+605243888
3618+607307214+606130039+605084167+606163823+609626466+614332064+618264553
3608+619955406+619967678+620156143+621619084+623981178+625880292+626455767
3598+626552411+627758221+630418865+633467614+636456026+640368282+645583356
3588+649742661+649862095+646570094+642970997+641434789+642649803+645574371
3578+648246045+649487649+649913448+651158705+654141273+658120587+661316602
3568+661922612+658845958+653084627+647806731+645685697+646732700+648891574
3558+650308275+650670595+650833493+651745065+653422842+654850427+654939912
3548+653586032+651826368+650852121+650804055+650554960+648810344+645546686
3538+642192593+640430519+640997302+643263337+645398982+645137030+641518210
3528+636380202+633107851+633599905+636872841+640370838+642394280+642930310
3518+642062129+639218864+634982858+631693852+631058404+632509292+634459101
3508+636053383+637065031+637509312+637665854+637381915+635957105+633454466
3498+631011141+629419781+628393158+627404301+626543937+626261897+626564464
3488+626867249+626880763+627195310+628313828+629411380+629021594+627049724
3478+625167485+624843296+625566184+625662023+624411288+622289450+619851677
3468+617586883+615971782+614684815+612891841+610974246+610450160+611755316
3458+613497997+614269242+614164637+614265955+615433269+617616322+619690094
3448+620161402+618628043+616233880+614234763+612630108+610655170+608025536
3438+605283371+603337068+602636314+602811302+603531852+605162256+607507732
3428+608629975+606625818+602304674+598488112+596940727+597139236+597734618
3418+598087843+597900620+596561898+594293196+593034023+594547039+598044124
3408+600860799+601265925+599677706+597611568+596486001+596981086+598695022
3398+600439784+601092581+600069465+597250416+593309891+590180970+589770365
3388+591734857+593641092+593588826+591868134+590061938+589264578+589250772
3378+589099963+588612913+588688116+590033157+592098419+593529365+593321250
3368+591548474+589158694+587034226+585460178+584611428+585048660+587180871
3358+590144264+591775472+590659547+588034990+586316635+586233980+586949855
3348+588026991+589409981+590223156+589564076+588030936+586806205+585874546
3338+584525195+583107434+582981170+584602809+586611276+587256768+586273025
3328+584907530+584393014+584720015+585046432+585226716+586049131+587449434
3318+587875050+586471497+584342026+582592041+581141481+580296274+581024166
3308+582875067+584050343+584029707+583772869+583422492+582361062+581131364
3298+581033516+582410333+584710701+587106581+588247670+587050151+584423365
3288+582635833+582784779+583950632+584520337+583854683+583002938+583648139
3278+586091171+588851927+590500156+591010764+590828253+589703416+587379161
3268+584755553+583384763+583958229+585872975+588022973+589495520+589807693
3258+589059385+587729866+586134635+584432387+583170292+583044503+583802636
3248+584121164+583093153+581309493+579925079+579263589+578942869+578768393
3238+578912664+579605455+580877484+582311535+583100056+582571332+580616847
3228+577613643+574254036+571438603+569959335+570214932+571936757+573939234
3218+574782907+574206080+573245821+572674363+572213903+571462745+570650958
3208+570114746+569654395+568990932+568391497+568193536+567947070+566772962
3198+564705728+562833022+561846795+561367780+560932046+560670423+560669765
3188+560580902+560141369+559521553+559090020+559020697+558905937+557822410
3178+555297125+552049611+549381736+548239842+548884568+550562491+551495173
3168+550357371+547923141+546187765+545838156+545615358+544444793+543114581
3158+542809713+542980245+542078389+539842339+537546646+536342406+536291564
3148+536716779+536974275+536875587+536427690+535457461+533848751+531950113
3138+530334683+529320917+528877294+528642005+528073176+527045166+526144186
3128+525900752+525978512+525527475+524155479+522275796+520623879+519749781
3118+519821880+520482786+521005593+520863405+520016846+518726884+517391668
3108+516390393+515820725+515575830+515615349+515755383+515424437+514184330
3098+512335437+510619968+509482348+508782434+508130404+507469571+507211381
3088+507611358+508254404+508474133+508135042+507669943+507351123+506860566
3078+505799318+504397336+503355665+503029504+503054706+502853786+502317903
3068+501827967+501638406+501483945+500974286+500143835+499288657+498425005
3058+497317116+496031536+495067334+494790845+495009370+495202473+494994723
3048+494361101+493506215+492603957+491674343+490797835+490307680+490440007
3038+490815659+490648487+489600461+488151545+486962938+486147827+485355470
3028+484303536+483035233+481898234+481324255+481339449+481300332+480439493
3018+478705761+476848687+475704529+475397251+475162729+474150058+472414720
3008+470894435+470418233+470920258+471580068+471614291+470922924+469917997
2998+468921835+468030681+467288618+466596411+465726477+464781048+464229934
2988+464170838+464055786+463459894+462634483+462047977+461825216+461785039
2978+461638029+461098238+460137687+459110626+458377439+457918768+457469629
2968+456793566+455790720+454628958+453688971+453100456+452506535+451516546
2958+450212632+449101565+448630658+448673903+448538362+447792427+446855216
2948+446267322+445861611+445243913+444465107+443653028+442700476+441770496
2938+441265293+440990960+440311938+439335646+438951338+439473342+440098089
2928+439919339+438843044+437386165+436074288+435177655+434728882+434510723
2918+434128607+433411161+432694739+432359118+432244432+431930616+431368910
2908+430805231+430262810+429520346+428516733+427449386+426522511+425826030
2898+425324261+424786368+423947371+422927066+422222003+422062027+422031164
2888+421538671+420503392+419446016+418979456+419202472+419557086+419381587
2878+418556359+417436125+416328162+415321299+414456406+413757989+413173383
2868+412636842+412085947+411371789+410410545+409478081+409032815+409089938
2858+409045488+408379725+407336082+406558116+406175123+405704070+404876577
2848+404019500+403427625+402907447+402186861+401300747+400394763+399549848
2838+398857970+398359195+397945449+397534953+397191443+396949580+396745847
2828+396551721+396313401+395829272+394986037+394009051+393215161+392655792
2818+392162131+391543666+390673878+389607846+388594116+387780941+387088113
2808+386503616+386157585+385976023+385638503+384962805+384020151+382937500
2798+381898058+381172869+380855035+380672487+380236717+379437969+378548348
2788+377910380+377518694+377042418+376303752+375477794+374707900+373853160
2778+372825697+371884979+371316078+370988200+370504802+369705579+368809384
2768+368122181+367730239+367413501+366859429+366023937+365157327+364448721
2758+363840045+363183339+362374912+361372614+360253037+359225355+358521168
2748+358270649+358413605+358687207+358740058+358297494+357331173+356129562
2738+355052390+354168175+353308651+352428453+351658706+351090973+350697352
2728+350331744+349785196+349018662+348252566+347673913+347184781+346544913
2718+345688128+344870496+344468401+344544518+344692076+344440533+343727106
2708+342860167+342080776+341297259+340336526+339349824+338683257+338342997
2698+337931808+337195479+336343004+335731223+335419489+335151913+334711504
2688+334134750+333539040+332931459+332313469+331800450+331504677+331376294
2678+331182716+330629995+329645996+328594610+327997512+327953317+328020668
2668+327761821+327207712+326671171+326304651+325994706+325564852+324985871
2658+324441404+324138326+323987590+323644884+322980106+322276577+321809396
2648+321427389+320742304+319677185+318656734+318158800+318176879+318283128
2638+318134328+317702758+317106719+316488291+316017385+315778224+315644911
2628+315391688+314911906+314261373+313545425+312874183+312377746+312125692
2618+312021635+311853002+311445100+310795480+310121791+309680140+309450220
2608+309164528+308716010+308292402+308040495+307875953+307686356+307479519
2598+307277394+307027130+306665796+306218813+305781837+305400707+305042148
2588+304698364+304400838+304136494+303896219+303733266+303614124+303356976
2578+302877486+302320382+301849402+301513963+301345404+301344034+301349842
2568+301117091+300549761+299803972+299169108+298834674+298752477+298767780
2558+298836482+299006028+299246302+299423317+299395394+299082473+298527816
2548+297928673+297500463+297272661+297086863+296794486+296392172+295990935
2538+295712456+295573335+295437904+295175477+294874024+294757768+294889967
2528+295109843+295232564+295156411+294855470+294432921+294091036+293926349
2518+293853574+293785091+293745554+293775522+293866741+293999817+294109974
2508+294042350+293687407+293142959+292619183+292214568+291899601+291657464
2498+291498200+291364704+291155786+290844892+290496231+290195838+290040336
2488+290116270+290364434+290531642+290395571+289983084+289462121+288934949
2478+288455605+288092828+287831515+287556415+287234691+286967279+286808490
2468+286707008+286642652+286649026+286685185+286610310+286319504+285873415
2458+285465312+285208474+285000980+284724254+284481240+284418601+284413579
2448+284217480+283855251+283618027+283668722+283842267+283850010+283582434
2438+283182585+282874996+282788963+282922076+283156141+283293600+283208900
2428+282979875+282761168+282566969+282313473+282025899+281853742+281890157
2418+282074294+282262540+282331242+282242104+282083936+282012750+282079736
2408+282167084+282169184+282154464+282237393+282364844+282362726+282174936
2398+281950349+281864973+281926992+282025406+282128076+282318056+282647103
2388+283072409+283528287+283970248+284383373+284817445+285365181+286081768
2378+287026649+288397677+290425484+293018393+295708256+298134852+300379594
2368+302576216+304460665+305634425+306013035+305717372+304858377+303751474
2358+302929094+302602349+302578334+303023930+304657548+307673536+311250389
2348+314467297+317168591+319842457+322583636+324478878+324628225+323156044
2338+320816485+318184841+315397970+312386914+309254195+306413596+304243382
2328+302617196+300936296+298675940+295909139+293277277+291394362+290325170
2318+289654549+288930986+287989884+286933768+285899293+284938962+284105442
2308+283448572+282875708+282222180+281503274+280898488+280463010+280039968
2298+279490023+278873037+278363543+278047316+277836315+277580975+277247965
2288+276964811+276883654+276990341+277060961+276855768+276359550+275777518
2278+275331466+275128318+275132117+275165518+275039218+274744449+274423182
2268+274181738+274071764+274160153+274436367+274727027+274844945+274776882
2258+274653485+274581003+274558102+274541721+274525230+274503772+274426560
2248+274263936+274086392+274021817+274142201+274397779+274658781+274841329
2238+274985052+275205494+275597034+276159561+276776565+277300122+277691314
2228+278056830+278550693+279250405+280107373+281007293+281862746+282648601
2218+283428064+284337773+285424040+286559888+287666316+288870648+290289632
2208+291841053+293381809+294872143+296377270+298013135+299823038+301664589
2198+303343626+304881058+306507902+308355005+310269897+312027150+313593418
2188+315037549+316343509+317511919+318644316+319731715+320591715+321169637
2178+321658477+322206560+322711142+322988653+322993766+322775023+322334322
2168+321657418+320782481+319757830+318648224+317537888+316347162+314813437
2158+312835321+310608111+308351243+306156064+304035395+301938557+299815204
2148+297617815+295269271+293107494+292268843+293807809+297474695+302076418
2138+306820659+311621658+316489716+321349154+326180870+330960430+335658284
2128+340342297+345108123+350014531+355162912+360673979+366547329+372609364
2118+378591337+384331484+389963044+395818169+402240551+409736746+419126210
2108+431201884+446501661+465668112+489364880+517170660+546968945+575904931
2098+601609326+622794214+639739554+653726942+665324332+674120825+679825617
2088+682343158+681389438+676461151+666642272+651459299+631950033+609385661
2078+584167440+557113256+529874478+503691031+479261696+457275613+438076510
2068+421491920+407196267+394720105+383584965+373817110+365697959+359100917
2058+353670094+349201429+345459486+342195974+339427365+337283977+335867130
2048+335399583+336063667+337851162+340974823+346082662+353926458+365271392
2038+381004931+401809712+427679123+457694765+490011614+522344279+552835977
2028+580208872+603510448+622652939+638578229+652156839+663526683+672486220
2018+678988554+683358239+685864896+686096460+683386363+677562357+668812906
2008+657461982+644024356+628906177+612223411+594128910+574929515+554932687
1998+534602903+514706590+495838360+477886377+460428128+443644079+428270195
1988+414655244+402525952+391598051+381827675+373133779+365328078+358284564
1978+351955940+346306191+341303358+336905587+333087564+329889320+327275172
1968+324915452+322338266+319423268+316544429+314111222+312178506+310577467
1958+309197363+307990931+306870259+305753293+304648454+303638486+302813532
1948+302275493+302215064+302746090+303410885+303220521+301767478+299860968
1938+298506997+297916017+297743331+297675103+297586313+297467408+297339318
1928+297292439+297636333+298610964+299825613+300640669+301136285+301690595
1918+301824894+300809959+299178294+298229687+298475331+299372037+300066180
1908+300092331+299601190+299064083+298790864+298783997+298933235+299226945
1898+299783428+300590394+301326028+301853986+302614530+303798261+304592754
1888+304210693+303119477+302245690+301854954+301814485+302060274+302449970
1878+302738548+302858730+303031198+303772384+305729169+308916857+311885801
1868+312491665+310390536+307479410+305518223+304849721+304965959+305281565
1858+305429944+305363927+305311222+305516653+306105661+307128631+308638287
1848+310863634+313958478+316922783+317564258+315330729+312481073+310996400
1838+310887046+311211381+311584002+312727940+315443406+318972267+321176760
1828+321288524+320629371+319873027+318431270+316482155+315192485+315044124
1818+315456920+315870192+316501294+317875372+319842530+321388016+321685177
1808+321075989+320641570+321289619+323332382+326232369+328652610+329488796
1798+329172788+329442739+331738286+335651345+338375906+337290771+333805666
1788+331379180+331427319+333030330+334891970+336598126+337976915+338688370
1778+339166947+340857434+344899862+350603740+354936426+355208020+352406649
1768+348995323+346406340+345737983+347555575+350506878+352267856+352675722
1758+353215550+354135121+355161890+357402979+361993270+367612157+371011027
1748+370923150+369232700+368101764+368454186+370200518+372331488+373584451
1738+374576376+377751719+383686137+388228582+387106229+382746114+378844560
1728+376373367+375590982+376533088+378547070+381581429+387061304+395950350
1718+405789646+410777211+408656652+403541507+399608579+398517272+400604266
1708+405449277+411475737+416701513+421474096+428216248+436995722+443501379
1698+445142376+443833677+440467897+436163809+434102821+435883376+440522500
1688+447134078+456574530+468155046+475336548+473560375+468597427+466396076
1678+468401694+473636163+479662659+484585832+489378065+495187827+499719643
1668+500271085+499458056+501650130+507300208+513000836+515852756+517272745
1658+520757302+528847819+542197348+556175642+559877774+555042223+553274487
1648+556365934+558301242+554375327+548225160+544737425+545073813+549308870
1638+557358151+566383030+569687632+565372222+560246596+559239331+562132012
1628+566551881+570926424+575323319+579326995+581589268+582844825+585865451
1618+591399090+596085987+596479317+594723926+594474027+596352030+598986412
1608+601046707+602260407+603209014+604527137+606249765+607916365+609293109
1598+610657362+612298687+614107221+615783682+617223102+618523364+619746049
1588+620827239+621692644+622395735+623141560+624266944+626384545+630374451
1578+636350106+641727202+642697723+640945364+641751162+646517353+651895106
1568+654453044+655246642+656822370+660558433+668486672+683536331+703966008
1558+716623258+716237635+714841898+718746630+726686630+735989642+745130266
1548+754031219+763687054+774603048+785694869+795468459+801442799+798829637
1538+789434511+781859388+779385456+779311897+777854799+775254129+774588511
1528+776902321+780745984+785020705+790137018+795247049+797616083+797177208
1518+796365055+795121260+792373835+789986100+791258969+797613892+808030161
1508+818548406+820900274+811815166+801040521+795812955+796241530+799869335
1498+803049207+802713184+799923683+798885300+801873419+807393617+811303096
1488+810526153+806414914+802341221+800063644+799234179+799099332+800305361
1478+804301257+811114705+818560678+823213718+822394407+817481241+813356196
1468+812957571+815396366+817631502+817801924+817699437+820237505+826066917
1458+832008750+832120368+826024184+819800676+816743452+816742795+818540809
1448+820123477+819803086+817994042+816578801+816881952+819210663+823231980
1438+827623798+829901595+828947217+826965267+825984738+825433806+823727687
1428+820860462+818520502+817828660+818613638+820633574+823674215+825778303
1418+823995190+818924752+814080325+811251890+810000278+809209455+808199926
1408+807150293+806458816+805925197+805410279+805764344+807777633+810904325
1398+813874402+815770082+815845760+813811069+811114778+809895818+810444047
1388+810963348+809915103+808462754+809176291+812852965+818030274+822919187
1378+827182294+831714876+836769098+840905320+842920873+843902863+845365877
1368+847134453+848720992+850797102+853559502+855449922+855338962+854331332
1358+853723861+853079866+851127208+847614893+843778608+841082901+840007409
1348+840085497+840604287+841169244+841973361+843587513+846266491+849472587
1338+852128629+853328669+852942608+851726497+850888339+851393761+853473962
1328+856545065+859558678+861745164+863226952+864788435+866933430+869275874
1318+871033493+872093133+873211359+875000315+877137566+878863409+880034302
1308+881268018+883091014+885459245+888187312+891161918+893827967+895253215
1298+895206756+894472692+893784576+893127140+892159978+890703539+888766002
1288+886487402+884063654+881592937+879065315+876564794+874331411+872450121
1278+870699880+869012096+867713660+866887628+866031647+864827954+863782704
1268+863732666+865016419+867186908+869348338+870838818+871675223+872365166
1258+873328894+874313587+874387366+872980453+870749261+868790686+867540097
1248+867117585+867799565+869304071+870537567+870734359+870192194+869752953
1238+870053255+871088206+872371667+873775804+875831387+878671803+881335806
1228+882828259+883272759+883440405+883878331+884944619+886893478+889386621
1218+891467406+892656489+893661489+895488212+898278297+901382052+904179954
1208+906484340+908417128+910110537+911363172+911803508+911874657+913103040
1198+916466336+920900742+924423722+926644176+929085162+932849349+936820189
1188+938742093+938066687+936914640+937637601+940302773+943457589+946534463
1178+950099884+954201992+957926513+960434924+961420274+960994840+960149524
1168+960341495+962003055+964575383+967716173+971001162+973096410+973188159
1158+972580615+973263618+975522203+978092193+980032871+981384560+982460417
1148+983288202+983802828+984239877+985176358+987068240+989695865+992398511
1138+994993703+997965168+1001285512+1003618022+1003796844+1002901416+1003130131
1128+1004930921+1007077961+1009085186+1011405862+1013546912+1014369803
1120+1014428461+1015416222+1017266392+1018306529+1018116019+1018037054
1111+1018782221+1019854937+1021256298+1023429855+1025720946+1026907983
1103+1026986729+1026748372+1026303800+1025762438+1026522799+1029776596
1094+1034080683+1036616194+1036822410+1037158214+1039926530+1044315792
1085+1047060880+1046185029+1043599114+1042742767+1044272182+1045631175
1077+1045056576+1044067720+1044934513+1048014600+1052635133+1058640080
1068+1065144387+1068950576+1067565796+1063342647+1060817654+1061082236
1060+1061867653+1061669911+1060962436+1060317053+1059913096+1060426261
1051+1062567530+1065987293+1069677627+1072525713+1073469425+1072879413
1043+1072217886+1071226692+1068604984+1065744772+1065458203+1067606411
1034+1070032058+1072107510+1073741823+1073512451+1070566919+1066092702
1025+1061677581+1058107703+1056015450+1055764967+1056974649+1058554760
1017+1059036076+1057687967+1055556121+1054251330+1053498931+1051750370
1008+1049297039+1048362822+1050050095+1053083870+1055503380+1056032981
1000+1054011147+1050073909+1046596511+1045631175+1046908135+1048505778
991+1048714477+1047146346+1045190839+1045116841+1047224216+1048935376
983+1048072089+1045004785+1040468039+1034411665+1027690478+1021962750
974+1017968826+1015791983+1015512134+1016010763+1014987135+1011708137
965+1007866446+1004892863+1002505932+1000129958+997549961+994194773+989493229
955+983927522+978673001+974584042+972517867+973125995+975067330+975371869
945+972838988+969472404+967608573+967373430+967267364+965991061+963736202
935+962060033+962263765+964058784+966090042+967208560+966897519+965295713
925+963251160+961903782+962047249+963410041+964300720+963201122+960711997
915+958935532+959249640+961008719+962273626+961876827+960399934+958718724
905+956801494+954925099+954401269+955473328+955901684+953561796+949557207
895+946881881+946881370+948367321+949586354+949751005+948873255+947769128
885+948004563+950058320+951886357+951173769+948457171+946006030+944800439
875+944240084+943685281+943113750+942711765+942549670+942600366+942916520
865+943642986+944664496+945307468+944740393+942972402+941280892+940996368
855+942013860+943252615+944098662+944435343+944057609+943300462+943171239
845+943654309+943153416+940730180+937649581+935956975+936484093+938396063
835+939860757+939488794+937707289+936334124+936653857+938325790+940260843
825+942054183+943921666+945440343+945570589+944453167+943852416+944857417
815+946667630+948638185+951313219+954546927+956933055+957755142+957468719
805+956009649+952896690+949123227+947046971+948064097+951027161+953575675
795+954813992+955502547+956027108+955918046+955446957+955893502+957682166
785+959555713+960074649+959254315+958313378+958049746+958133679+958118850
776+958184594+958201395+957342564+955895548+956059980+959051167+962620387
766+963240495+960054488+955412624+952130485+951046738+951111021+951436378
756+952354890+954225514+956297533+957367985+957194714+957021808+958401255
746+961191267+963473447+964102102+963598067+962182608+959734462+957340300
736+956247787+956149683+956468540+957909566+961030561+965020905+968447169
726+969697539+967862416+964330159+961711372+961151310+962471295+965305721
716+967611714+965852854+960032427+955489179+956816542+962342949+965775495
706+963122157+956689730+951125046+948198579+947417034+948867630+951846911
696+952604496+948520358+942282751+937872379+935714455+933060751+928012665
686+922329350+919314787+919792305+920570563+918544272+915124436+913673621
676+914522225+915093025+912660951+905128561+892031267+878712564+875096374
666+881209506+888667825+891860626+889537320+884088053+879049829+876770206
656+877683896+879891274+880905478+880037224+878872905+879140847+880877574
646+881909894+879323979+873589823+869710439+871796045+878258056+883399352
636+882932718+877278915+870275104+866296520+866338888+867734552+868709310
626+869536146+869018305+865111017+859321344+854422496+849346944+842781862
616+838761202+841880371+850616453+859196139+863252226+862247080+858408019
606+855397620+856279460+860745277+865958744+868164223
##END=
