##TITLE=<SNM>
##JCAMP-DX=4.24
##DATA TYPE=INFRARED SPECTRUM
##DATE=2/5/2025
##SAMPLING PROCEDURE=Instrument type and / or accessory
##ORIGIN=Admin
##XUNITS=1/CM
##YUNITS=ABSORBANCE
##RESOLUTION=4
##FIRSTX=4497.3318
##LASTX=599.83466
##DELTAX=-1.4281778
##MAXY=1.807478
##MINY=0.26958957
##XFACTOR=1
##YFACTOR=1.683345e-09
##NPOINTS=2730
##FIRSTY=0.29092252
##XYDATA=(X++(Y..Y))
4497+172824061+172770028+172984160+173029589+172665803+172044632+171395914
4487+170856431+170511553+170483421+170982680+172087689+173347699+173891980
4477+173171506+171540027+170094618+169845112+170821925+172033939+172402842
4467+171682191+170532727+169896171+170217291+171113248+171853462+172099516
4457+172023511+171879806+171689733+171265434+170613865+170186733+170252150
4447+170321622+169927437+169522382+169747651+170342318+170644016+170679389
4437+170903843+171226998+171074087+170271784+169272859+168491784+167935729
4427+167515395+167234854+167082315+167093521+167434399+168151827+168939789
4417+169375348+169317863+168971161+168679413+168747043+169270469+169955268
4407+170238288+169857700+169200909+168851356+168919128+168974029+168542878
4397+167641945+166831888+166645481+167021589+167512988+167838922+167940987
4387+167777595+167330192+166625032+165727428+164848555+164268564+163988837
4377+163745404+163467235+163378042+163616482+164129674+164892550+165782718
4367+166309083+166014183+165120279+164239441+163549206+162911765+162611643
4357+163104954+164131356+164862860+164856681+164299493+163566999+162974084
4347+162671271+162595727+162680424+162950254+163285696+163490764+163677190
4337+164061619+164420803+164286339+163584597+162607642+161590906+160774635
4327+160502291+160810451+161238202+161357830+161230041+161130065+161112308
4317+161062240+160963132+160913401+160968850+161086654+161269061+161707648
4307+162550688+163447194+163682643+163095464+162495946+162675626+163354884
4297+163658618+163332064+162851960+162522485+162133027+161552789+161154780
4287+161382403+162069841+162477587+162124848+161342799+160767111+160553987
4277+160411326+160198663+160151110+160523377+161217896+161892197+162398856
4267+162913465+163576648+164214460+164483051+164185549+163468050+162796989
4257+162677043+163291096+164374064+165420968+166066340+166273727+166167838
4247+165855907+165463210+165166275+165111002+165326321+165623061+165612988
4237+165124918+164590020+164653666+165406503+166289395+166741579+166708932
4227+166502607+166338117+166138732+165739006+165192707+164855141+165050347
4217+165647529+166219216+166564377+166693441+166410705+165425960+163873742
4207+162448694+162047516+163126748+165142091+166911734+167821856+168251838
4197+168667286+168903991+168566991+167665032+166673896+166143035+166241612
4187+166682358+167080704+167243937+167114430+166686873+166132713+165878817
4177+166293025+167186256+167882953+167998101+167861885+167944723+168211313
4167+168318689+168125713+167713311+167136684+166466987+165981944+166052849
4157+166718741+167451625+167577254+167029432+166425594+166244197+166298478
4147+166214206+166004410+165935860+166149107+166556446+166910318+166997618
4137+166904529+166946966+167266456+167665474+167891663+167964923+168147666
4127+168586076+169043731+169104368+168661638+168093438+167869692+168022923
4117+168118189+167878474+167665333+167994613+168749026+169292546+169182461
4107+168457827+167564790+167222939+167878120+169055539+169708188+169383174
4097+168614137+168082568+167849244+167558133+167069939+166624820+166467429
4087+166541592+166618977+166589765+166507334+166461215+166542283+166821053
4077+167216035+167437851+167219009+166656121+166192766+166126092+166225713
4067+166051274+165570728+165167355+165079984+165144144+165143118+165157670
4057+165385028+165764182+166047467+166211922+166499013+167007390+167535614
4047+167891274+168070866+168050364+167701007+167090954+166629688+166650544
4037+166973841+167177316+167238253+167575395+168369040+169146521+169316464
4027+168922014+168545180+168606206+169058000+169622163+170036017+170161168
4017+170020951+169679489+169180797+168719832+168570443+168660629+168599797
4007+168312511+168238294+168737819+169630679+170439195+170858308+170875056
3997+170617566+170262330+170000927+169937528+170028209+170186627+170406956
3987+170754756+171261752+171833014+172251666+172304708+171953066+171459401
3977+171292309+171641578+172094789+172128143+171792329+171561697+171679961
3967+172030699+172507864+173105682+173641943+173784923+173508046+173188379
3957+173102938+173181262+173398386+174125693+175777799+178015950+179623617
3947+179818824+179423400+179657220+180232094+179863952+178383684+176947358
3937+176530016+177395275+179379830+181730881+183037630+182385955+180615780
3927+179534954+179931494+180865126+181189627+181306493+182378236+184237197
3917+185072801+183508155+180400302+177785016+176788091+177305886+179217589
3907+183085803+189266101+196508900+202066044+203818904+201503138+196104730
3897+189820225+185618357+185362230+188208822+190658750+190217296+189262507
3887+191191028+195143231+197673201+198568450+199636918+199195162+195160511
3878+190796454+190496969+194339902+199707168+204659253+207424972+206300559
3868+203246544+201992377+202594161+201891640+198653448+195440060+195098670
3858+198800216+206758089+217221606+222729674+216845675+205891273+197442054
3848+193727778+194554335+198657326+204199829+209859321+215077943+218616150
3838+218607652+215551106+212133394+209463278+206885949+204487947+203309324
3828+203346024+203923306+206207151+212100198+219440318+222155385+219678174
3818+217087196+215040233+210566499+204544955+200924812+201843378+206742651
3808+212578602+216081985+218224940+221853103+225644339+225894996+223670123
3798+222236205+221077976+218591241+215940227+215243283+216942977+220464755
3788+225442936+231381252+237277415+242849271+249233221+257111035+265235842
3778+272434717+279889949+289699118+302879100+318846613+334852757+347129151
3768+354543540+358231933+358779808+357767515+358151201+360627704+362739358
3758+363169039+364752399+371352854+384205131+400156640+412260382+417887069
3748+422896020+432024957+443029762+449756271+452375859+456924146+466913650
3738+482450207+500962561+517223398+526654192+530094548+532479909+538152379
3728+548754697+562723403+575789441+583817635+585154835+580895659+574656725
3718+570637369+570687685+573905959+577809600+578878297+574683175+566990617
3708+559190772+553609656+552136381+554924514+558905380+560569188+559843208
3698+558836900+559630899+563953492+571874293+580513849+585409918+584159291
3688+578869445+573734193+571293877+571969223+574581836+577599804+581298005
3678+586814748+591939414+592056120+588608434+586378127+584092228+577474423
3668+568430785+562523557+560954609+560762306+559399293+557980511+558957253
3658+561482974+561978196+560586644+562410038+570411357+580730407+583884309
3648+575922612+564156170+555679705+552127281+552190839+553864951+555800023
3638+557789447+560172967+563156342+567127542+572956694+580186073+584238819
3628+580363257+572167864+566505698+566478221+572256244+581759094+590069529
3618+593025639+592252531+591699061+592627117+594423600+596833146+598920616
3608+598466042+595480472+593301188+594225384+596841006+598503716+599289784
3598+601157084+603972269+605705796+606474868+609058693+614660877+620428489
3588+621386076+616106180+608987451+604465438+603312397+603955839+604731780
3578+605176085+605637104+606334296+607511344+609989652+614640694+620926616
3568+625938328+626284623+621994747+616179546+610929747+606491510+603284778
3558+602304389+603514933+605193790+605561754+604850682+605211990+608124406
3548+612021602+613267342+610321642+605793396+602980620+602167075+601336109
3538+599148079+596007420+592834186+590580296+590536035+592894061+595204073
3528+594622525+591916788+590090526+589522079+588168449+585529174+583263599
3518+582566194+582960397+583275992+582954554+582418506+582233178+582149118
3508+581636333+580898244+580228847+579047550+576868761+574448664+572504245
3498+570485148+568023411+566412326+566842220+567997917+567492886+565087307
3488+562404373+560332518+558966070+558806272+559936580+561111468+561036756
3478+559809535+558333923+557098380+555934186+554562391+553160712+552131353
3468+551419077+550659530+549785933+548902031+548085194+547628814+547741767
3458+547935345+547456623+546328014+545310233+544949811+545218171+545663928
3448+545375066+543661934+541330288+539972657+539607914+538481925+535638272
3438+532087654+529203706+527700795+527947839+529618056+531273047+531461739
3428+529967963+527719915+526046689+525881615+527055546+528317150+528365907
3418+526965219+525021154+523694434+523447460+523752646+523745741+523317016
3408+523120640+523263372+522843498+521253765+519049518+517101876+515782274
3398+515040112+514499956+513697707+512666330+511717773+510754804+509769033
3388+509516996+510537715+511861000+511716321+509468203+506242493+503760856
3378+502861127+503156823+504022984+505284623+506576359+506996870+506321028
3368+505718483+506135453+506726207+506271775+505438296+505860542+507577250
3358+508988595+508938740+507567017+505566226+503767123+502980772+503398061
3348+504398987+505230944+505585453+505400621+504533716+503029636+501509197
3338+500737009+500794300+501152917+501486181+501781027+501821818+501198452
3328+499790612+497993527+496536717+495902091+495828654+495768636+495629375
3318+495498682+495050057+493978916+492718658+492113740+492555850+493580111
3308+494113362+493396058+491920021+490927380+490927522+491408439+491756646
3298+491696523+491297080+491194608+492059141+493379982+493815258+493067963
3288+492300272+492501959+493398465+494121471+494351980+494518045+495018615
3278+495609440+495838710+495845862+496203842+497001205+497450467+496599000
3268+494484832+492335928+491331568+491465235+491883408+491864713+491192235
3258+490065291+488932751+488175506+487846809+487665943+487215724+486332885
3248+485260045+484262234+483324406+482430661+481789768+481530224+481541520
3238+481683507+481845572+481788246+481167181+479974660+478938927+478955640
3228+479856396+480309801+479306361+477181889+474916173+473021467+471497699
3218+470453964+470026690+469771502+469003953+467980896+467709136+468140411
3208+467774252+465701229+462960154+461303251+461455897+462697565+463595063
3198+463196931+461680103+459854373+458421853+457783970+457910449+458179517
3188+457871924+456905061+455730987+454706656+453902955+453267834+452632535
3178+451733267+450499388+449250284+448386637+447856997+447098229+445639188
3168+443618109+441565658+439815525+438282622+436783747+435443678+434620998
3158+434415877+434498414+434489704+434212101+433593905+432710287+431826705
3148+431096724+430443686+429840361+429303640+428639802+427686500+426720487
3138+426133167+425741124+424825958+423070796+421239294+420411302+420563559
3128+420574040+419735426+418498608+417525655+416839864+416170326+415494520
3118+414897002+414225091+413284607+412316788+411855487+411964368+411956224
3108+411151390+409738309+408547346+408064481+408042457+408054708+407943915
3098+407606012+406917565+406080474+405556783+405531749+405727346+405686697
3088+405091233+404030891+402989953+402356319+402092845+401988496+401915378
3078+401706078+401131151+400264636+399613439+399540568+399693214+399395110
3068+398531781+397548843+396651911+395619223+394391896+393310982+392655996
3058+392214594+391517437+390474871+389462685+388714504+388036432+387241725
3048+386512488+386133228+386039856+385808993+385158079+384342127+383811779
3038+383577198+383279023+382788085+382279974+381759859+380975243+379844686
3028+378608896+377484819+376483822+375634692+375032430+374585610+374088122
3018+373616091+373472050+373682588+373823656+373371950+372125112+370354867
3008+368672434+367692859+367620767+368018688+368117194+367541559+366628375
2998+365946195+365723972+365779740+365721281+365178611+364090969+362827277
2988+361874152+361338918+360835799+359998885+359037652+358488962+358472179
2978+358541650+358218017+357355680+356108629+354832296+353916279+353483234
2968+353295888+353020658+352485424+351678005+350694854+349772640+349187339
2958+349000382+348984130+348829218+348363986+347623772+346821452+346188490
2948+345785188+345512649+345245776+344838437+344120920+343119215+342181528
2938+341580399+341072040+340300914+339573306+339582831+340335650+340974277
2928+340746317+339705521+338455178+337497167+336791866+335907646+334669341
2918+333429762+332573727+332137956+332049718+332306217+332749991+332981420
2908+332667808+331846367+330894127+330250154+330079025+330085575+329770723
2898+329036848+328339655+328042578+327948215+327690406+327216747+326649397
2888+325999758+325242088+324477407+323874933+323509340+323307937+323127956
2878+322814237+322235521+321430616+320674964+320216212+319989811+319731117
2868+319294849+318775301+318378407+318229302+318257629+318240810+317977336
2858+317456867+316847806+316290335+315781976+315305803+314898500+314534820
2848+314145999+313765677+313460492+313191140+312906810+312633811+312359006
2838+311975886+311428684+310827094+310352692+310043930+309730105+309244336
2828+308615234+307965135+307380223+306984179+306905112+307007691+306878273
2818+306288828+305508567+304929816+304578069+304249089+303896421+303559013
2808+303140061+302576252+302014249+301577804+301146423+300536619+299776187
2798+299107710+298759822+298696158+298585613+298096091+297228371+296321667
2788+295718024+295423886+295129057+294591840+293944821+293507261+293344170
2778+293185399+292788240+292192014+291583201+291099327+290774207+290483716
2768+289990901+289228823+288415632+287748944+287182426+286586113+285917725
2758+285222586+284623865+284235151+283977253+283612334+283029298+282383041
2748+281904779+281618855+281294124+280720985+279985499+279359247+278957113
2738+278638579+278229912+277713161+277165445+276622439+276095756+275630772
2728+275230568+274809526+274322200+273829845+273375307+272921689+272445198
2718+272001335+271693441+271528774+271267990+270625061+269721473+269031823
2708+268766011+268661078+268453125+268179152+267951936+267745611+267460696
2698+267024606+266437906+265821674+265373386+265194502+265167238+265035270
2688+264626498+264004406+263393823+262965452+262703765+262451427+262054870
2678+261511899+261008816+260750051+260715368+260670647+260454373+260142371
2668+259876861+259659825+259411346+259148580+258971484+258867295+258668299
2658+258284419+257835811+257425498+256949697+256320949+255718226+255398594
2648+255362690+255377030+255262360+255028983+254753877+254447612+254078213
2638+253647044+253205961+252862410+252744129+252850407+252978904+252924287
2628+252684448+252373561+252046794+251722099+251460360+251295038+251150660
2618+250934845+250672716+250465736+250370257+250393273+250511926+250606060
2608+250509660+250232554+249974745+249840919+249721273+249501139+249207213
2598+248916581+248678583+248538312+248517280+248554476+248537374+248421482
2588+248285885+248226027+248221566+248182263+248094060+248002158+247866207
2578+247593154+247249055+247069428+247174042+247410712+247568546+247600573
2568+247557835+247478006+247445306+247598767+247971104+248412205+248718506
2558+248791076+248684248+248533461+248412860+248281831+248090696+247841084
2548+247523152+247133500+246774529+246581199+246533592+246453533+246176498
2538+245678832+245096805+244640160+244411262+244318705+244220021+244088514
2528+243982838+243931177+243902177+243843541+243721576+243544269+243344441
2518+243158193+243039911+243028261+243055614+242999014+242854547+242724917
2508+242630748+242514060+242410171+242426689+242560498+242676036+242649727
2498+242479483+242285958+242203085+242235537+242267156+242217744+242123380
2488+242067063+242077438+242076128+241922172+241556527+241086532+240680327
2478+240396935+240150457+239838685+239482105+239196801+239032966+238898768
2468+238663018+238293903+237901170+237659277+237643255+237720268+237654125
2458+237355349+236998591+236839448+236924658+237060450+237071479+236961111
2448+236786884+236545097+236250570+235978721+235754763+235526697+235300738
2438+235181606+235213899+235297038+235324196+235291850+235208587+235029102
2428+234752527+234466408+234231739+234025325+233850248+233830313+234088441
2418+234519964+234823644+234851086+234764955+234735584+234708709+234628597
2408+234624100+234775046+234919902+234888902+234749145+234664271+234685374
2398+234829611+235191680+235823314+236680676+237871622+239840898+243194274
2388+248463831+256101771+266533172+280047393+296619417+315897408+337424367
2378+360851839+385807328+411469995+436475976+459586933+480416097+499161935
2368+515698958+529251791+538849217+543728715+543535243+538723199+530425192
2358+519368548+505269043+487086979+464360736+440198432+421063384+411994996
2348+414322146+426424578+443795860+459881389+470305851+475048530+476014083
2338+475208682+474115517+473263058+472519233+471695845+470620526+468862885
2328+465843854+461227265+454987835+447344318+438839880+430110421+421327284
2318+412186095+402570505+392933492+383867547+375406024+366951335+357979576
2308+348605153+339319711+330466606+322161447+314458939+307359367+300752646
2298+294503956+288585433+283072266+278002006+273296859+268877035+264781463
2288+261091760+257819134+254961211+252573300+250670663+249143036+247851654
2278+246737297+245779250+244925747+244109423+243302163+242550814+241946639
2268+241513169+241153490+240759996+240320630+239865968+239391193+238890358
2258+238398978+237956797+237574102+237237810+236899961+236483292+235970595
2248+235465493+235091598+234862310+234710461+234585593+234454795+234286286
2238+234100834+233968318+233909912+233868289+233796693+233731878+233766631
2228+233963130+234271432+234539297+234653401+234662288+234693447+234777383
2218+234868082+235001784+235277811+235697950+236168210+236626802+237068080
2208+237514775+238018514+238585987+239114246+239512149+239835021+240204738
2198+240669651+241216481+241842397+242536137+243237738+243901168+244562527
2188+245245007+245844225+246239047+246464298+246647572+246829731+246952155
2178+246996522+247058664+247212337+247325378+247177176+246776954+246370253
2168+246128413+246011140+245896346+245699900+245396396+244990527+244516744
2158+244087895+243835450+243757605+243768440+243872098+244131164+244562209
2148+245163763+245965747+247140440+249109486+252246941+256445109+261289322
2138+266559339+272271678+278450170+285079323+292091685+299378266+306937511
2128+314887275+323284284+332026242+340838840+349383926+357554675+365498066
2118+373213745+380366288+386483488+391149437+394129519+395411553+395112528
2108+393490786+390954726+387860381+384465808+381013307+377523945+373674161
2098+369096061+363621807+357317615+350481093+343400110+336117228+328654684
2088+321241641+314155029+307570543+301513927+295807182+290262112+284919242
2078+279916983+275332031+271233414+267627364+264413126+261566145+259174021
2068+257269506+255807456+254671464+253647805+252597077+251553926+250569288
2058+249704968+249089587+248699120+248342964+248023137+247934510+248097105
2048+248332094+248550050+248915342+249736481+251093528+252677065+254251272
2038+256008912+258203776+260834429+263808208+266974113+270033528+272776568
2028+275271925+277677292+280045109+282286305+284228069+285792822+286999719
2018+287678817+287496305+286411956+284801615+283050012+281242888+279240115
2008+276928952+274404188+271907768+269606750+267484084+265430199+263379908
1998+261423803+259893485+259168249+259117278+258896471+257746812+255868571
1988+254047673+252769091+252059117+251737856+251543924+251288221+250974148
1978+250676328+250446155+250346109+250392989+250592286+251108028+252039748
1968+252965520+253209183+252699903+252047892+251712627+251645652+251758676
1958+252186251+252910407+253565357+253853493+253896196+254038591+254492173
1948+255300389+256577094+258442022+260397808+261210732+260241869+258441791
1938+257182065+256858361+257056878+257337897+257550685+257774519+258141599
1928+258780261+259978678+261908279+263994758+265423861+266391751+267546031
1918+268388433+267894839+266516601+265824259+266598501+268295362+269824919
1908+270515720+270536045+270462484+270576658+270775140+270997098+271468933
1898+272460600+273770943+274720403+275137533+275823589+277170031+278079479
1888+277424706+275763731+274314817+273444672+272944563+272669422+272490166
1878+272294110+272145146+272236252+273049407+275460670+279729956+283981573
1868+284966034+281894351+277498409+274445439+273232682+273048505+273094358
1858+273051337+272986327+273094748+273448691+274087796+275226302+277174616
1848+280254621+284475361+288388279+289101016+285909032+281852073+279632954
1838+279308224+279612719+280045339+281583057+285216036+289843018+292595104
1828+292495766+291402264+290310958+288458476+285978521+284300568+284030932
1818+284463783+284950277+285808083+287694503+290377296+292478115+292857198
1808+291979068+291305033+292011591+294505320+298133482+301163100+302136727
1798+301647630+301921939+304693111+309416563+312659163+311213330+306865490
1788+303886719+303907645+305677324+307685762+309668565+311462251+312409356
1778+312893921+314861215+319955040+327344111+332997390+333289120+329558343
1768+325115963+321787852+320858238+323001866+326608819+328841110+329403750
1758+329954493+330760673+331776789+334714877+340953598+348515711+353065910
1748+353039070+350946962+349591491+350148112+352408552+355006612+356430775
1738+357590261+361550590+368981125+374576829+372811293+366778259+361190273
1728+357264821+355396813+355774515+357656439+360882999+367066271+377283345
1718+388312618+392832649+388440478+380663896+374542412+371958622+373424886
1708+378481319+384925658+389962086+394030588+400401171+409405328+415833450
1698+416301124+412861583+406607706+399368377+395316127+396140507+400247250
1688+406449253+416052097+428479827+435520550+431210314+422902960+418210065
1678+418918305+423554334+428774177+432370437+435982666+440993316+444126114
1668+441930507+437989971+437797986+441831470+446041570+447199072+447248963
1658+450399997+459577762+475672214+493609075+499890216+495394546+494306834
1648+499578905+504209941+501737935+496032854+493506426+496074211+503676017
1638+515762941+529006588+535769213+533444365+529834898+531241321+537898465
1628+546933746+556164305+565926310+576210129+584736060+590974640+598323487
1618+609299612+620903600+627400981+629329467+631238124+634761336+638695853
1608+641516915+643045994+644434996+646826413+650184834+653659748+656919238
1598+660562697+665214094+670700209+676366411+681953228+687622121+693297105
1588+698624519+703301764+707014340+709624439+711854038+715374843+721867974
1578+731461966+740786924+744874971+745467992+749269585+759076806+771772578
1568+782074385+789577082+797754806+808701542+823505888+844216647+869198232
1558+884731849+884276355+879929259+878388071+879134906+880117915+879490478
1548+877550378+877261091+880996895+888514393+897406306+900779527+889767640
1538+870975453+857992660+852755962+850044666+845540427+840692797+839156070
1528+841270097+844357218+846736950+849626846+853408965+855633324+855317480
1518+853953971+851100121+845775327+840533105+839595418+844922408+855287737
1508+865814033+867119684+855944847+843192492+836655950+836320420+839280212
1498+841482193+839888105+835829729+833733478+836023343+840946322+843525190
1488+840316405+833634405+828043127+825858071+826581537+828471994+830762071
1478+834114190+838957075+844400487+848051878+846546027+839698315+832644881
1468+830001498+831982247+834960098+835198963+834051233+836061371+843170610
1458+851608020+852703982+844434479+834667553+828399761+825901411+825683508
1448+825384660+823270563+819823054+816600035+814655191+814945398+818382426
1438+823913935+827177674+824967407+820559125+818310618+818307077+818058864
1428+816513780+815073294+814865304+815697403+817763628+821726471+825687615
1418+824953881+818754711+811692919+807141729+805188315+804530568+804333414
1408+804737707+805709882+806032099+804856538+803740535+804860575+808043370
1398+811077450+812248265+811070226+807829857+804324632+802944128+803980391
1388+804973599+803436234+800530829+799953955+803503652+809633705+815500178
1378+819849044+823652691+827891083+831753579+834014975+835129208+836335929
1368+838204928+841134766+845436397+849846520+851622537+849702762+846133448
1358+843242702+841648117+840946605+840777423+841121240+841943424+842798609
1348+843111620+842782533+842189725+841843855+842345876+844083936+846437536
1338+848028792+848482020+848968815+850553344+853030023+855517396+857414369
1328+858702387+859959174+862117107+865786415+870836651+876609292+882140092
1318+886441795+889328504+891720062+894493748+897450070+899809690+901300952
1308+902478779+904299128+907406220+911400576+915028881+917413923+918787842
1298+919962978+921538796+923496529+925060946+925249389+923814851+921194413
1288+917798247+914054723+910767898+908655571+907570161+906596428+905128181
1278+903659509+903037595+903068613+902774652+902162865+902526439+904601941
1268+907400271+909295544+909864487+910169495+911271406+913119869+915259602
1258+917868851+921247172+924804872+927334239+928097433+927378004+926254565
1248+926032199+927316747+929201044+929930883+928876631+927163641+925920663
1238+924939636+923412328+920939401+917779764+914942838+913488188+913007979
1228+911741277+908911504+905798322+903937253+903506191+903735708+903995465
1218+904219388+904648892+905454789+906713843+908532917+910926740+913747165
1208+916644568+918917437+919846059+919405436+918313652+917684515+918790108
1198+922125585+926345635+929394515+930913184+932057090+933248796+933874960
1188+934035572+935033666+937869387+942100768+946450272+950137284+953061951
1178+954862117+955172578+954932367+955919909+958839903+962722510+966063935
1168+968195808+969862979+972450487+976279203+979800857+981025565+979641378
1158+977178932+975382591+974962221+975848991+978116902+981766806+985575764
1148+987583423+987496956+987326004+988716069+990992832+992789882+994121169
1138+995568100+996925236+997995138+999544470+1001893892+1003773231+1004106566
1128+1003644698+1003975555+1005691590+1007968849+1009908524+1011957399
1120+1015250456+1019412295+1022213316+1022120546+1020011264+1018225899
1111+1018862402+1022241431+1026154914+1027829380+1027066186+1025939065
1103+1026072271+1027715223+1030061812+1031080797+1029275674+1026545965
1094+1026814574+1031522836+1038077932+1043045668+1045547204+1046758457
1085+1048024309+1050124101+1052940702+1055693638+1057935135+1059126700
1077+1057502939+1052443921+1047247235+1045672550+1047211118+1049193000
1068+1051275371+1054527638+1058919632+1063642695+1067445208+1068590105
1060+1066837245+1064680870+1064809545+1067077669+1068525166+1066246986
1051+1060385117+1054261295+1051682710+1054124123+1059540484+1064115256
1043+1065901896+1065542146+1064040827+1062332157+1062226640+1065030139
1034+1069191058+1071638348+1072000010+1072584179+1073741823+1072997679
1025+1069547762+1065986663+1064827957+1065929160+1067450166+1067961676
1017+1067075190+1065456528+1064693901+1065657436+1067142537+1066941275
1008+1064330043+1061132306+1059520726+1059284197+1058645641+1057198214
1000+1056164358+1055682095+1054504339+1052529539+1050896784+1049765484
991+1048641053+1048283994+1049551334+1050897846+1049859600+1046906960
983+1044344875+1042488693+1040120575+1037192438+1034751521+1033231648
974+1032144042+1031066421+1030272564+1029823938+1028496051+1025285212
965+1021573131+1019435452+1018874936+1018419867+1017098282+1014699571
957+1011614362+1008712356+1006047232+1002506245+997712082+992796893+988676836
947+985233647+982295950+980237373+979475454+979700652+979783012+978866995
937+977160803+974873771+971881969+969398349+969518030+972171964+974776469
927+975316873+973997270+971984370+970235759+969312661+968937756+968311239
917+967619358+968024785+969599965+970552453+969426747+967109830+965494142
907+965075473+964852400+964051460+962832985+961317857+959212329+956672339
897+954586285+953730888+954101189+955144535+956123224+956629778+957049580
887+957733105+957925373+956608887+954161313+952275175+951840289+951705099
877+950562043+949166030+949360493+951130703+952210165+951167386+949086361
867+947617618+946861718+946067577+945462730+945806830+946763495+947332013
857+947352621+947362181+947461042+946954347+945088038+942164220+939901620
847+940041979+942049568+943194181+942032147+940324609+940162014+941374045
837+943059913+945516693+948807413+951275311+951331540+949177785+945836643
827+942279935+939738741+939331544+941251107+944842941+948998052+952118528
817+953160316+953015637+953490322+955160823+957418111+959744234+962016678
807+964293938+966250963+967017485+966043115+963973208+962239397+961222396
797+959920285+957820493+956113097+956396719+958629576+961219988+962697937
787+962785467+962470898+963174393+964930015+965986391+965319579+964176240
777+963646388+962582222+959729505+956207921+954024140+953785629+955054951
767+957218054+959185135+959418902+957286534+954248488+952917839+954578212
757+957801939+960303759+961823136+963543703+965466099+966321142+965971732
747+965738532+966197000+966435724+965530259+963978094+963369210+964596397
737+966821393+968724456+970441907+972705074+974431520+973866967+971807682
727+970868225+972499209+975510132+977199823+976367441+974157104+972028631
717+970333982+969296656+969597203+970429302+969292478+966064431+963806009
707+962961305+959970778+954025415+949430035+948916612+949616850+947857333
697+944605137+943151196+944371512+946300069+946683047+945128545+942602435
687+939864866+937361913+936062635+936838789+938934119+939878746+937537327
677+932480221+927455548+925443994+928020951+933397300+936751826+933675681
667+926409937+921016096+917603783+914300670+911915415+911872571+912310786
657+909347311+902683157+896336333+893416977+893568171+895166084+897236274
647+898805860+898250726+894695080+889414901+885443630+885176721+887796664
637+889874927+888560141+884785883+881761647+880251618+878641312+876311932
627+873891197+871545033+868687288+865594430+863815792+863975130+865005092
617+865317252+863794547+860580734+857976584+859610047+867237382+877710707
607+884829081+886562962+887749570+893034424+899895945+900609496
##END=
