##TITLE=<SNM>
##JCAMP-DX=4.24
##DATA TYPE=INFRARED SPECTRUM
##DATE=3/5/2025
##SAMPLING PROCEDURE=Instrument type and / or accessory
##ORIGIN=Admin
##XUNITS=1/CM
##YUNITS=ABSORBANCE
##RESOLUTION=4
##FIRSTX=4497.3318
##LASTX=599.83466
##DELTAX=-1.4281778
##MAXY=2.0263836
##MINY=0.46611226
##XFACTOR=1
##YFACTOR=1.8872168e-09
##NPOINTS=2730
##FIRSTY=0.48657981
##XYDATA=(X++(Y..Y))
4497+257829306+258207106+258857913+259460097+259542703+258876279+257764734
4487+256974471+257153959+258267731+259622830+260368624+260038594+258789819
4477+257192365+255844703+255214109+255584187+256810838+258191599+258954558
4467+258979272+258857881+259217458+260039083+260619412+260264667+259056872
4457+257800013+257158444+257032695+256791098+256014495+255020867+254506295
4447+254660737+254962832+254881300+254390621+253807450+253559694+253970404
4437+254916752+256007546+257089813+258035388+258301272+257454917+255913728
4427+254536394+253783083+253642064+253912180+254192846+253982153+253209529
4417+252444044+252250027+252526966+252748649+252754871+252822144+252968880
4407+252833814+252329080+251855851+251630440+251292356+250561091+249844228
4397+249792463+250567518+251705340+252458193+252414655+252020132+252054273
4387+252522054+252726967+252317773+251562394+250889511+250612509+250562749
4377+250070949+249000621+248171431+248127688+248506673+248956514+249513519
4367+250048367+250357568+250472768+250237962+249320923+248006076+247099871
4357+246983944+247542970+248727867+250310272+251374394+251032220+249671262
4347+248662079+248690883+249073926+248961789+248579062+248642702+249044569
4337+248981118+248256880+247642915+247846596+248727598+249586397+249838085
4327+249447588+248951240+248982997+249734381+250876862+251785562+251786810
4317+250661005+249165359+248565181+249299052+250468094+250994525+250888326
4307+250844078+251080543+251346901+251671420+252255586+252891769+253188763
4297+253085059+252682466+251989480+251178056+250738811+251096540+252204563
4287+253571317+254629407+255117496+255155112+254997732+254808769+254689289
4277+254703849+254715835+254414087+253687544+252875441+252517049+252876609
4267+253673663+254278484+254363506+254273889+254503531+255076959+255736814
4257+256353132+256866630+257250431+257656814+258184461+258639830+258862271
4247+258910231+258673435+257882493+256738528+255991060+256185013+257109664
4237+257987618+258046963+257123371+255917708+255458707+256079714+257122676
4227+257932252+258692890+259654193+260177608+259622151+258559324+258015680
4217+258112167+258397459+258812275+259377349+259604875+259153928+258540279
4207+258480429+258978309+259508893+259688934+259517168+259355983+259687924
4197+260486761+261044081+260827830+260136234+259539482+259091788+258465616
4187+257711532+257526832+258417720+259711311+260158073+259637138+259253068
4177+259646786+260377688+261012924+261723692+262681173+263596112+263995357
4167+263786117+263459971+263486865+263592416+263167162+262289366+261631864
4157+261425798+261238919+260856682+260772923+261481527+262639120+263392699
4147+263378818+262911463+262425190+262340041+263001018+264028188+264327077
4137+263501393+262537501+262451088+263135626+264001737+264867831+265697779
4127+266191553+266142409+265792087+265613641+265917504+266655133+267444275
4117+267822423+267584569+266880102+266038026+265314673+264770633+264393844
4107+264215587+264198959+264292477+264663361+265387125+266015507+266194585
4097+266442672+267405807+268665604+269177854+268562200+267311846+266229958
4087+266061019+266986822+268203571+268630957+268111947+267381867+267110281
4077+267482617+268294910+268972847+268951275+268418053+268166239+268566527
4067+269232746+269675482+269731037+269404149+268822257+268347812+268343169
4057+268723401+268936494+268600163+268054876+267973897+268545934+269412361
4047+270229833+270799407+270885787+270498860+270101888+270054324+270144905
4037+270032121+269858002+270128071+271131474+272523290+273377209+272938169
4027+271553049+270486858+270575449+271428295+272177041+272539208+272779873
4017+273076093+273290860+273154641+272548588+271761025+271390711+271771227
4007+272551525+273069682+273054869+272764650+272576824+272620882+272774030
3997+272949381+273230378+273575521+273652616+273321212+273011695+273253718
3987+274090140+275155731+275985110+276145522+275518529+274617803+274284378
3977+274895579+276009871+276833881+276908039+276307608+275411146+274611423
3967+274095478+273877174+274092035+274946965+276198392+277108688+277230442
3957+276865086+276567602+276563086+276818247+277403771+278388256+279360866
3947+279611827+279089186+278536193+278502209+278788986+278997752+279098534
3937+279314849+279884549+280885552+281980263+282462288+281974262+281120911
3927+280839377+281222326+281415458+280968932+280692546+281550887+283333389
3917+284649152+284112329+281812303+279388912+278347008+278670990+279512655
3907+280844905+283315102+286556534+288954500+289635501+289168541+288046731
3897+286427453+285073506+284938139+285901716+286612563+286290318+286195915
3887+287608986+289534844+290094028+289692066+289773773+289668474+288294061
3878+287056119+287752722+290017091+292567573+294956128+296496290+295922610
3868+293982318+292804764+292626002+291971343+290374172+289118165+289460434
3858+291918851+296697066+302875750+306246041+303076430+296719964+291523364
3848+288920201+288914484+290849123+293737231+296946164+300311592+303130217
3838+303943172+302454870+300170540+298210982+296541960+295235672+294806486
3828+295191297+296015813+298001269+302097630+306632274+308103301+306882793
3818+306004776+305117694+302132056+298162597+295968027+296555225+299197299
3808+302016430+303445324+304565049+307343847+310887216+312155477+310891195
3798+309222615+307658038+305839153+304279914+303607947+303771201+304642933
3788+306356930+308728146+311084170+313136709+315327204+317835870+320050590
3778+321595237+323035818+325202594+328778556+334070853+340327043+346048558
3768+350680510+354593783+357872230+361135075+366099316+373585993+381849557
3758+388520436+394156013+401589409+412712846+426180338+437094662+442908053
3748+447643882+454959725+463339232+469005129+472867615+479003251+489076258
3738+501976512+515274432+526539237+534126191+537701617+538969752+540927099
3728+545502264+552084931+558215892+561762893+562157559+560828720+560930166
3718+564560231+570832623+578004256+586129580+595697190+604918646+611654808
3708+616486430+621681766+628867422+637551519+645380781+650231479+651550274
3698+650239817+648819451+649916530+653729336+658135530+660815505+661359812
3688+662092420+664917930+668825486+672113188+673975216+674404118+674637835
3678+676810391+681298955+685595428+688468503+690556416+690583262+687648599
3668+684622282+684334810+686093624+687314195+687164553+688489917+693906147
3658+700434427+701867680+698540815+697351639+701976327+710151489+716739209
3648+718341117+715940908+713049262+712710120+715627222+719666608+721967834
3638+722241093+722253221+722690461+723081527+723542138+723913306+723015517
3628+721574685+722757418+727539960+733930852+740078174+746269586+752692314
3618+757230969+758709828+758509716+757510924+755859115+754756160+755143688
3608+756024864+756307472+757012539+759935768+764880459+769087362+770350254
3598+769137516+766123706+759987059+750307455+741532651+739767015+746446074
3588+755603037+759314587+757644143+756195540+757211956+759285530+761736904
3578+764660323+765907486+762893613+757291293+753558962+753123427+752945866
3568+750823717+750011708+754441590+762279948+768236380+769814032+768327656
3558+765505620+762862598+762566914+765615214+769798682+771783696+770868347
3548+768742093+767085230+766450215+766858651+768346922+770759195+773985562
3538+777986984+781707124+782806288+780155434+775862434+773284222+772993339
3528+771840546+767710580+763772199+764265910+768258172+771253096+771507784
3518+771203068+771592238+771189803+769424735+768220841+769121661+771220502
3508+772858352+774123202+775166527+773904961+768503007+760981746+755308174
3498+753396623+754342924+756601260+759832301+763650666+766426338+766754426
3488+765995225+767734647+773696321+781239312+785360434+783756505+779330603
3478+776561690+777078520+779451251+781680405+782607187+781823604+780035796
3468+778874792+779027845+779019001+776852573+772217020+765868323+758731242
3458+753168276+752747017+758821949+768195132+775740333+778589594+777008342
3448+773118283+769066517+765408722+761565280+757939194+756153345+757074063
3438+760183508+765088277+771914894+778821542+781519835+778656804+774460133
3428+772660324+772638026+772749326+772728734+772120943+770215709+767534345
3418+765529812+765603338+768487973+773521539+778776125+782342266+783532579
3408+782840082+780762403+776877208+771138196+766018596+765020057+768681200
3398+773298371+774569412+772517315+770370467+769774553+769644366+768932856
3388+768498585+769381340+770966319+772159033+773007425+774183968+775529419
3378+775622085+772826895+767415465+762199789+760640645+763919124+769229676
3368+772152527+771365217+769520622+769544499+772066936+775876205+779217661
3358+780400963+777928049+771825828+765142600+762020649+763412022+766223509
3348+767362089+767161219+768017444+770929872+774866422+778101442+779324981
3338+778731782+777224814+775314905+773369370+771835998+771474558+773114366
3328+776644438+780566775+782798013+782223133+779564699+776437883+773589696
3318+770555230+767130015+764796068+765841540+770640189+776468140+779172181
3308+776505977+770534764+766323250+767260770+771600513+774322556+772821525
3298+769295433+767231903+767776273+769775058+771954246+773552491+774052455
3288+773545669+773048799+773477954+774658540+775317495+774793590+774842355
3278+777020722+780057273+781914248+782713433+783468781+783736355+782990988
3268+782673006+784503894+787992528+790929654+791217947+788266482+784054589
3258+781451741+780598106+779604494+778887109+780490154+782573835+780579283
3248+774640727+769392078+767284394+767539272+769055968+771017547+772584271
3238+773890369+776074611+779109077+781413209+782225533+782589626+783424754
3228+784209979+784318942+783743935+781651853+776814799+770392070+765774015
3218+765141906+767659794+770913133+773174691+774169250+774090229+772995487
3208+771715224+771862528+773640040+774997935+774338853+772618950+771589269
3198+771561160+771817554+772234580+773404681+775103865+775525629+773523181
3188+770435276+767936591+766214666+765324331+765911024+767396263+767844620
3178+766416736+764110519+761920150+760274026+760238779+762532299+765317825
3168+765565565+763030305+760420130+759439088+759112453+758362917+758233109
3158+760228104+763254421+763735751+759676532+752987113+747313416+745404897
3148+748025557+753335604+757687412+758836288+757529495+755136487+751909489
3138+748409927+746370463+746340269+746270660+744419306+742227169+742152885
3128+743660169+743745254+741374165+738634372+737654909+738735755+740692660
3118+741828839+741340940+740391670+740860178+742768507+744100693+743404470
3108+741220481+738607716+736098229+734239485+733690250+734434291+735428661
3098+735446538+734208344+732680278+732172670+732953726+734303157+735516779
3088+735913150+735088761+733878613+733599353+734150988+734117636+732619259
3078+730025254+727160328+724697205+723146336+722927210+724210821+726461578
3068+728333902+728787629+728175038+727428218+726810195+726258307+726262666
3058+727238465+728093300+726969817+723949185+721172818+719792309+718827311
3048+717343841+715792024+714794243+714528690+715396790+717487545+719492267
3038+719841706+718790106+717648115+716696951+715691400+714942369+714470134
3028+713679350+712683022+712367946+712580755+712080917+710464986+708233685
3018+705602665+702933492+701234497+701120354+702101397+703138531+703391703
3008+702751319+702108661+702490630+703515068+703353298+700792961+696945287
2998+694080424+692815131+691829794+690406648+689347216+689250381+689658312
2988+689911421+689410635+687564461+684898510+683314099+683912983+685451914
2978+685991863+685287491+684489316+684202855+684074184+683686341+682953354
2968+682105910+681509742+681149502+680663434+680059308+679618973+679339902
2958+679270482+679731031+680456374+680305279+678475529+675401394+672383794
2948+670853833+671546835+673692608+675327868+675083918+673589899+672491367
2938+672315763+672009721+670464410+667982337+665886150+664958673+664651051
2928+663774360+661949095+660104690+659219913+658902122+657846480+655535209
2918+652926298+651456850+651533156+652091044+651819870+650515161+648861141
2908+647413423+646332008+645701162+645639828+646142824+646817255+646859703
2898+645652650+643423371+641054113+639318482+638438443+638253996+638408123
2888+638373760+637880365+637285334+637061535+636958510+636262729+634864723
2878+633408098+632403369+631750288+631160121+630656303+630419428+630122987
2868+628952002+626674084+624191001+622666472+622412289+622774045+622901831
2858+622526621+622033099+621874740+622025709+622084580+621857369+621609377
2848+621508563+621118572+619886694+617926884+616036178+614982304+614798552
2838+614717446+613813278+611828137+609423823+607737398+607535706+608389215
2828+608908445+608179691+606588142+605021860+603932171+603321223+602881267
2818+602047403+600620593+599248802+598649349+598545567+597899497+596302011
2808+594612428+593778880+593607509+593317068+592815714+592527105+592320360
2798+591636517+590570705+589861912+589664516+589161582+587711654+585689434
2788+583773082+582165111+580978334+580559855+580832103+580920474+580032665
2778+578405364+576857969+575644979+574385814+573041373+572233913+572317167
2768+572782958+572930326+572576214+571802042+570596190+569108108+567770806
2758+566870238+566256763+565611388+564865832+564228353+563800778+563296518
2748+562288693+560723169+558978630+557437047+556147182+554911389+553680143
2738+552718556+552201347+551866564+551401467+550908767+550573667+550098022
2728+548928869+546960657+544683939+542707579+541360865+540670326+540429219
2718+540220200+539611589+538533333+537374856+536591715+536256742+536022898
2708+535527355+534782936+534040474+533342103+532472676+531304345+529966158
2698+528772781+528066229+527854842+527637264+526970476+526043915+525266586
2688+524601535+523771619+522814391+522035734+521631499+521554025+521562237
2678+521324762+520603840+519366909+517738408+515974604+514417829+513289324
2668+512586278+512289742+512414022+512671332+512448322+511400576+509805111
2658+508225974+507147782+506802323+506968262+507086699+506777877+506012076
2648+504846050+503491313+502466560+502077516+501946255+501574014+501024716
2638+500547270+500020997+499285800+498521261+497928126+497509172+497285278
2628+497215953+496939188+496127211+494990400+494000230+493378480+493138509
2618+493216299+493345223+493187464+492729789+492252975+491895136+491505713
2608+490917189+490144691+489303216+488464583+487638836+486833997+486100190
2598+485531342+485190936+484998625+484741284+484237466+483473244+482627473
2588+482004460+481805043+481915300+482068890+482148385+482094504+481698449
2578+480873397+479961427+479387336+479189783+479117204+478931810+478470187
2568+477707734+476924624+476554625+476737208+477198831+477586927+477725704
2558+477580010+477211654+476802397+476547677+476532959+476774666+477198389
2548+477508032+477397774+476971336+476593030+476308117+475807868+474999050
2538+474230311+473885263+474002690+474310406+474456827+474250303+473810884
2528+473454497+473369412+473492840+473695952+473857185+473759687+473276336
2518+472687622+472447778+472622844+472839885+472728933+472241728+471636654
2508+471240662+471163377+471236809+471228187+471033191+470728727+470536511
2498+470617301+470841227+470908910+470694017+470332767+470032725+469879767
2488+469775163+469511726+468974430+468311242+467840177+467744037+467942033
2478+468270816+468609105+468795384+468693938+468407477+468157210+467908776
2468+467399147+466637988+466136539+466369403+467078228+467458776+467123045
2458+466496810+466155236+466170617+466210760+465988128+465529696+465058378
2448+464656321+464244727+463917966+463933599+464297219+464709192+464919537
2438+464849043+464481918+463908333+463355277+462978866+462706775+462401396
2428+462074666+461787637+461442462+460937223+460475822+460410823+460786949
2418+461282903+461576060+461597189+461462960+461315434+461257541+461340764
2408+461533801+461743925+461928498+462110008+462211359+462023280+461485542
2398+460890890+460630422+460775548+461039711+461129566+460992999+460706159
2388+460295039+459737561+459003185+458011499+456598017+454575735+451909531
2378+448854662+445797867+442900441+440051780+437227754+434689810+432747592
2368+431493795+430833072+430575888+430424225+430218617+430441217+432005572
2358+435164129+439087319+443031322+447406912+452848504+458652704+463146416
2348+465202840+464972597+463664446+462445076+461295505+459471976+456643592
2338+453044194+449102433+445227503+441724435+438849907+436873073+435891399
2328+435633300+435641101+435611349+435520421+435547172+435857321+436365339
2318+436803842+437111748+437580445+438496837+439762666+440947674+441693957
2308+442080348+442552866+443422798+444515488+445407086+445862170+445931591
2298+445807500+445710665+445802383+446113606+446544403+446920023+447136938
2288+447295360+447558007+447881358+448057561+447974308+447656263+447168679
2278+446691992+446544624+446861184+447322080+447439380+447050557+446343090
2268+445543652+444832142+444423517+444443067+444733729+444983837+445066933
2258+445120783+445253812+445336813+445214301+444995049+444953612+445210669
2248+445621442+445923158+445962700+445816975+445673239+445605208+445535978
2238+445380651+445148165+444949601+444932135+445161557+445578773+446083064
2228+446604822+447100049+447521244+447798199+447878926+447817812+447758751
2218+447801325+447936250+448101273+448252115+448385807+448527680+448728265
2208+449068545+449563393+450049397+450331689+450445232+450609307+450966768
2198+451483061+452007502+452374248+452547230+452668826+452893637+453219956
2188+453523188+453722668+453906294+454246983+454764508+455278022+455662329
2178+456037191+456611093+457386022+458082782+458414597+458459793+458674402
2168+459461870+460775832+462201221+463432845+464621927+466141371+468077431
2158+470184704+472302210+474510234+476870901+479296345+481682025+483970682
2148+486091694+487969956+489614754+491149453+492693816+494244811+495804745
2138+497562769+499724461+502210418+504765607+507310783+509953079+512697894
2128+515305416+517435208+518978876+520264129+521713047+523230343+524176581
2118+523992039+522624890+520420246+517879775+515441793+513229378+511022270
2108+508529301+505637087+502456927+499248531+496254303+493522121+490906514
2098+488267629+485654896+483280333+481305236+479695716+478314639+477031913
2088+475659268+473991667+472125280+470534016+469561754+469013814+468495626
2078+467933632+467460608+467019578+466445424+465779457+465201703+464793140
2068+464545685+464404855+464207996+463817309+463335095+462964559+462719314
2058+462454488+462093837+461687833+461330088+461114753+461130450+461415142
2048+461867542+462232457+462303330+462166858+462099964+462208769+462348652
2038+462435190+462623869+463072069+463672058+464165800+464476075+464770021
2028+465144190+465367452+465100794+464371882+463643980+463325620+463323504
2018+463156112+462477259+461446726+460542368+460036592+459760996+459388123
2008+458801872+458126431+457541759+457155653+456956804+456831134+456640623
1998+456311777+455926176+455714631+455804643+455979078+455866547+455338346
1988+454555806+453765021+453174823+452853210+452678333+452499761+452287236
1978+452054435+451776912+451452330+451152667+451003815+451125663+451500937
1968+451873178+451895950+451453814+450738925+449996653+449341046+448813256
1958+448444047+448221226+448116938+448130013+448231522+448374437+448599437
1948+448997198+449566298+450173899+450539034+450303612+449424142+448385270
1938+447725241+447542342+447565650+447493577+447251996+447048094+447125852
1928+447502010+448064257+448720338+449306272+449696453+450055430+450481237
1918+450509819+449648099+448289288+447382214+447424978+448125213+448768850
1908+448858515+448465713+447970991+447618458+447417145+447314215+447347662
1898+447605382+447983025+448171672+448154522+448353876+448882455+449165695
1888+448794717+448160239+447746655+447518465+447246785+446885598+446568185
1878+446519483+446843465+447345230+447909214+448933020+450772846+452675996
1868+453044984+451462595+449322948+447966254+447535457+447513475+447513601
1858+447475038+447489156+447578284+447624269+447623227+447864776+448704294
1848+450371421+452801476+455025292+455293435+453290071+450888978+449631960
1838+449475591+449674692+449925496+450731756+452676533+455249724+456903933
1828+457019939+456538103+456032328+455159837+453979946+453148735+452949381
1818+453143619+453493689+454021952+454892389+456053109+457016781+457346101
1808+457263921+457350522+457988411+459336894+461269480+463139057+464223850
1798+464675208+465482858+467428961+470180661+472081443+471683271+469884094
1788+468767022+469278609+471038402+473329585+475676418+477592770+478663793
1778+479285796+480686739+483880606+488493640+492261250+493013345+491495670
1768+489836343+489195959+489985732+492113440+494516207+495947249+496704271
1758+497789727+499131925+500487357+502735744+506646238+511107071+513772107
1748+513914106+513037099+512778431+513823430+515947347+518154140+519492200
1738+520632802+523426823+528173707+532014149+532321708+530837732+529791597
1728+529490891+529952514+531374460+533666843+537004635+542214689+549564010
1718+557026400+560759995+559827402+557405274+556266125+557221396+560148162
1708+564625861+569689242+574132136+578270125+583881540+591212290+597321459
1698+600043249+600397867+599064165+597027102+596779362+599681746+604998615
1688+611692329+620032230+629625107+636217691+636750312+635178472+635771291
1678+639630651+645852889+652202976+657059549+661527141+667047091+672200737
1668+674593745+675466140+677936085+682757411+687950284+691590834+694442053
1658+698718251+706086016+717008173+728690605+734310863+734488741+736401618
1648+741549516+746446453+747759120+746828611+746405710+747669044+751300941
1638+757407331+763659951+765471889+762229794+758640092+757557478+758610151
1628+760328855+761641206+762220192+761643354+759654297+757583945+757092760
1618+757447252+755548461+750273724+744540207+740410557+737406727+734537379
1608+731530012+728696226+726336760+724459003+722925442+721721484+720945039
1598+720547341+720187480+719452536+718322736+717340304+717066855+717297919
1588+717067929+715674092+713507600+711611272+710723717+711136132+713073203
1578+716298558+719052248+719293166+718566686+720092730+724120430+727744746
1568+728771774+728844289+730344878+734099255+740813182+751760416+765700489
1558+775215039+777422589+778641454+782008177+786787307+792144982+798149547
1548+805111656+813315180+822751656+832665609+841711651+847329320+846012357
1538+840038933+835943709+835773475+837422694+838370637+839069956+841678173
1528+846562666+852095501+856965403+861494772+865660554+867922048+867851239
1518+867081552+866728324+866969305+868058173+870350872+874237836+880114804
1508+887111591+891371807+890008922+886797211+885770309+887495961+890936968
1498+894345633+896068569+896076022+895943309+897068056+899698128+902513532
1488+903295852+901597867+899232716+897809885+897583812+898347371+900193166
1478+903150379+906936339+911131304+914776023+916240101+915124640+913053214
1468+911503419+911072748+911983423+913913292+916385195+919701574+924106505
1458+927798789+927340199+922993760+918648964+916250334+915875693+916844860
1448+917616251+916879412+915180038+914051943+914265320+915918835+918990191
1438+922664409+924647023+923597318+921446555+920046212+919143370+918491426
1428+918999097+920868074+922519568+922511103+921377324+920555904+920257757
1418+919437853+917729509+915928247+914680578+914051248+913882656+914221925
1408+915356020+916956096+917514364+916068541+914078915+913629926+914728711
1398+915553163+914849612+913097620+911621793+911475625+912547059+913158513
1388+910862024+905101599+899078526+896769087+899074294+903924234+908763499
1378+912387437+914782150+916136445+916735834+917361563+918735692+920599552
1368+922219210+923676908+925538368+927329840+927939272+927688500+927959801
1358+928953477+929788730+930060789+930135768+930465056+931287424+932548168
1348+933692054+934080719+934153171+935495338+938923206+942930376+944846791
1338+943784580+941425619+939723970+939351350+939976637+940974229+941987739
1328+943116276+944592292+946405240+948229874+949566987+950073647+949859828
1318+949457582+949464973+949985593+950358656+949878715+949003035+949062159
1308+950296942+951295544+951132764+950735256+951040035+951255749+950131634
1298+947906018+945918983+944977483+944786404+944545296+943705369+942266304
1288+940643994+939375606+938566188+937563732+935704799+933281913+931115989
1278+929391664+927595329+925299472+922672115+920332420+918670567+917434647
1268+916196959+915020289+914176066+913425961+912250997+910501974+908143329
1258+904855248+900710248+896833518+894689892+894810414+896273292+897300004
1248+896627026+894523069+892411468+891491193+891906008+893165932+894888930
1238+896927510+899113646+901068151+902211658+902245263+901680679+901446709
1228+902041234+903347901+904958905+906338276+907237455+908234162+910067071
1218+912429948+914348764+915589674+916712209+917940486+918941110+919606256
1208+920296478+921338098+922706920+924232775+925885912+927610931+929173992
1198+930712291+933110731+936806931+940245412+941051103+939103673+936845274
1188+936590270+938830919+942411462+945457171+947158251+948843033+952065420
1178+956141316+958859443+959072567+957511149+955776970+955296398+956620309
1168+959242991+962014873+963763770+964074297+963758969+964196083+966123362
1158+969124855+971898064+973328600+973921167+975470205+978967872+983582832
1148+987727074+990353293+991119885+990365674+989089643+988057815+987275369
1138+986803640+987517992+990282863+994727462+999101568+1001502787+1001746169
1128+1001199713+1000954058+1001097573+1001236982+1001129030+1000984694
1120+1001260859+1002115126+1003597459+1005967790+1008935868+1011218902
1111+1011456472+1009985509+1009273620+1011389642+1015382220+1018313598
1103+1019172160+1019840527+1021516719+1022683851+1022228924+1022405285
1094+1026162884+1032730959+1037911830+1038580639+1035333933+1030799952
1085+1027111648+1024991268+1023747957+1022679682+1022572993+1024420114
1077+1027609591+1030312558+1031482532+1032722431+1036645464+1042741683
1068+1046808356+1046264744+1044454449+1046274850+1052140133+1057759823
1060+1058823677+1054818338+1048625663+1043860303+1042468993+1044276255
1051+1048040739+1052219281+1054581589+1053488237+1050529192+1049190815
1043+1050575935+1052415729+1052429247+1050983676+1049623065+1048849336
1034+1048362258+1048314819+1049580807+1052694231+1056682893+1059156502
1025+1058472785+1056004483+1054700027+1055663509+1056874225+1055270422
1017+1050248542+1044397346+1041128658+1042303685+1046820863+1051181515
1008+1052627464+1051050001+1047489357+1042633668+1037636423+1034395907
1000+1034034909+1035646040+1036530121+1035564681+1035471573+1038509640
991+1042185500+1042679211+1040337495+1038438388+1038138219+1037031665
983+1032965939+1027638269+1024396806+1023649038+1022797803+1020514706
974+1018452502+1017665760+1016055199+1011340624+1005109733+1001146401
965+1000052290+998176681+993097003+987238416+983904856+983003214+982040301
955+979183776+974749346+970973808+970191299+972420515+975104217+975525791
945+972934819+968607962+964810190+962862254+962089536+961285108+960560333
935+961059792+963154527+965718716+967256952+966968975+964574325+960350872
925+955683104+952400204+951289480+951829303+953240005+955295513+957920217
915+960048367+960106922+958155007+956059641+955276058+955524682+955731743
905+955471243+955126669+954968120+954576045+953637198+952699235+952091382
895+951028854+948936962+946530942+944615411+943262886+942735949+943493507
885+944845528+945556469+945793092+946549703+947724224+948467886+948765717
875+948893377+947999821+945386487+942385816+941016804+941721239+943704674
865+946354644+948907084+950146542+950062593+950119822+951032202+951900302
855+951441586+949328470+946885055+946195779+947705464+949672286+950616313
845+951028412+951999790+953607004+955228178+956176815+955670218+953504990
835+951009210+949750739+950031199+951496035+954161229+958018820+961652043
825+962979050+961637389+958808846+955712351+953607636+953284727+954368731
815+956562196+960430967+965965888+970903440+972247312+969455849+965094566
805+962270445+962127689+963787205+965578613+966138586+965175040+963526010
795+962372207+962521344+964594096+968303941+971848857+973413749+972688279
785+970495510+967778520+965319755+963936467+964084278+965391892+967261753
776+969873570+973616009+977070912+977557296+975136558+973157671+973316472
766+973788707+973300301+973540777+975316520+976068583+974132712+971535108
756+971257427+974055207+978100593+980689797+980243966+977538978+975728809
746+976933840+979034071+978889861+977447386+978347701+982980095+988940696
736+993147536+995111137+995672373+994711418+992170031+989874048+989986169
726+991915217+992701706+991331556+990341165+991449236+992756092+992858422
716+994404175+1000009210+1007083946+1009663801+1005833750+1000180518+996848158
706+995155290+992247158+987243470+982532117+981100949+983154625+986027131
696+987509844+987558229+986009697+982158423+978123080+978047470+981688589
686+982281977+975898980+968786976+968513465+974129365+978540296+978547245
676+977487749+977903323+978061619+975399521+969873254+965146805+966520934
666+973938348+983336482+991179325+993412079+988379081+980692323+976894803
656+979043609+983732411+984674543+979217128+973014598+972031156+975220064
646+977733215+977490718+976909395+978622097+982305980+987086564+991851924
636+992320305+987341441+985448524+992047172+1000151967+1002851144+1001388519
626+997742599+992393389+985764421+977913872+973186791+979196788+999175347
616+1026377524+1047975235+1057563248+1059147848+1057143884+1054563397
607+1056266941+1064847065+1073741823+1069003688+1048549610+1031550247
##END=
