##TITLE=<SNM>
##JCAMP-DX=4.24
##DATA TYPE=INFRARED SPECTRUM
##DATE=2/5/2025
##SAMPLING PROCEDURE=Instrument type and / or accessory
##ORIGIN=Admin
##XUNITS=1/CM
##YUNITS=ABSORBANCE
##RESOLUTION=4
##FIRSTX=4497.3318
##LASTX=599.83466
##DELTAX=-1.4281778
##MAXY=1.7384635
##MINY=0.18805528
##XFACTOR=1
##YFACTOR=1.6190703e-09
##NPOINTS=2730
##FIRSTY=0.21083349
##XYDATA=(X++(Y..Y))
4497+130218859+130450493+130582564+130370754+129883178+129249736+128415869
4487+127475544+127017071+127657645+129141678+130324672+130327534+129389814
4477+128346907+127717349+127609990+128038782+128870413+129736907+130312173
4467+130503045+130350451+130043246+129965651+130368545+131019732+131484270
4457+131737975+132186214+132885002+133000138+131623824+129137665+127050268
4447+126330497+126548031+126737145+126519739+126219318+126292808+126886132
4437+127730786+128376680+128613358+128596286+128554898+128533315+128428800
4427+128119939+127516150+126709940+126059370+125773895+125529108+124901575
4417+124083841+123696943+123933281+124351379+124595088+124860233+125380186
4407+125832880+125682485+124901593+123980716+123364079+123092391+122871037
4397+122458075+122061412+122221967+123210353+124587762+125399918+124946856
4387+123515404+122122404+121422862+121253406+121224112+121187813+121025012
4377+120514630+119639080+118747838+118316036+118605717+119450591+120314628
4367+120724958+120627438+120199602+119495845+118493167+117385412+116534913
4357+116150160+116274536+116977382+118238358+119732155+120961783+121590430
4347+121576644+121064532+120224360+119215892+118283381+117689827+117453177
4337+117332261+117147712+116971961+117021476+117447480+118151219+118819561
4327+119237014+119388053+119180661+118476103+117561079+117131725+117577259
4317+118589454+119566814+120114405+120157763+119873797+119563298+119457706
4307+119587991+119816616+119974907+120035531+120203983+120683643+121260171
4297+121372233+120810809+120085258+119835879+120169277+120801734+121472395
4287+121925559+121885385+121344604+120635307+120086785+119807964+119782774
4277+119953077+120227333+120554196+120960302+121429599+121778449+121773590
4267+121421582+121054711+121002049+121168854+121135574+120817380+120761579
4257+121420570+122366822+122762113+122478746+122217476+122550027+123238092
4247+123582433+123265556+122678877+122404216+122609215+123048849+123371194
4237+123354940+123162982+123229358+123589483+123739896+123513986+123480568
4227+124095318+125039775+125686397+125851591+125881622+126053921+126083952
4217+125575733+124851526+124685596+125265529+126037502+126441417+126250472
4207+125512643+124688881+124481498+125086566+125869989+126054639+125586308
4197+125140839+125311868+126013582+126748328+127189278+127333681+127328721
4187+127324100+127349567+127334896+127313967+127429186+127682992+127946903
4177+128268898+128880491+129790490+130631453+131118872+131461639+131968698
4167+132411535+132264877+131510114+130675474+130143813+129922312+129972821
4157+130278415+130627854+130742135+130661061+130716622+131046523+131376230
4147+131403776+131170255+130910007+130729195+130513685+130023100+129179155
4137+128370790+128180240+128699421+129416201+129817152+129846806+129746239
4127+129651084+129473769+129105038+128593295+128151369+128065537+128473658
4117+129120721+129559868+129682578+129747224+129873791+129919901+129845637
4107+129831087+130050986+130548750+131239383+131900638+132277937+132308833
4097+132154628+131964962+131703121+131262125+130690080+130201538+130035902
4087+130381439+131266220+132382912+133188184+133375725+133189602+133115817
4077+133321635+133577475+133689905+133742632+133859738+133974166+133919920
4067+133620198+133179588+132868969+132932501+133316141+133650174+133591998
4057+133158264+132655871+132321451+132125664+131937609+131769828+131819113
4047+132296896+133134620+133835965+133852633+133191249+132421365+132025189
4037+131895797+131576582+131005061+130813232+131579085+132890533+133642774
4027+133349964+132698584+132616995+133179855+133719357+133817604+133762190
4017+133926639+134138844+134031338+133700591+133549331+133636967+133653331
4007+133512029+133546938+134016373+134706417+135143723+135045788+134525568
3997+133994920+133856609+134135108+134473245+134608869+134671867+134897436
3987+135283635+135668351+135922728+135942709+135669309+135305898+135321526
3977+135967024+136936027+137714462+138058894+137991488+137650782+137294339
3967+137146475+137223637+137522255+138177335+139198264+140221751+140694620
3957+140325991+139428269+138808964+139255547+140981825+143200759+144395598
3947+143935679+143136279+143446779+144251103+143851421+142161285+140749169
3937+140799291+142490799+145487781+148772695+150448888+149280841+146551746
3927+144899905+145436609+146865669+147579642+147915166+149239728+151517473
3917+152763760+151173031+147434143+143905363+142122335+142209281+144276725
3907+149145171+156933888+165365812+170792857+171625169+168819289+163562252
3897+157400728+153043427+152647308+155641731+158537566+158590431+157897277
3887+159855383+163794935+166338202+167038793+167504565+166243884+161806734
3878+157944068+158804947+163657471+169192639+173669715+176008589+174783415
3868+171897336+171036769+171955244+171014717+167084461+163273703+162649519
3858+166502871+175462599+188025012+195548584+189433667+176499763+166127128
3848+161224297+161658943+166162083+172792250+179859714+186305903+190350062
3838+189621198+184821576+179737510+176311330+173696442+171252960+169824443
3828+169875670+171036309+174253826+181249907+189929535+193811270+191570653
3818+188327826+185096467+179245728+172145647+168100714+169318581+175023131
3808+181593806+185303178+187657496+192302223+197365195+197359378+193059526
3798+189216648+186205732+182439905+179023813+178211601+180365742+184311167
3788+188904519+193274281+196744030+199960112+204829865+211692274+217878058
3778+221271141+223823206+229135134+239212833+253666497+269358257+281975725
3768+290287653+296220082+301485311+307851098+317406018+329745816+341238852
3758+349695349+358167713+371500056+391984388+416843010+437250548+447940374
3748+455430574+466590037+480228968+489503954+493722189+499336710+510245948
3738+525856017+542141846+553624096+557437597+555503972+551896814+549731850
3728+550450609+553552382+556752670+557871341+555875758+550594809+543419112
3718+537270750+535229922+539317872+548798575+558054307+560035900+555168080
3708+549016404+545113224+544846874+547859116+551420697+552802736+552400726
3698+552307329+554081290+558852915+567443232+579499929+591684813+597132897
3688+592725106+584818501+580352360+580690056+583819293+588027551+593849814
3678+601617998+606930680+604538315+598633109+595519850+593308352+586604354
3668+576432135+568300670+564704630+564287489+564317051+564292054+566356516
3658+570727603+573710983+574098046+577213036+587972072+603433486+611271653
3648+603765255+589823086+579456672+574668886+573371520+573312985+573715069
3638+574872726+576800608+579055693+582325081+588707692+598486920+606157694
3628+605155614+599407200+596632262+598914921+604479817+610605392+615313696
3618+619072970+624069235+630655796+636570352+640309046+642798417+643973965
3608+641896986+637743986+636180932+639146162+643792472+646619354+648195366
3598+651652948+656886811+659669443+658117286+656875178+661736630+672428774
3588+680800452+678988903+670227953+663207059+661647318+663550903+665192960
3578+664974358+664076240+663650227+663296076+663078578+664730795+669294421
3568+674093877+674316234+669126990+662508106+658372482+657958838+659904980
3558+661799361+662443681+662463340+662846354+663827156+665216079+666794227
3548+668191470+669096066+669487547+669062050+666963940+662886703+658232073
3538+655215966+654605367+655276783+656146995+657354572+659196971+660924878
3528+661147162+659220016+656066298+653575823+652895277+653352582+653477088
3518+652849702+652307945+652390630+652550550+652268259+651857193+651542580
3508+650808285+649361932+647888558+647279873+647770826+648725858+648909339
3498+647629607+645335351+642952373+641151427+640296235+640616591+641965534
3488+643973671+646567667+649497923+651376548+650160283+645374521+639483895
3478+635936265+635930964+637783230+639430735+640574550+641708645+642448388
3468+641981512+640448498+638792599+637400584+635902838+634233833+633093479
3458+633129999+634160426+635239006+635214709+633669841+631624817+630745180
3448+631631811+633672713+636238288+638697987+639672015+637877400+634041516
3438+630515239+629065278+629746708+630983515+630954064+629775791+629369216
3428+630308344+630472167+628346961+625969727+626217117+628498856+629671460
3418+628632565+627232009+626958333+627352759+627378087+626651745+625482602
3408+624556138+624220982+624068130+623708383+623404666+623365349+622964075
3398+621549824+619763455+618848993+618824769+618537619+617418948+616182620
3388+615821068+616310623+616472494+615345909+613313438+611719019+611507374
3378+612483942+613766399+614217151+613045026+610912458+609784032+610948830
3368+613499055+615192578+614826020+613392736+612677143+613245406+614255843
3358+614660651+614024540+612672283+611398589+610734167+610709207+611496625
3348+613553908+616528857+618718744+618626709+616650491+614499957+613381765
3338+613282183+613851440+615107022+616631016+617294554+616845900+616380790
3328+616286546+615290687+612466456+608814238+606199110+605795885+607451416
3318+609694610+610677989+609736468+608077108+607728810+609442839+611749317
3308+612654907+612110721+611849856+612986050+614851127+616075601+616040701
3298+615176748+614149376+613320764+613104997+613901985+615439637+616911024
3288+617695165+617505020+616471353+615351578+614815012+614801060+615269298
3278+616680089+618906128+620828562+621802663+622192525+622130456+621240880
3268+619704921+618340737+617447737+616402327+614826535+613675284+614171870
3258+615816577+616730893+616176362+615331662+615155543+615077644+614412229
3248+613697041+613925546+615168906+616337202+616198634+614651042+612837247
3238+611930258+612137632+612839346+613209180+612738475+611499054+609876509
3228+608036871+606092570+604808015+605297974+607608907+610140319+610935577
3218+609430764+606674012+603927642+601701456+600158318+599545658+599824893
3208+600550904+601237708+601373110+600505439+598982512+597936181+597838992
3198+597911258+597376717+596338007+595194450+594242805+593789034+593618327
3188+592859036+591234466+589543152+588419916+587884197+587956169+588354129
3178+588349233+587938829+587998137+588657220+588821668+587738119+585947075
3168+584467663+583830889+583671300+582910205+580859474+578147305+576001888
3158+574800901+573995556+573275140+572865105+572703012+572301702+571554301
3148+570929823+570783892+571008237+571164587+570645398+569150487+567260671
3138+566020072+565877012+566349080+566590138+566048124+564685560+562837344
3128+561004075+559603408+558644842+557831545+557213804+557287910+558124474
3118+558942190+558880526+557823666+556308913+554907657+553743190+552565837
3108+551382816+550683863+550670647+550659345+549864933+548537416+547628770
3098+547508719+547584924+547142161+546191142+545298215+544750016+544295619
3088+543793659+543659803+544251443+545132331+545479120+544980877+543781989
3078+541979754+539948903+538719127+539094484+540547132+541670920+541673092
3068+540899444+539990724+539139913+538323008+537654205+537074825+536226554
3058+535130046+534394426+534222872+533933771+532976530+531578624+530008760
3048+528211274+526589391+526083786+526815135+527495055+526925467+525461959
3038+524222796+523481396+522731787+521878436+521312051+520960218+520314683
3028+519421609+518874772+518754095+518426082+517482094+516207847+515140495
3018+514641664+514690664+514755309+514237482+513183530+512071523+511029905
3008+509847361+508558021+507520893+507033033+507081222+507245487+506901569
2998+505862859+504640336+503800532+503365537+503052727+502665295+501922828
2988+500399166+498223046+496401962+495801966+496202135+496822343+497185551
2978+497044810+496245208+495048749+493988355+493304643+492906204+492622809
2968+492216271+491511980+490623766+489694136+488601824+487359937+486387528
2958+485891311+485430214+484557167+483517758+482856539+482630648+482405750
2948+481824639+480911723+479918957+479035087+478310658+477837339+477753145
2938+477919103+477887480+477368143+476402988+475092221+473608428+472384911
2928+471781196+471576510+471117401+469978261+468346476+466859590+466130818
2918+466231542+466540338+466234781+465119902+463892888+463396854+463602498
2908+463531484+462489939+461098844+460477311+460644079+460556240+459654294
2898+458469543+457642329+457194375+456805913+456178232+455244295+454423708
2888+454261983+454491556+454056340+452465749+450514454+449281328+448966751
2878+448987514+448813641+448397679+447975863+447696996+447463189+447119971
2868+446715568+446397200+446075334+445435836+444348383+443065154+441959847
2858+441232216+440852625+440654602+440454738+440099445+439431159+438364580
2848+437086320+435958814+435123907+434467622+434020072+433975159+434183527
2838+434071354+433278489+432068188+430978122+430286900+429838173+429220947
2828+428130808+426617085+424989496+423591811+422701830+422437541+422595216
2818+422709671+422480356+422096053+421890704+421673796+420789999+419038236
2808+417125043+415895378+415450111+415275502+414917853+414283766+413534783
2798+412907618+412476083+412021097+411317690+410485728+409784124+409168960
2788+408394134+407448084+406578056+405964659+405590113+405277892+404740627
2778+403796308+402594474+401452169+400554346+399965910+399681079+399452242
2768+398839766+397710529+396488632+395654571+395165938+394586668+393652620
2758+392510167+391473003+390717982+390205346+389764975+389190896+388341005
2748+387299902+386398214+385882264+385573320+385039662+384115113+383059615
2738+382164185+381386708+380552537+379763795+379280756+379072389+378860597
2728+378523306+378070861+377381995+376364416+375227890+374296051+373684238
2718+373317422+373086229+372827131+372279411+371298756+370141983+369293307
2708+368907164+368659368+368198934+367509038+366843696+366461234+366287840
2698+365850451+364837547+363615503+362803936+362490905+362236041+361710704
2688+360999529+360328886+359778993+359301109+358815310+358208650+357399181
2678+356489063+355724507+355246844+354918757+354409544+353558549+352660689
2668+352126406+351887814+351543528+351006447+350521053+350162741+349764228
2658+349206789+348513689+347783960+347120938+346553522+346076153+345715632
2648+345412505+344988075+344392202+343788634+343318628+343007844+342860992
2638+342780995+342519099+341966409+341336188+340843726+340390507+339786424
2628+339123549+338672944+338454195+338138440+337449795+336514128+335682239
2618+335116112+334733245+334466674+334303992+334094667+333633975+332984795
2608+332469066+332299059+332340732+332216116+331628968+330663334+329713934
2598+329074694+328719769+328487877+328254991+327918768+327449314+326988033
2588+326754337+326827708+327051427+327138750+326900563+326393485+325821615
2578+325316967+324852520+324324348+323700385+323108561+322727683+322577628
2568+322489127+322275127+321869288+321334710+320801863+320378611+320111671
2558+320020152+320103204+320317352+320585764+320789309+320769392+320441231
2548+319892738+319319984+318918636+318783050+318781467+318629093+318190122
2538+317552538+316817139+316087999+315582283+315415847+315401673+315327566
2528+315253055+315331763+315538806+315707415+315684038+315410693+314976397
2518+314583369+314384794+314361454+314379934+314338997+314221928+314029317
2508+313738338+313366000+313008682+312764825+312644774+312588559+312555353
2498+312558924+312583663+312496892+312133537+311474527+310674446+309934961
2488+309403696+309123099+308998299+308874346+308702719+308579263+308579484
2478+308613426+308504420+308194003+307804454+307475005+307213072+306972161
2468+306802853+306800681+306911399+306919020+306680556+306269103+305825199
2458+305386430+304965368+304680187+304654013+304808025+304874069+304660547
2448+304267556+303968755+303882426+303859343+303732555+303550252+303458806
2438+303459100+303406032+303228699+303041333+302983020+303012600+302950550
2428+302709896+302396829+302170495+302073545+302030271+301982762+301966785
2418+302022724+302116581+302227079+302404836+302632200+302740102+302596950
2408+302297541+302060072+301975270+301939266+301852569+301802170+301928498
2398+302181153+302391619+302514984+302562566+302421328+302044959+301685819
2388+301613038+301719486+301655374+301201511+300318138+299021177+297422671
2378+295759022+294246478+292995423+292061725+291433897+290989293+290589750
2368+290194900+289882514+289820556+290109823+290652002+291396568+292623490
2358+294658428+297453429+300800918+304780396+309544142+314687774+319260787
2348+322381998+323753361+323888432+323632279+323102561+321744967+319380359
2338+316386377+313160908+309947551+306908841+304079804+301441447+299121256
2328+297307295+295928680+294653034+293306668+292161584+291644382+291806235
2318+292220946+292389297+292145091+291672048+291263319+291159908+291490794
2308+292179439+292930023+293416614+293492635+293234108+292873440+292673613
2298+292758580+293041828+293345047+293562232+293709028+293857426+294038717
2288+294215811+294353073+294451201+294482787+294390826+294185440+293928809
2278+293630669+293302269+293058854+292991043+292997688+292898694+292639044
2268+292310313+292090809+292162946+292528473+292923415+293058228+292922679
2258+292773618+292857904+293183838+293530646+293665348+293556268+293380168
2248+293337721+293476989+293679522+293789670+293767176+293742529+293894829
2238+294246551+294651617+295024802+295446084+295977330+296540402+297043338
2228+297489562+297929491+298403675+298953070+299647495+300572303+301738335
2218+303029111+304304021+305533447+306797478+308181044+309677741+311214104
2208+312795896+314522184+316391237+318260216+320054720+321831958+323633825
2198+325440699+327232663+329008318+330804295+332702909+334734349+336768440
2188+338569644+340018684+341258142+342513872+343804648+344965508+345888659
2178+346601049+347179325+347646128+347900219+347821842+347455541+346948022
2168+346348541+345586893+344578665+343332581+341983196+340606054+339071347
2158+337249747+335179947+332910652+330426251+327737900+324878106+321924399
2148+319019102+316278070+314053393+313284162+314815482+318333108+322709018
2138+327248456+331896496+336604911+341245441+345865466+350603848+355506899
2128+360452029+365207750+369743875+374391437+379486768+385045111+390879633
2118+396787968+402620502+408367296+414142327+420103858+426601660+434296804
2108+443899619+456014188+471404367+490838576+514143790+539772747+565651342
2098+589952525+611039356+627837233+640468967+649806868+656791021+662151083
2088+665759529+666471220+663029615+654592408+640959625+623059497+602328032
2078+579672771+555807136+531665101+508014497+485525747+464988771+446872875
2068+431169150+417700006+406075949+395800355+386798089+379236432+372936616
2058+367636562+363355080+359974403+357122118+354665696+352716352+351290173
2048+350381269+350064594+350441976+351764486+354443045+358902707+365768356
2038+376004300+390496104+409629505+433196577+460301818+489510433+519335427
2028+548189228+574096353+595574040+612699784+626553451+638071263+647651990
2018+655185557+660262740+662524378+661963846+659079681+654447655+647997233
2008+639184375+627788491+614087749+598575053+581778576+564086300+545727652
1998+527085498+508881617+491794013+475852801+460480624+445349138+430873496
1988+417623911+405801094+395450989+386595390+379002920+372240204+366009930
1978+360288537+355228916+350946072+347298234+344049241+341285642+339254865
1968+337681062+335780238+333230934+330597032+328504407+326953170+325657203
1958+324541220+323602165+322663921+321570689+320452497+319657459+319440366
1948+319770662+320536065+321700532+322804882+322731327+320929203+318405190
1938+316546776+315739332+315575510+315612029+315607796+315472872+315217860
1928+315039827+315469117+316859549+318592574+319722767+320403423+321202916
1918+321404546+319920422+317502287+316033072+316292244+317508472+318364253
1908+318123783+317099467+316105412+315580332+315447212+315590235+316119254
1898+317139263+318323352+319021127+319263290+320059138+321772283+322996647
1888+322330017+320426543+318802193+317977263+317728620+317881877+318282120
1878+318702648+319052824+319523566+320793616+323896015+328966313+333769525
1868+334797412+331409777+326708320+323584384+322536102+322612013+322841880
1858+322795384+322530359+322328029+322389766+322852188+323944058+325949102
1848+329226332+333855707+338241373+339051430+335425792+330864412+328494725
1838+328298284+328631231+328841734+330233823+334176284+339450753+342632229
1828+342479892+341133784+339790658+337573491+334556463+332320926+331627790
1818+331793122+332125848+332975518+335068916+338077660+340351742+340597108
1808+339414896+338516521+339265946+342117052+346209089+349375140+349906367
1798+348721800+348677254+351839477+357386260+361054087+359017162+353467286
1788+349421341+348808754+350364298+352470618+354641988+356430160+357108976
1778+357324338+359315577+364822932+372912098+379129156+379256386+374568071
1768+368847231+364461639+363105112+365495489+369579758+371977425+372409512
1758+372841746+373443547+373901036+376082051+381820820+389374193+394090965
1748+393889555+391240117+389228630+389205180+391010434+393290516+394504057
1738+395631231+399966388+408178292+414330079+412339061+405782393+399876856
1728+395855687+394081210+394750601+397057557+400883428+408150277+420247249
1718+433688893+440001446+436100733+428299674+422444021+420550413+423029365
1708+429425082+437525991+444312195+450096061+458420064+469804646+478493330
1698+480429679+477794046+471928305+464913486+461415151+463476483+469492131
1688+478076263+490544983+506311660+516060333+512573079+504076675+499462467
1678+501042529+507458273+515086894+521126176+526946341+534002171+538822612
1668+537771495+534942404+536376019+542324481+547858269+549257573+549034959
1658+552172589+561995332+579362465+597842526+601505715+592878474+589055291
1648+592779775+595283614+589168568+579756928+574616868+575357126+581379290
1638+591954771+603140041+605943105+598072909+589184803+586025673+588295447
1628+592863343+597643804+602544720+606473780+607214591+606325051+608460822
1618+614771940+619857111+618213655+613414566+611391483+613048450+615913325
1608+617746999+618429238+618974234+619873382+620792410+621313624+621654523
1598+622509347+624119964+625797952+626735460+626995221+627146306+627364614
1588+627545371+627889804+628702070+629795302+630896928+632902193+637793538
1578+646123173+653781614+654659484+651267946+651427130+656851764+662151230
1568+662343473+659970583+659552522+662840243+671691829+689136641+711972732
1558+722153603+714077984+704192731+700174618+701454792+706271477+712927396
1548+720707986+730893200+744827933+761495451+778182554+789878694+788280372
1538+775795453+765616055+763012413+764435942+764139956+761764857+761654709
1528+765779436+772378587+779618673+787717263+795582378+799443075+798780421
1518+796903637+794502252+790659815+787091423+787087963+792987204+805600751
1508+821603185+828387954+817318317+801959982+794330919+795016398+800390449
1498+805206767+804726048+799706811+796194671+798503284+805666722+811968636
1488+811897953+806534431+800898631+798048041+797915731+799093046+801154931
1478+805108694+811686935+820009281+827065149+828241065+822502260+815482249
1468+812599483+814228361+816641305+816652423+816608246+821371036+832463276
1458+844847545+847603892+838535544+827976519+822177412+821183725+822683459
1448+823395518+821509089+818585238+816893776+816788930+818304641+822579054
1438+829177396+833339379+831284636+827106896+825853670+826895877+826709377
1428+824491032+822802295+823168964+824735036+826954706+830380407+833337244
1418+831326236+823867548+815921442+811067500+809344379+809157952+809492372
1408+810638690+812578205+813696691+813070557+812864398+815478494+820001403
1398+823472091+824313294+822545406+818831451+815445730+815095259+817885696
1388+820835611+820812860+818404996+817103764+819072878+823721543+829292918
1378+834874307+840724806+846589295+850701506+851905474+851551691+851437935
1368+851973801+853371339+856243061+859868736+861732119+860392748+857371340
1358+854800316+853178654+851817562+850219020+848691455+847771102+847363275
1348+846791920+845750522+845044280+846090169+849488112+854068304+857433924
1338+857926129+856188650+854244717+853350649+853304337+853508950+853941148
1328+854863710+856302479+858094001+860019011+861980983+864214790+866819904
1318+869172179+870664034+871833030+873765329+876569240+879174059+880602300
1308+881022791+881301915+881904930+882878075+884509750+887071497+890036654
1298+892184389+892447536+890713518+888139180+886162999+884804705+882784199
1288+879519376+875674362+871700425+867537411+863772358+861413898+860356376
1278+859265942+857245436+854902070+853513368+853628228+854750911+856111046
1268+857321273+858278145+858945291+859434919+859907244+860374488+860908661
1258+861648699+862277189+862122423+861203322+860547515+861086989+862785592
1248+864981260+866949195+868002153+867727961+866527232+865529496+865717763
1238+867313434+869870396+872622030+874916359+876756403+878805918+881532151
1228+884534636+886920559+888125265+888398499+888681010+889722335+891319846
1218+892939373+894692682+896730859+898324248+898874913+899276261+900946885
1208+904082859+907703307+910850987+913414943+916062099+919324051+922881031
1198+926100941+928826732+931059434+932612033+933747159+935175326+936947632
1188+938484842+939927882+942121561+945086791+947798372+949765571+951707000
1178+954127307+956418692+958170087+960042305+962254981+963730196+963793738
1168+963326345+963425155+964359644+966159560+968775939+971904624+975544656
1158+979772316+983554230+985276910+984776459+983479645+982429044+981457077
1148+980562936+980818794+982976911+986144251+989068691+991702373+994248437
1138+996310690+998017098+1000104385+1002350930+1003710843+1003947411+1004012572
1128+1005179211+1007787270+1010431260+1011230495+1010049571+1008744143
1120+1008981226+1010498188+1012255179+1014524916+1018330981+1022990102
1111+1025881483+1025249311+1022335989+1020254739+1021311967+1025353936
1103+1030072181+1033168543+1034329733+1034790867+1035705109+1037328832
1094+1039196633+1040472169+1040089081+1038220470+1037114427+1037908360
1085+1038872448+1038983921+1040499706+1045422931+1051911935+1057088368
1077+1060521726+1062626831+1062882763+1061068710+1058092289+1055058290
1068+1052896565+1052424756+1054029998+1057332151+1060983523+1062710546
1060+1061067827+1057788425+1056469449+1058899254+1063930640+1069049127
1051+1071907965+1071482246+1069089255+1067543504+1068304304+1070063872
1043+1070750897+1069941796+1068780532+1068708818+1070121007+1072035857
1034+1073407772+1073741823+1072645646+1070104441+1067152243+1065082038
1025+1063779776+1062155095+1060071784+1058303528+1057253663+1057078207
1017+1057916907+1059109021+1059381961+1058353448+1057100958+1057060757
1008+1058671964+1060449202+1059637451+1055447563+1050908971+1049561133
1000+1051399114+1053664287+1054583756+1054359117+1053039478+1050034930
991+1046033604+1043103348+1042085584+1041521592+1040026129+1038628223
983+1039654748+1043399480+1046434142+1044591374+1037888039+1030614453
974+1026297335+1024669930+1023716812+1021936187+1018229447+1012469658
965+1006674306+1003186463+1001568335+999559683+996446387+993012366+989598740
955+986555538+984922611+984801125+984415239+982067382+978149108+974582262
945+973041223+973479974+973878597+972286754+969264168+967172758+967054585
935+967317143+965868728+962655813+959516158+958156318+958980733+961542628
925+964683608+966171488+964509772+961467748+960194421+961099460+962018045
915+961832502+961357011+960856413+959355648+956780206+954876696+955074387
905+956491657+957323804+957536221+958232744+958986918+958205575+955519397
895+951772456+947813024+945274322+946673995+952671604+960111442+964307957
885+963295569+958503770+952242204+946630481+943525725+942950173+942645279
875+941003590+939088152+938774643+940712979+944440114+948590317+951017030
865+950369028+947296301+943588530+940997332+940674472+942447587+944619031
855+945213063+943703169+941196717+939256318+938971083+940410073+942194674
845+942392660+940840504+939308521+938739595+938453182+938636295+940783442
835+944730283+947758539+947842328+945776761+943134318+940664900+939304471
825+940127488+942644543+945034957+946198946+946302909+945807980+945348539
815+946063322+948779910+952799643+955921480+956099734+953354358+949672210
805+946969612+945737959+945727578+947101333+950195265+954251445+957233241
795+957575980+955701258+953235522+951584262+951717750+953705933+955942317
785+956508076+955443044+954489927+955205961+957598879+959892987+960058945
776+958107503+956292567+956162245+956674476+956407059+955717015+955637349
766+955757510+954642484+951964920+948871503+946548606+945441164+945628621
756+947130564+949640108+952379520+954540436+955775549+956112472+955835998
746+955657891+956415379+958161030+959838797+960392113+960051803+960210693
736+961976151+964833074+966678934+965492267+961657709+958149692+957432553
726+958856523+960163571+960239703+959197348+957900755+957186708+956917818
716+956104299+954568856+953631348+954008987+954252770+952541503+949498889
706+947230109+946123035+945105125+944155615+943877668+943828853+942956726
696+940607691+936521619+931539490+928240136+928331950+930119864+930443019
686+928078006+924008279+919679970+916584123+915754260+916122327+915392892
676+913431731+912221356+911708609+908750816+901198105+891843564+886905097
666+886990064+887969394+887844667+886641656+885830862+887323306+890196280
656+890508537+885502553+877185066+870896184+870991385+877580229+886364151
646+892344825+893643038+890783833+884301603+875516945+868168479+866541369
636+871864984+880697059+886368495+884324575+877459258+873079629+873889025
626+874786994+871064425+865852945+864747122+868112963+871585712+871610599
616+867368287+858613816+847608825+840322722+840569598+845726078+850988140
606+854985785+858071692+859021202+857416621+855100866
##END=
