##TITLE=<SNM>
##JCAMP-DX=4.24
##DATA TYPE=INFRARED SPECTRUM
##DATE=3/5/2025
##SAMPLING PROCEDURE=Instrument type and / or accessory
##ORIGIN=Admin
##XUNITS=1/CM
##YUNITS=ABSORBANCE
##RESOLUTION=4
##FIRSTX=4497.3318
##LASTX=599.83466
##DELTAX=-1.4281778
##MAXY=1.7066319
##MINY=0.18385425
##XFACTOR=1
##YFACTOR=1.5894248e-09
##NPOINTS=2730
##FIRSTY=0.19897202
##XYDATA=(X++(Y..Y))
4497+125184919+125299690+126183227+127344935+128139342+128225078+127825282
4487+127462312+127494047+127993276+128729172+129129118+128707853+127672176
4477+126753379+126505405+127007100+127942650+128730241+128984684+129027932
4467+129493316+130471711+131492650+132087469+131905196+130682587+128604839
4457+126428847+125024716+124862731+125675766+126518727+126563550+125915059
4447+125282224+125020825+124970855+124986709+125084867+125184938+125169028
4437+125119180+125159090+125238770+125345394+125589740+125810638+125554236
4427+124724278+123776821+123103673+122656580+122232718+121828835+121615202
4417+121669419+121915724+122336876+122897541+123256433+123066388+122436591
4407+121588792+120491698+119305418+118556181+118479585+118742438+118920013
4397+118859740+118678489+118627648+118859093+119314315+119795853+119967625
4387+119562111+118846127+118409965+118320554+118077043+117480734+116922047
4377+116793410+117072491+117435349+117571148+117478484+117418651+117484493
4367+117453396+117174474+116814983+116581775+116438831+116242524+115993763
4357+115889801+116287609+117499737+119248698+120454723+120179795+118764451
4347+117423536+116872378+116938510+117247460+117650903+118094359+118508358
4337+118762688+118607632+117945078+117172253+116860368+117089441+117469615
4327+117751227+117991082+118121284+117815709+116989605+116101278+115673450
4317+115772471+116244568+117075641+118078552+118624404+118332479+117794456
4307+117961531+118972664+120106987+120745878+120929604+120945504+120744688
4297+120075065+119161527+118792567+119400098+120480026+121314231+121761774
4287+121937653+121762430+121253226+120664614+120021242+119109486+118170448
4277+117980666+118930888+120441100+121568008+121967072+122027701+122226118
4267+122589182+122810070+122741097+122550340+122376355+122181492+122092953
4257+122465551+123346969+124251769+124697653+124736138+124822399+125225138
4247+125646075+125547401+124886675+124267660+124273819+124932492+125871089
4237+126660883+126975843+126693012+125982485+125241883+124843906+124889141
4227+125214301+125610196+125903030+125947413+125864789+126101747+126816240
4217+127489003+127698576+127814126+128241072+128547659+128147723+127317822
4207+126779283+126793786+127219495+127867245+128391131+128423307+128088903
4197+127889718+128008905+128190605+128203496+128004639+127621897+127225598
4187+127124955+127471059+128135151+128889657+129494338+129732140+129653491
4177+129649929+130039018+130704113+131271087+131514973+131535579+131564680
4167+131625131+131491019+131027107+130394694+129864105+129614987+129731530
4157+130211006+130944146+131727996+132334852+132666828+132845003+133009781
4147+133079139+132871563+132412029+131960998+131754537+131802332+132015955
4137+132507262+133467778+134657452+135408865+135341082+134791818+134447429
4127+134697522+135276440+135479957+134924149+134053559+133667882+134060215
4117+134808702+135324272+135490232+135692145+136178549+136626130+136535819
4107+135842823+135026057+134852138+135864593+137733181+139297881+139621241
4097+138802806+137618785+136711022+136249491+136083053+136057806+136222603
4087+136719329+137520973+138302930+138589904+138185074+137487513+137161660
4077+137475129+138162499+138834156+139267703+139401215+139281315+139030913
4067+138772796+138568295+138463649+138529406+138713254+138741783+138474168
4057+138290855+138645809+139308888+139649610+139593959+139595178+139758400
4047+139790370+139736181+139968226+140456542+140698619+140377416+139692324
4037+139099868+138985331+139508926+140593814+141958270+143092077+143454072
4027+143039042+142523163+142509878+142947493+143520871+144111114+144580764
4017+144595277+144004302+143119331+142382300+141924135+141604460+141393433
4007+141515273+142163352+143198533+144202503+144791200+144865582+144611815
3997+144332256+144239666+144274158+144211747+144135864+144501459+145413197
3987+146244354+146370497+145872337+145234749+144808825+144724833+144945290
3977+145309366+145680390+146004593+146256261+146453290+146644900+146821331
3967+146934518+146964866+146930168+146951750+147211752+147657749+147951023
3957+147856746+147432378+146827350+146257761+146091060+146504319+147118263
3947+147361408+147160929+146910068+146908502+147185239+147704193+148389623
3937+148980841+149151929+148870064+148490950+148429542+148778468+149280660
3927+149623239+149634170+149315423+148881830+148673354+148892414+149470545
3917+150140168+150537788+150420730+150010106+149879003+150278424+150826085
3907+151072381+151035583+150970341+150906140+150677882+150331384+150149815
3897+150203769+150232382+150067266+149820746+149633129+149584557+149934532
3887+150918618+152123152+152689254+152569158+152554730+152948469+153363368
3878+153548219+153652405+153909135+154481472+155321686+155990634+156037735
3868+155590904+155049355+154696408+154847517+155578782+156369270+156645322
3858+156464278+156319656+156539364+157046346+157599492+158045582+158274168
3848+158296200+158304619+158452634+158655982+158912131+159511318+160531114
3838+161483708+161982168+162346920+162989101+163837313+164497232+164640898
3828+164249315+163662109+163411754+163736548+164289609+164710893+165474446
3818+167068416+168810176+169555241+169328606+169026762+169212822+169903080
3808+170642220+170967652+171243470+172147482+173474390+174445360+175064629
3798+175745418+176360936+176783739+177456127+178737341+180353211+181829204
3788+183185250+184850603+186926627+188986525+190745798+192433464+194475099
3778+197159704+200462171+204137396+208086658+212396095+216916906+221383004
3768+226074780+231439977+237235795+242978737+248848657+255402797+262666207
3758+270005256+277030087+284121257+292066543+301523749+312386070+323599792
3748+334406800+345026641+355505292+364717392+372293259+379800537+388631704
3738+399409536+412405426+426841233+440512361+451302118+458573854+463114072
3728+466313674+469146444+471683934+473821440+475997609+478847217+482824511
3718+488092318+494417422+501487741+509221936+517449416+525921588+534709967
3708+543450233+551274130+558157958+565043698+572515088+580052516+586390408
3698+590329751+591916183+592758112+594558487+597736151+601473440+604573291
3688+606362040+607054604+607669391+609239811+611455843+612699519+612309023
3678+611537333+611435218+611660523+611982129+612571454+613075464+613487522
3668+615165231+619028410+624078825+627982168+629074640+628521691+629223518
3658+632939919+639162195+645378322+648614113+647487815+643754389+642015703
3648+645006689+650836783+656541024+660427678+662112513+662815127+664654165
3638+668613345+673588647+677288322+678443195+678176115+678521047+680001652
3628+681093449+680600539+679523967+680276458+684668022+691851519+698291300
3618+701310261+701712119+701878473+703329902+705630949+707184456+707875595
3608+709560954+713011850+716043036+715943509+712814821+709501478+708489033
3598+710009163+712529440+713776115+712657617+711012009+711921552+716299467
3588+721750803+725140797+725930563+725527505+725071420+724666337+723443062
3578+720828434+718083903+717558292+719977242+723358460+724997919+723964848
3568+721518223+719557983+718961571+719557308+720573954+720997037+720470227
3558+719480131+718501736+717603068+716952055+717044682+718036727+719126349
3548+719529182+720306723+723419737+728319736+732082563+733438591+733802123
3538+734602389+735687962+735654811+733172635+728983350+726137192+726884132
3528+729747091+731224171+730297152+729205955+729567462+729926569+728150383
3518+724832765+722815224+724274829+728674119+732670050+732899705+729508961
3508+725448303+722672721+721196091+721102114+722981128+726224719+728760070
3498+728921474+727157063+725497879+725376977+726487899+727801551+728790896
3488+729588537+730721585+732376644+733721347+733496867+731846158+730351303
3478+730363453+732202791+734963147+737024939+737551150+737183117+736756583
3468+736123645+734586864+732054438+729400358+728242185+729450760+731306222
3458+731112643+729322807+729070727+731490201+734656991+736850335+738096711
3448+738317665+737248668+736080445+736269598+736726733+734704992+730233325
3438+726662278+726084841+727227414+728240985+729088727+730316127+731615004
3428+732504447+733136860+733869175+734559489+734421636+732582523+728961750
3418+725040295+723548814+726342321+732365769+737896832+739510489+737291194
3408+734087354+731976736+731185995+731256421+731507676+731428550+731545702
3398+732850804+735061849+736750433+736552354+734161005+731106493+729359633
3388+729379808+730126373+730686860+730941715+730813537+730451355+730653184
3378+731957986+734076929+736704982+739572441+741822487+742675104+742289746
3368+741391078+740448684+739336336+737547699+735010398+732712126+731974411
3358+733175260+735564359+738113511+740004074+740382307+738739999+736086295
3348+734401010+734274333+734497312+734238557+734075504+734363810+734446011
3338+733905250+733031557+732153215+731855308+733140460+735759588+737380896
3328+736390951+734397785+733620319+733345439+731898434+730544357+732120214
3318+736500078+740195703+740775015+739582791+739352761+741053646+743570472
3308+745085428+744673070+743088812+741708559+740934693+740301756+739609191
3298+739004454+738531344+738388842+739099781+740825641+743078462+745273832
3288+746859889+747393000+747083694+746608109+746620409+747259797+747582754
3278+745966846+742126618+738353216+736850335+737171717+737717578+738136761
3268+738787175+739210483+738889777+738481543+738778475+739281210+738872301
3258+737226468+735083224+733924676+734975822+737758904+740761140+743619073
3248+746954166+750306734+752029219+751004024+747438001+742805157+739350586
3238+738506069+739805320+741421003+741025595+737202542+731625279+728350337
3228+729308332+732156515+733695696+733393215+732864154+733645145+735891591
3218+738285789+738998979+737205917+733640420+730024821+728333462+729672839
3208+732912305+734888295+733357589+729768841+727569421+727988455+729017476
3198+728474240+726507175+724706238+724216178+725215123+727293416+729624763
3188+731179320+731451575+730810687+729640363+727815501+725450703+723487388
3178+723150031+724765789+727451669+729945920+731145944+729984245+726119642
3168+721216417+718278307+718707766+720671381+721032213+718543437+714500705
3158+710916607+708996043+708847315+710017714+711864851+713284855+713170253
3148+711741849+710426022+709872661+709350050+708583384+708421006+708951417
3138+708891266+707694841+706807873+707823919+710048914+711015909+709443502
3128+706669795+704683755+703790937+702978145+701842547+701201959+701861147
3118+703460630+704864509+705461671+705503222+705074288+703614383+700948004
3108+698036070+696221408+695964527+696420387+696264383+694955907+692907690
3098+690650894+688821382+688446374+689746526+690994026+690283762+688134893
3088+686476609+685876222+685787420+686568111+688931859+691786567+692731061
3078+690793847+687456954+685002454+684311615+684280864+683385646+681640136
3068+680472962+680732992+681714237+682133946+681270153+679093084+676089873
3058+673285115+671689758+671384577+671539830+671424402+670998019+670355481
3048+669325785+668135510+667658051+668434767+669958273+671148397+671293450
3038+670455758+669172707+667863105+666443776+664521562+662099238+660011870
3028+659242204+659681563+659975719+658914823+656847706+655344675+655380751
3018+656189942+656271619+655120270+653360284+651816303+651184340+651752177
3008+652789448+653015352+651926855+650112643+648576387+648092477+648517136
2998+648607738+647242635+644695658+642173282+640516198+639779158+639608529
2988+639558953+639138945+637948371+636113458+634305771+633079046+632579686
2978+632747015+633168748+633114597+632337656+631363761+630549845+629544599
2968+628140758+626989035+626937959+627891866+628708745+628391901+627018435
2958+625311888+623758531+622351278+620856347+619253902+617957726+617423227
2948+617615194+618087441+618320433+617795798+616282004+614208587+612352824
2938+611142824+610353696+609381151+607875945+606249425+605451484+606066121
2928+607628103+608838890+608555647+606652633+603843938+600942617+598503830
2918+596781719+595657184+594781316+593945687+593139945+592299516+591366459
2908+590599643+590377789+590550592+590343588+589109288+587004520+584909690
2898+583756054+583762992+584276527+584430768+583740154+582063195+579713397
2888+577712468+577052418+577481576+577567828+576136349+573474620+570990682
2878+569798420+569932635+570762864+571526530+571430978+570092313+568125248
2868+566512078+565379667+564202968+563010594+562454645+562682200+562857028
2858+562038387+560208274+558189383+556786030+556223593+556113566+555712645
2848+554551622+552996727+551831654+551237717+550622779+549564320+548401234
2838+547588330+546949917+545981572+544605144+543206028+542052880+541054159
2828+540098940+539434651+539456252+539962662+540034026+539117995+537762455
2818+536755559+536116059+535374631+534337097+533204012+532286218+531717144
2808+531167720+530010559+528124383+526256470+525152223+524609137+523871234
2798+522717561+521577050+520773409+520203997+519537458+518376622+516603474
2788+514765674+513633601+513290769+513129065+512660568+511802963+510531050
2778+508904679+507345285+506288026+505619200+504917523+504094569+503361429
2768+502739666+502004576+501006268+499775268+498365690+496768757+495089698
2758+493703332+492887841+492320829+491364334+489854104+488195445+486771203
2748+485646781+484741662+484026748+483530162+483113079+482310375+480749556
2738+478789316+477294573+476662798+476418293+475880382+474942937+473921229
2728+472842257+471391203+469581866+467922419+466743170+465806926+464742205
2718+463515405+462328956+461320110+460495768+459777066+458997088+458015243
2708+456924270+455981501+455277124+454650674+453962573+453224183+452420391
2698+451420283+450159995+448829318+447745208+446975093+446236440+445334359
2688+444490817+443979382+443646525+443080263+442090843+440834455+439616618
2678+438667249+437979222+437327496+436512717+435562410+434633441+433776174
2668+432905294+431995525+431152320+430465944+429949858+429572338+429177080
2658+428539342+427677350+426847758+426125118+425344277+424468109+423619317
2648+422837726+422112874+421466736+420823523+420059744+419267128+418657441
2638+418162018+417444141+416409758+415439013+414939278+414857563+414804837
2628+414466656+413695302+412451964+410927446+409519292+408513672+407910059
2618+407529802+407142231+406588195+405946032+405468872+405253918+405090790
2608+404711882+404071706+403313028+402595076+402042165+401700533+401415527
2598+400883916+399958660+398840650+397904481+397332519+396948361+396508552
2588+396115057+396071293+396338861+396491077+396235097+395688485+395173713
2578+394932433+394908620+394707016+393981301+392907804+392012398+391548101
2568+391318671+391085829+390853775+390701671+390593407+390457504+390280163
2558+390044846+389724852+389368744+389063826+388818608+388585578+388340061
2548+388075643+387821388+387666772+387657772+387696210+387644947+387475331
2538+387202363+386800879+386351208+386097215+386159804+386365908+386518911
2528+386626276+386753816+386888331+386974320+386887506+386469710+385779809
2518+385163671+384920104+384998968+385098682+385006543+384802764+384703724
2508+384744150+384726637+384456219+383925958+383308771+382804423+382451203
2498+382131322+381770189+381405495+381083400+380833158+380679780+380594203
2488+380531989+380503789+380476488+380311447+379940002+379510543+379288951
2478+379435729+379847038+380227783+380346548+380141531+379656721+379077635
2468+378695764+378607675+378613675+378528773+378335645+377995700+377434726
2458+376760162+376231814+375976321+375888795+375818106+375726266+375627152
2448+375488999+375296658+375116466+374969988+374722783+374254736+373709700
2438+373417719+373526097+373820740+373968006+373838965+373543047+373245028
2428+373003223+372740868+372398074+372090305+371992728+372123005+372360310
2418+372562064+372595740+372449337+372313134+372330947+372336385+372060229
2408+371520068+371043133+370940794+371213874+371585882+371835450+371989690
2398+372124280+372154319+371970302+371639471+371315314+371000270+370518723
2388+369737994+368686885+367322570+365251478+361891747+356974984+350757845
2378+343702752+336100297+328079258+319842665+311726206+304042150+296981637
2368+290699041+285440852+281479196+278903982+277694901+278062389+280479576
2358+285275605+292353518+301528661+312964500+326278359+339062107+347709146
2348+349926453+346253178+339877149+334319573+330591922+327623249+324518036
2338+321086416+317348077+313468417+309884019+307171345+305734503+305583450
2328+306389341+307684693+309055327+310391160+312024787+314404830+317545894
2318+320951451+324086439+326805807+329351284+332038664+334960723+337945672
2308+340754704+343242880+345309547+346857316+347935725+348802293+349698111
2298+350636305+351494473+352253713+353030767+353845696+354508372+354902130
2288+355237611+355775110+356429686+356903583+357059436+356934746+356548301
2278+355917350+355193098+354627887+354387169+354430408+354579811+354665650
2268+354608311+354446420+354287117+354150914+353938623+353642704+353445037
2258+353488426+353699855+353943123+354192090+354441995+354580148+354501884
2248+354316405+354270242+354452195+354726551+354957931+355141947+355331551
2238+355567056+355837924+356042490+356083854+356031728+356061578+356239557
2228+356487737+356736630+357014398+357383255+357812226+358135558+358208422
2218+358123670+358172571+358539516+359094940+359523011+359635889+359560775
2208+359627151+360056685+360751461+361401387+361813895+362103739+362503609
2198+363035970+363518155+363878425+364264608+364797081+365410331+365990018
2188+366509891+367002801+367504224+368024022+368525482+368961166+369330999
2178+369667493+370017300+370477847+371149336+371977127+372745256+373333118
2168+373907104+374741009+375921608+377366062+379045721+381002061+383200581
2158+385580680+388219533+391242395+394542762+397743565+400522746+402923658
2148+405244243+407658017+410095454+412473077+414822613+417163860+419444207
2138+421647189+423857147+426224983+428905162+431970962+435352031+438843427
2128+442172745+445137968+447743258+450115332+452236375+453847220+454607698
2118+454290029+452920201+450823609+448431022+445949147+443300805+440420859
2108+437456161+434565415+431676281+428626719+425425241+422173100+418847307
2098+415370724+411807814+408321593+405016013+401945075+399199645+396849472
2088+394818918+392931017+391087629+389331093+387739561+386349370+385152383
2078+384094824+383122692+382241349+381455183+380712030+380012829+379475105
2068+379184887+379070584+378947919+378621925+378021126+377313674+376812476
2058+376691274+376810151+376828489+376528070+376058973+375777605+375821556
2048+376000359+376103637+376120024+376144812+376240514+376428243+376751462
2038+377300173+378114803+379091885+380081005+381039900+381990281+382874212
2028+383557063+383959747+384126512+384116950+383852194+383183781+382144372
2018+380981623+379896089+378874980+377809096+376664835+375533550+374561755
2008+373819015+373229991+372649441+371986653+371264500+370567061+369916911
1998+369261660+368622459+368118561+367778767+367490199+367170880+366831385
1988+366484916+366157009+365916329+365777876+365646174+365399568+364977235
1978+364425486+363895413+363518493+363286700+363121622+362978894+362802641
1968+362512985+362155715+361922048+361891222+361909747+361836433+361738856
1958+361712831+361654780+361387249+360949203+360630334+360684897+361029079
1948+361282772+361166145+360780299+360419767+360219138+360081173+359871843
1938+359582000+359310119+359144854+359107128+359207967+359452847+359740291
1928+359900569+359895694+359845555+359840493+359860593+359867643+359854106
1918+359824930+359810830+359837193+359834380+359679352+359380133+359150141
1908+359194655+359445497+359624526+359589500+359500923+359573750+359770141
1898+359865281+359735941+359445047+359112378+358846497+358766433+358927724
1888+359193492+359330670+359280306+359198555+359215318+359279706+359289719
1878+359240106+359176129+359127341+359135403+359226530+359320020+359279144
1868+359117066+359012588+359037639+359080315+359067752+359071540+359162404
1858+359311057+359455172+359549449+359590550+359670914+359919094+360342665
1848+360794212+361054355+360950365+360589120+360401842+360659997+361208896
1838+361725694+362002712+362098864+362290718+362802303+363593457+364417048
1828+365012336+365218327+365050474+364776531+364716080+364940447+365363343
1818+365967893+366751434+367547800+368094711+368326541+368500469+368908590
1808+369533353+370184291+370839129+371611195+372501613+373392631+374252111
1798+375166830+376158088+377109932+377907686+378613638+379462955+380596078
1788+381936168+383372635+384886353+386483248+388104556+389684201+391236695
1778+392812552+394435997+396128857+397890605+399596215+401052257+402249994
1768+403405468+404763070+406395441+408139039+409777448+411324354+413023251
1758+415005579+417129510+419140263+420880936+422342603+423670243+425131198
1748+426828632+428578118+430241052+431915273+433722398+435614274+437510125
1738+439479140+441647172+444015307+446394506+448599476+450717931+452893576
1728+455107658+457313716+459587687+462050212+464724917+467537812+470396382
1718+473218915+475959621+478651351+481363518+484095336+486732353+489192065
1708+491621702+494315420+497404620+500785501+504387262+508207278+512119582
1698+516086563+520319499+524785878+529043865+532897481+536633007+540578950
1688+544894687+549722573+555188647+560939839+566300574+571250449+576067797
1678+580776318+585411863+590227486+595419729+600935792+606693734+612599617
1668+618415535+623988111+629394071+634673879+639730782+644614881+649547957
1658+654478032+659074201+663278262+667643725+672670703+677843708+682874661
1648+688190694+693905885+699304195+703775111+707546938+711010134+714216449
1638+716951530+719079473+720858209+722609795+724044874+724659812+724397232
1628+723752818+723196982+722467442+720976412+718948071+717331038+716338917
1618+715000140+712188633+708184076+704320748+701168208+698460353+695716122
1608+692692736+689687800+687195124+685326536+683855006+682647706+681749863
1598+681124950+680598514+680036903+679346364+678323043+676827363+675111703
1588+673649098+672677303+672115092+671768059+671492654+671298700+671308375
1578+671565255+671976939+672482224+673165038+674166833+675697690+678039612
1568+681243227+684968778+688797006+692446131+695921926+699901583+705997632
1558+714942389+724540034+733530093+742531026+751647087+760470866+769014815
1548+777387236+785151169+791514974+795906463+798491316+800210351+802226767
1538+804988323+808055361+810975920+813623474+816133175+818568025+820725444
1528+822582557+824573472+827120299+830150436+833455828+837024926+840637974
1518+843768463+846276364+848735964+851841928+855606704+859192227+861372672
1508+861571651+861375822+863565267+867590599+870920966+872575725+873082885
1498+873348691+873805000+874510464+875554936+876908863+878430494+880377009
1488+883344369+886970168+889617197+890138608+889342992+889186313+890550291
1478+892456455+893622129+893965711+894376194+895667270+897925116+900544770
1468+902884893+904811532+906555692+908011847+908656785+908393830+907600989
1458+906569493+905572797+905109438+905471170+906692645+908584109+910440846
1448+911318889+910928506+909777758+908556658+908008547+908697436+910294443
1438+911567969+911585370+910866780+910381070+910223717+910375895+911234588
1428+912719468+913896692+914067770+913426132+912467088+911450817+910818329
1418+911239013+912342060+912801595+912165057+911353165+911325039+911729223
1408+911392166+909909536+908124274+906936025+906081158+904842432+903524056
1398+903075846+903313901+902921568+901483189+900096036+899535924+899031614
1388+897038523+893194920+889663773+889277140+892523131+897259778+901096481
1378+903596657+905692350+907786917+909669756+911634646+914220398+917217534
1368+919919165+921973306+923492312+924669386+925712133+926819230+927930903
1358+928749469+929028400+928903373+928943723+929716614+931303571+933234411
1348+934837793+935822713+936485202+937117765+937601975+937966332+938873926
1338+940914642+943600822+945630813+946053822+945040851+943820576+943736350
1328+945156654+947360649+949441341+951080724+952264473+952841535+953005113
1318+953567400+954873852+956070426+956296256+955920573+955876847+956474009
1308+957270000+957526656+956836192+955697143+954946228+954477918+953573025
1298+952465853+952075845+952092945+950993048+948370544+945651964+944094407
1288+943362242+942279745+940248854+937664976+935172525+932776076+930036721
1278+927194988+925147896+923833044+921884880+918719140+915622027+913804215
1268+912761694+911448792+909808659+908225676+906483691+904145068+901258934
1258+898184922+895200836+892504756+890298361+888796231+888067291+887835911
1248+887833736+888265445+889238515+890069231+890111307+889793676+889897853
1238+890542641+891634288+893280272+895160335+896658266+897843740+899116966
1228+900130311+900328615+900057710+900083660+900716673+902043975+904138168
1218+906617044+908815938+910500623+911868351+913146077+914587531+916495945
1208+918982020+921810328+924417456+926195667+927118036+927966603+929606737
1198+932175539+935118899+937671876+939221558+939858771+940656712+942697804
1188+945861893+949096934+951617285+953180242+953720703+953603176+953713953
1178+954836801+957291751+960942375+965044884+968503054+970622822+971280061
1168+970758125+970093687+970770800+973229200+976332914+978651736+979577705
1158+979305824+978768663+979387426+981756724+984794811+987088358+988644039
1148+990329549+992159361+993412712+994164902+995451103+997650673+999928094
1138+1001452200+1002101639+1002213316+1002487146+1003847524+1006512703
1130+1009332761+1010971469+1011581982+1012244770+1013382693+1015035127
1121+1017706082+1021301430+1024184938+1025159733+1025370188+1026484185
1113+1028227371+1028960361+1028048042+1026859493+1027308527+1029867054
1104+1033251423+1035673898+1036567316+1037222079+1039360673+1043200001
1095+1046816425+1047840795+1046178312+1044652780+1046334615+1051060011
1087+1055054142+1055083093+1052606617+1051508745+1052312536+1052145058
1078+1049969339+1048050650+1047858871+1048244229+1048449883+1049333326
1070+1050799981+1051534921+1051847227+1053433134+1056279817+1058923921
1061+1060821835+1062157612+1062556695+1061573875+1059733263+1058346859
1053+1058804144+1061682852+1066233720+1070616884+1072941782+1072452247
1044+1069733966+1066406899+1064125652+1063422588+1063866297+1065170648
1035+1067737351+1071355124+1073741823+1072382945+1068050707+1064050726
1027+1062254589+1062242439+1063371062+1065319526+1067046212+1067690325
1018+1068021831+1068848423+1068965651+1066826157+1063552565+1061879881
1010+1062589396+1064064901+1064643763+1063607392+1061010689+1058017753
1001+1056246067+1056340719+1057801673+1059612960+1060078945+1057526118
993+1052498540+1047633341+1044663956+1042824018+1040643424+1038225299
984+1036744094+1036488564+1036684243+1036936998+1037077176+1035740274
975+1031436011+1025001180+1018923581+1014506591+1011265775+1008564745
967+1006454352+1004819994+1002699626+999167504+994451333+989680486+985624028
957+982039930+978454032+974988436+972070802+969825856+968090846+966620591
947+965077734+963361924+961981521+961414585+961188455+960352113+958857558
937+957683784+957653558+958675604+959976130+960924150+961399659+961203606
927+959782402+957233550+954837176+953705178+953531024+953236118+952361150
917+951337530+950706467+950642115+951050724+951480182+951073899+949590219
907+948250017+948182815+948558273+947686680+945380233+942902558+941285450
897+940695938+940657162+940500034+940061125+939802670+940010274+940427357
887+941035095+942389697+944357137+945354358+944104907+941530405+939587565
877+938868376+938496968+937857955+937251268+936969112+936658981+935822863
867+934627789+933853098+934085828+935067223+935793163+935486332+934267182
857+932707750+931409924+931302746+933255711+936317499+937518048+935271977
847+931919709+931211845+933921800+937027988+937347045+934800068+931432649
837+928974024+928187633+928932548+930051196+930505255+930779086+932013086
827+934468486+937650201+940435307+940850141+937920431+933704970+931501500
817+932477345+935054548+936920586+937251718+937312994+938671647+940673062
807+941150072+939846245+938747998+938935952+939577065+939881196+940040949
797+940360231+940854416+941535580+942263245+942715204+943046861+943822676
787+944899023+945281981+944567442+943880878+944724720+946884839+948294343
777+947620154+946074072+945792892+947018642+947708656+945995396+942513225
767+939877671+939876321+941462528+942272620+941991289+942390522+944248310
757+946529482+948355244+949909425+951255253+951550684+950416586+948835404
747+948067388+948285867+948443896+947546052+946117573+945662389+946403029
737+947200295+948384869+951893666+957389778+960904274+958468825+950404586
727+941805210+938541144+941855836+946826638+947841708+945623163+945464835
717+949709546+955433663+958105217+955859597+950637090+945894894+944028031
707+945040926+946456505+945217930+940480983+934382759+930186124+930232400
697+934377059+939354460+940957168+937380195+930123422+922027007+915076241
687+910008538+906560642+903857662+901187083+898667407+896773393+895113759
677+892674935+889195539+885137431+879634494+870137350+857039309+849104897
667+856090014+871358975+881692986+883124315+879188310+874629567+870387030
657+864694190+858348085+854823838+854928991+855423401+854261027+854042998
647+858224408+866278147+873997004+877827107+877171519+872115666+862404393
637+850544401+841644645+838761661+840891405+845772954+851527296+855172821
627+853442610+846488169+838425654+833240274+831358485+830544794+829315144
617+828502052+829586049+833751484+841539793+850632078+855910761+854372629
607+847970949+840241141+832955718+826138529+819578970+814036958
##END=
