##TITLE=<SNM>
##JCAMP-DX=4.24
##DATA TYPE=INFRARED SPECTRUM
##DATE=2/5/2025
##SAMPLING PROCEDURE=Instrument type and / or accessory
##ORIGIN=Admin
##XUNITS=1/CM
##YUNITS=ABSORBANCE
##RESOLUTION=4
##FIRSTX=4497.3318
##LASTX=599.83466
##DELTAX=-1.4281778
##MAXY=1.8489056
##MINY=0.38427037
##XFACTOR=1
##YFACTOR=1.7219275e-09
##NPOINTS=2730
##FIRSTY=0.41142502
##XYDATA=(X++(Y..Y))
4497+238932839+238758414+239008490+239510876+239277190+238028243+236695892
4487+236111001+236408898+237672885+239841156+241896772+242345228+240901762
4477+238894866+237737996+237770794+238580337+239503780+239739578+238836038
4467+237284452+236174606+236233487+237298990+238699153+240063108+241577292
4457+243301261+244493024+244307591+243028996+241697216+240727700+239850398
4447+239171804+239199185+239746865+239776374+238702580+237279606+236722338
4437+237288589+238150365+238501622+238314960+237970696+237688722+237613953
4427+238003269+238826484+239517713+239603177+239163099+238425053+237489546
4417+236563714+235963506+235846230+236189300+236866544+237540586+237752811
4407+237352903+236709028+236510286+237235887+238562475+239560774+239632964
4397+238950147+238079941+237634393+238015817+239039540+239934599+239952755
4387+239012783+237749609+236898511+236552586+236179262+235422992+234518552
4377+233865971+233565807+233415681+233108749+232466847+231686278+231353852
4367+231948556+233175556+234081744+234059124+233340151+232364404+231353194
4357+230617191+230497959+230957630+231762154+232759604+233620170+233849806
4347+233317444+232314143+231196042+230367928+230179708+230448339+230560232
4337+230310761+230150216+230386101+230612708+230226422+229333439+228865530
4327+229613735+231169769+232122583+231604898+230332482+229638433+229903324
4317+230498046+230796895+230578578+229818621+228782402+228098045+228282526
4307+229261440+230391605+230917788+230641837+230156984+230123788+230501006
4297+230860725+231119940+231461332+231824149+231947500+231735708+231333290
4287+230969555+230742740+230547615+230304652+230103417+229971257+229801677
4277+229744978+230257731+231401984+232497499+232886815+232724574+232591721
4267+232606329+232404229+231796630+230944529+230055146+229362672+229166127
4257+229519114+230200651+231053566+231866709+232257963+232345643+232923126
4247+234238931+235380190+235478220+234675791+233534567+232362016+231347552
4237+230670031+230326442+230194316+230257575+230583493+231133440+231694603
4227+232037101+232145031+232198961+232353795+232687934+233282084+234020320
4217+234414863+234133546+233569424+233380408+233518973+233300569+232469738
4207+231584890+231305598+231768073+232535853+232880775+232450457+231759038
4197+231550413+231822626+232113116+232412536+232961289+233431916+233194301
4187+232325341+231578279+231257466+230917754+230464746+230623560+231766411
4177+233221525+234351673+235295955+236092430+236247038+235619034+234655784
4167+233637443+232655205+232070972+232094303+232367277+232703390+233479650
4157+234560990+234795542+233510007+231714662+230980840+231719404+233055477
4147+233910659+233889233+233394583+233097828+233209133+233300205+232959368
4137+232404004+232174592+232470621+233102346+233842035+234494996+234843588
4127+234802949+234469208+233950553+233416114+233218843+233552722+234057808
4117+234182024+233876806+233588774+233635816+233863444+233947888+233871008
4107+233904688+234148569+234392190+234536569+234739604+235001052+235100726
4097+235028328+234943539+234725879+234162674+233490259+233104215+232917986
4087+232654877+232534953+232995073+233923034+234765323+235241574+235446513
4077+235376158+234910118+234268493+233966649+234122261+234191232+233682563
4067+232851006+232391283+232597589+233025362+233018664+232499507+232023221
4057+232034713+232420256+232897061+233449292+234145713+234746406+234765098
4047+234113261+233535778+233846673+234692787+234819149+233786097+232628309
4037+232486890+233311542+234258679+234827197+235141918+235342027+235275030
4027+234953387+234803901+235147871+235778904+236313344+236663233+236943996
4017+237175207+237230020+236920734+236145841+235127258+234391774+234341807
4007+234957142+235959024+237063798+238047957+238719593+238846959+238257603
3997+237230955+236496180+236482577+236924819+237410330+237756567+237825884
3987+237665685+237708625+238166046+238553683+238401654+238030320+238162221
3977+239071767+240307559+241049032+240750459+239635266+238551814+238227782
3967+238693909+239491976+240258025+240826716+241048253+241029405+241290974
3957+242051103+242694251+242662007+242466086+243021191+244255737+245082241
3947+244832840+244175430+244183651+244894368+245316534+244836301+243995726
3937+243794509+244810150+246846000+248940784+249872690+249260731+248077570
3927+247589273+248067151+248692576+248754831+248716841+249484119+250920766
3917+251657547+250541506+247986169+245506068+244304458+244577623+246051342
3907+248944643+253801969+260110600+265664138+268154208+266915646+262811510
3897+257752206+254133944+253569598+255633123+257574734+256992042+255367227
3887+255659448+257914135+259622233+259843406+259757042+259159395+257046785
3878+254764423+254630099+257031624+260798817+264869913+268025059+268672673
3868+267191771+265779770+265191972+264270380+262282436+260111552+259276100
3858+261241613+267196046+276230285+281986287+278566837+270642651+264366281
3848+261443419+261394196+263191757+265963109+269452637+273671989+277566046
3838+278790035+276520481+272930829+270154821+268356845+266879179+265766011
3828+265550480+266579326+269457933+274753780+280679966+283106189+281697598
3818+280264949+279637343+277311331+272946423+269079106+267759856+269609443
3808+273569719+277254182+279869385+282686325+285381247+285924098+284937672
3798+284521426+284183669+282571074+280562639+280004280+281456486+284503876
3788+288783476+293782966+298509481+302555879+306824679+312001536+317149005
3778+321197722+324855393+329677965+336895034+347331167+360424976+373594350
3768+384938297+394909861+403757231+410952597+417267217+423912238+430058629
3758+433747107+435170548+436899709+441511995+449365255+457436590+462713692
3748+466630249+471936843+478557045+484327412+489355355+496013218+505567636
3738+517903098+531615547+542912003+548043307+548566618+549345803+552945424
3728+558906036+565513811+570978804+574219571+575094640+574321720+573396944
3718+573675180+575516528+578467775+581222650+581424179+578193450+574051826
3708+571106326+569510986+569538194+571474665+573825167+574113926+572305980
3698+571030311+572444371+576235345+580546998+584485605+588576276+592454895
3688+594072596+592627070+589766481+587777222+587822775+589495721+592424780
3678+596961431+601485967+602133546+599333187+597292697+596583365+594393200
3668+590204430+585826870+581604039+577017161+572489994+569297827+568469073
3658+569493990+570303048+570264868+571833173+577217548+584886448+588859012
3648+584751657+576282075+569625597+567049509+566650985+565415954+563210905
3638+562749347+565210860+568001769+568149299+566582690+566458283+568250167
3628+569036656+567760675+566467975+566460948+567621661+569536186+571803058
3618+574325562+577528460+581012052+583237455+584111832+585890146+589475991
3608+592586501+593342633+592584771+591971391+592678993+595241616+598902437
3598+601815087+602858247+602857901+603865338+607471190+613452398+619218784
3588+621209982+618776473+614821078+611691044+609997883+610120835+612470714
3578+616449371+620207806+621826268+620960753+619687195+620897200+625088185
3568+629058395+629457161+627506532+626443642+626752685+626705263+625509312
3558+624210208+623841212+623975864+623376470+621658039+619827802+619077070
3548+619732610+621523110+623913557+625695887+625522743+623569345+621354949
3538+619797410+618392038+616594408+614839424+613589127+612859303+612875364
3528+613758326+614744924+614917446+614239614+613228092+612399061+612135640
3518+612267455+612200855+612082264+612744035+613832817+613466244+610843252
3508+607726995+606195763+606419584+607204516+607596635+607449383+607147955
3498+606975918+606547937+605549223+604822860+605289471+606096626+605361886
3488+602546573+598951867+596312745+595247570+594568214+592708831+590122116
3478+589153586+591235475+595064317+597752801+597521088+595026587+592323565
3468+591095353+591464488+591708386+589928825+586700901+584646081+585190714
3458+587235980+588602583+587725853+584789318+581873413+581042236+581989028
3448+582365155+580569014+577386296+574817442+574203717+575481948+577409800
3438+578319345+577258774+574863515+572679027+571416477+570737398+570624484
3428+571379300+572247654+571796758+569947379+568090003+567130854+566757392
3418+566514706+566390195+566178524+565342328+564004421+563240016+563588382
3408+563872606+562346289+558961558+555748207+554680539+555812902+557831099
3398+559627449+560552190+560087898+558561408+557312496+557234232+558041386
3388+558995862+559254056+558001232+555496140+553293063+552369949+552001748
3378+551145406+549921901+549088371+548864688+549012910+549629266+551076799
3368+552946636+553850816+553004789+551362477+550352825+550289721+550803305
3358+551835492+553198391+553948984+553279217+551559333+549803553+548544879
3348+547645926+546899279+546493832+546769195+547518265+547900243+547367898
3338+546287250+545351673+544800186+544398028+543934498+543608770+543766199
3328+544216507+544297506+543809918+543289481+543226204+543719123+544661518
3318+545449426+545139656+543784476+542736678+542953818+543854191+544187915
3308+543244308+541175953+538936047+537716731+537917844+538866505+539696851
3298+540251454+541023266+542335455+543732311+544418659+544268672+543856718
3288+543550097+543316238+543223573+543307653+543230808+542758347+542211013
3278+542007373+542185814+542645294+543511294+544880978+546335088+547126596
3268+546976747+546351945+545627590+544679726+543821964+543999782+545196252
3258+545979210+545474349+544508381+544102035+543946959+543149324+541770363
3248+540858533+541051097+541808267+542312816+542402089+542102357+541122992
3238+539453300+537692569+536435592+535841736+535640900+535149642+533858846
3228+532234880+531179571+530879631+530919646+531004314+530979288+530701709
3218+530285256+530022008+529933289+529777591+529506624+529345249+529391840
3208+529418390+529066113+528112917+526615850+525052357+524148142+524057277
3198+523879909+522608290+520419233+518413428+517271581+516748305+516360616
3188+516059880+516038661+516105987+515659107+514426187+512900562+511872287
3178+511744661+512178007+512263991+511396607+509966485+508837826+508451418
3168+508693204+508993109+508408322+506496185+504085350+502331092+501449377
3158+500996231+500713668+500556378+500375964+499993121+499231589+497917982
3148+496188025+494580258+493660051+493654063+494276823+494836825+494714149
3138+493714812+491931998+489610642+487313758+485839399+485567774+485946048
3128+485976786+485293450+484358289+483552069+482752219+481976287+481669182
3118+482087679+482845610+483130112+482377788+480940431+479840711+479624851
3108+479785949+479551121+478834520+478118091+477677061+477138450+475929277
3098+474218323+472917834+472524884+472502592+472085723+471267942+470636355
3088+470529671+470726908+470879526+470870630+470631267+469993345+469000135
3078+468095055+467745062+467943718+468111532+467590748+466364301+465094413
3068+464392177+464250601+464188882+463740063+462832595+461845961+461204925
3058+460959815+460894012+460829074+460649941+460308360+459889448+459431075
3048+458843208+458268078+458160356+458638009+459102821+458834450+457681353
3038+455992345+454219292+452774112+451937120+451615546+451350602+450765296
3028+449875169+448918997+448149850+447763338+447665689+447343977+446357066
3018+444950760+443884235+443639506+443903515+443842558+443015881+441954583
3008+441472914+441566998+441626017+441500260+441423795+441122471+440062039
2998+438416473+436859764+435667724+434798990+434432693+434688464+435123645
2988+435066322+434296864+433128882+432007803+431188153+430678896+430406753
2978+430361026+430468644+430427348+429872504+428726018+427302404+426077099
2968+425329310+424947748+424575532+423924838+422920032+421643774+420321236
2958+419323906+418939229+419076028+419362260+419522908+419515224+419306599
2948+418775915+417989980+417281409+416778522+416220042+415566613+415241301
2938+415307416+415055210+413955316+412468495+411426131+411052358+410946055
2928+410744872+410470825+410201485+409707078+408754056+407610235+406790931
2918+406411654+406190498+405910185+405530596+405052077+404559124+404247727
2908+404208439+404252885+404073509+403571037+402927889+402295506+401604555
2898+400852196+400283055+400002223+399689822+399012751+398120721+397451784
2888+397168529+397018992+396718429+396317483+396095497+396075351+395838999
2878+395064694+394088445+393555616+393610896+393823294+393807821+393518058
2868+393053005+392544752+392098598+391625029+390950347+390173446+389578967
2858+389203290+388862123+388522792+388232371+387815329+387082597+386195897
2848+385476077+385031793+384829329+384832098+384812852+384374245+383441784
2838+382466366+381902278+381698326+381475648+380997787+380279109+379416397
2828+378562028+377964433+377788069+377874884+377849892+377511530+376978423
2818+376426174+375903140+375440441+375028071+374436569+373484793+372519309
2808+372080702+372089148+371941272+371389335+370751275+370291587+369906183
2798+369423856+368873027+368357712+367846655+367260034+366695289+366346853
2788+366220924+366100879+365740051+365062946+364327099+363936433+363862114
2778+363564667+362790155+361980404+361549308+361256430+360669462+359893462
2768+359424877+359401720+359396770+359049131+358527239+358099535+357619286
2758+356822828+355867867+355150608+354730900+354315104+353763340+353263394
2748+352966224+352781345+352608997+352444610+352176343+351598098+350678895
2738+349589005+348502057+347539446+346800899+346320719+346061071+345963491
2728+345936699+345827073+345482307+344880974+344201307+343675504+343321911
2718+342945368+342435350+341851359+341209907+340497460+339915476+339777397
2708+340081283+340386864+340193366+339416466+338483520+337884506+337637043
2698+337359499+336835081+336241779+335830136+335627846+335476197+335213192
2688+334824222+334446364+334181628+333929284+333492684+332841990+332176585
2678+331726450+331548425+331490825+331311519+330910469+330485846+330319832
2668+330382901+330365974+330126369+329811406+329493501+328980402+328112844
2658+327093673+326358968+326073117+325904091+325520833+325126048+325098425
2648+325294070+325174336+324533369+323694577+323048348+322722031+322655397
2638+322728678+322798600+322765646+322612475+322332023+321936650+321579699
2628+321440651+321415728+321178199+320617297+319980414+319545337+319346820
2618+319221340+318991115+318600657+318135777+317749507+317583009+317676815
2608+317885337+317924521+317565459+316829819+316039453+315584161+315535492
2598+315597557+315512508+315313783+315105642+314858456+314547994+314284365
2588+314164736+314113055+313998756+313850258+313778293+313701897+313376377
2578+312747041+312066266+311593597+311329969+311089636+310768962+310491107
2568+310425546+310496334+310421046+310052569+309534070+309094770+308813211
2558+308614070+308438987+308343450+308371349+308413372+308304508+308002422
2548+307599053+307253109+307124030+307223687+307332240+307205618+306850744
2538+306481297+306265368+306232692+306349275+306522005+306568285+306364194
2528+306032097+305819215+305793980+305819422+305791627+305729942+305644582
2518+305469983+305181086+304912542+304888658+305178074+305531702+305570125
2508+305178282+304635760+304295909+304215118+304176695+304017500+303823794
2498+303812406+304073992+304425647+304538526+304238275+303616104+302882610
2488+302281727+302060779+302249605+302526317+302550029+302344173+302158567
2478+302098821+302080891+302035441+302001449+302048353+302172378+302274701
2468+302255593+302141017+302048145+301979746+301777040+301382809+300993977
2458+300822737+300877117+301045277+301175430+301088304+300794318+300618439
2448+300819968+301200872+301343278+301122503+300770953+300520132+300371114
2438+300226042+300097170+300075190+300157504+300231131+300210777+300126558
2428+300095924+300206035+300380806+300435671+300338368+300283434+300396521
2418+300540174+300561428+300544882+300642981+300822529+300952059+301014954
2408+301103638+301286717+301541830+301773232+301884796+301850008+301709263
2398+301549134+301485615+301584199+301778597+301922077+301908404+301709679
2388+301309632+300614527+299439345+297564074+294753261+290795581+285668708
2378+279610395+272912898+265773712+258469448+251481772+245222034+239682948
2368+234570163+229893650+226205864+223992610+223162922+223555266+225557264
2358+229706330+236016485+244289452+254731106+267029963+278805837+286485953
2348+287902038+283857457+277844421+273460370+271465746+270480860+269538500
2338+268619989+267840734+267037422+266038483+265103011+264809475+265403487
2328+266498587+267489426+268100330+268611473+269615657+271415017+273714254
2318+276018632+278122138+280079793+281952192+283735093+285420189+287044173
2308+288678160+290312216+291790245+292987234+293973037+294841771+295515312
2298+295908608+296158425+296507137+297026675+297559089+297919571+298125773
2288+298362713+298708898+299015726+299099391+298929881+298607130+298243845
2278+297862802+297390756+296805796+296248459+295906600+295836436+295931973
2268+296014322+295962954+295806597+295647783+295495269+295276641+295032293
2258+294959982+295191834+295612753+295970742+296107541+296041945+295912796
2248+295868939+295932458+295984380+295946650+295881331+295837128+295737990
2238+295525834+295308521+295274564+295506312+295923804+296370027+296687932
2228+296757473+296591079+296399484+296415580+296628775+296824523+296889114
2218+296918053+296986867+296984237+296779350+296432057+296109652+295898327
2208+295806563+295824978+295888012+295910339+295904696+295949661+296078395
2198+296290724+296575329+296851973+297006356+297017709+296961010+296896799
2188+296830511+296751000+296646567+296493049+296285358+296099233+296056484
2178+296197332+296445522+296691047+296831688+296806281+296685855+296625694
2168+296673116+296777862+296982748+297358876+297752207+297859271+297614473
2158+297307299+297245165+297425164+297604262+297609870+297494428+297419175
2148+297465836+297581035+297679307+297764184+297905240+298113138+298320448
2138+298486946+298633126+298757878+298811255+298777540+298721913+298724302
2128+298794051+298885296+298992742+299185305+299500683+299844653+300079309
2118+300193089+300292745+300452736+300673892+300944651+301233791+301485338
2108+301708433+301986669+302330604+302625905+302787177+302877487+303014494
2098+303204427+303339702+303386571+303486020+303753387+304065477+304212487
2088+304182649+304134534+304178841+304332705+304584530+304888865+305177590
2078+305421903+305627378+305788650+305901426+305970967+305997378+306035559
2068+306214034+306543743+306799306+306798060+306697053+306778433+307045938
2058+307256363+307281909+307250063+307325282+307490015+307630241+307772820
2048+308054656+308449579+308757757+308893206+308944021+308971506+308981129
2038+309009859+309051016+309028413+308952952+308931179+308996532+309118966
2028+309329841+309654149+309991819+310232429+310439842+310792293+311337792
2018+311879379+312140238+312017113+311643443+311271331+311139759+311333327
2008+311684877+311915829+311928256+311871349+311921610+312100604+312298429
1998+312424117+312579781+313040646+313891380+314727750+314979609+314543805
1988+313841050+313330374+313188383+313320197+313514180+313645648+313762508
1978+313944791+314173909+314394580+314601647+314843641+315206684+315713206
1968+316161125+316230217+315877143+315432374+315202253+315192803+315281522
1958+315434347+315655157+315893862+316105326+316315197+316592394+316997495
1948+317588685+318476804+319716751+320942298+321363909+320641250+319478218
1938+318803225+318792944+319031372+319224109+319430588+319753374+320092809
1928+320370976+320880302+321953196+323256696+324107465+324542680+325066787
1918+325423842+324873808+323631543+322756785+322835534+323566501+324278048
1908+324533265+324396743+324210307+324168734+324247206+324433781+324823132
1898+325480126+326250934+326826237+327233068+327977015+329188750+330058073
1888+329856025+329025713+328429849+328293016+328385646+328540444+328713866
1878+328954337+329377645+330055788+331154748+333081250+335908609+338525508
1868+339185098+337628355+335456017+334071310+333645510+333756105+334078856
1858+334433834+334707189+334911764+335150192+335576200+336407585+337845945
1848+340049783+342986318+345728489+346415495+344534685+342028242+340727269
1838+340717438+341113816+341479593+342404127+344618592+347612207+349710780
1828+350218895+350082754+349763638+348713520+347095300+346015379+345986095
1818+346461152+346835064+347301467+348458130+350258149+351736766+352050032
1808+351504360+351168802+351926976+353977434+356609080+358489509+358841890
1798+358347276+358498890+360376826+363759896+366556205+366374961+363869037
1788+361873894+361890994+363254101+364663315+365681725+366438722+366939775
1778+367515597+369142747+372604912+377296570+380847280+381262038+379325844
1768+376794825+374696217+374056911+375530647+378003652+379415670+379563857
1758+379710660+380126837+380721005+382523065+386369492+390898424+393348271
1748+392962971+391539080+390739783+391001508+392080287+393338925+394076157
1738+394851916+397505195+402464185+406338858+405463893+401738723+398352988
1728+396170854+395275085+395632451+396844532+398994994+403212598+410201900
1718+417914519+421609747+419481924+414919381+411281510+409811754+410749026
1708+413847767+417966407+421520510+424615132+429029730+434933677+439314976
1698+440274921+438973741+435824565+431743552+429434865+430182343+433011225
1688+437132357+443457466+451747049+456885933+454990758+450427903+448002425
1678+448930143+452333428+456089232+458633267+460821044+463634211+465418237
1668+464285216+462233996+462419429+465074682+467680747+468240611+467953756
1658+469498350+474832325+484543030+495294783+498692494+495343105+494029844
1648+496619017+498741925+496471037+492242218+490058214+491122074+495361763
1638+502382703+509951289+513047503+509940316+505649189+504290859+506019294
1628+509055347+512070251+514951090+517224746+517936744+518028647+519856669
1618+523845364+527060931+526708480+524712990+524205983+525726762+528011876
1608+529808641+530942734+532026048+533516192+535233238+536737886+538030447
1598+539579956+541660426+543933321+545788931+546973078+547731287+548428642
1588+549224615+550125611+551203351+552593112+554348719+556630199+559956084
1578+564479755+568410504+568999064+567430655+567529966+570272656+573124038
1568+573676114+573028155+573278456+575342934+580283474+589504098+600823089
1558+605367148+601226423+596425797+594553745+595156047+597098368+599378048
1548+601942471+606044772+612763489+621734608+631671141+639907313+641678635
1538+637620780+634775559+636446221+640666698+643736571+645168942+647768742
1528+653079248+659972286+666905477+674157889+682130640+689020285+693191471
1518+695566272+697129281+698157972+699766327+703384917+709588215+718301867
1508+728019287+733158172+729475959+723072447+720300542+721854689+725871907
1498+729795456+731691808+731951837+732979073+736478242+741705187+745733274
1488+746421214+744995904+743825360+743991651+745493807+747974807+751129210
1478+754847007+759143637+764006986+768706605+771102591+770042401+768055011
1468+768271978+771123360+774379669+775810864+776516942+779577745+786358561
1458+794334012+797349262+793520697+787968577+784151435+782567934+782996122
1448+784411463+784932836+783621617+781375375+779596645+779271333+780975987
1438+784354972+787324599+787888686+787257099+787700934+789256050+790327733
1428+790444109+790878113+792153540+793201407+793660126+794828662+796864236
1418+797127103+794140099+790079335+787192646+785832551+785417862+785540122
1408+786237893+787609135+789293227+790712722+791954849+793551296+795456925
1398+797200763+798690250+799899147+800420519+800366035+800745347+802041681
1388+803176156+802758975+801675385+802636230+806771485+812496679+817682917
1378+821824195+825571761+829032230+831543692+833012064+834346751+836320780
1368+838904241+841795015+844831172+847538140+849033996+848973420+847990213
1358+847011368+846708763+847104413+847406741+846800978+845457151+844287854
1348+843926888+844398138+845428698+846659402+847808345+848833713+849679844
1338+849926442+849209910+847989451+847375588+848062005+849662813+851223399
1328+852188675+852733724+853321973+854325810+856062794+858583048+861216563
1318+862985878+863805009+864645463+866369570+869001839+872012450+874666665
1308+876265050+876672193+876538094+876681262+877571146+879488960+882289527
1298+884816358+885593812+884409769+882467587+880926108+879879625+878711990
1288+877138596+875594903+874235776+872130072+868576489+864643455+862022333
1278+860889727+860027812+858650686+857191107+856502405+856998786+858582979
1268+860914512+863406382+865246934+865970528+865924005+865812545+866090019
1258+866948334+868333422+869804632+870920275+871865821+873282270+875429858
1248+877795313+879645074+880856809+881872761+882813460+883285541+883370002
1238+884031565+886027401+888952028+891805556+894201473+896408322+898434135
1228+900040274+901541253+903521028+905787761+907565037+908607782+909316837
1218+910087922+911322157+913677367+917447848+921792455+925342923+927611526
1208+928916029+929156950+928251143+927523050+928659878+931633036+935240895
1198+938773087+941845936+943977878+945447219+947250387+949745372+952447425
1188+954943725+957200628+959693259+963173943+967140969+969303234+968350351
1178+966438699+966880595+969970613+972462690+971750866+969542355+969626193
1168+973206637+977966971+981222796+982566553+983264878+984280968+985321636
1158+985690979+985821339+986990636+989418399+991947515+994031688+996383505
1148+998972920+1000458046+1000439976+1000296532+1001160593+1002735025
1140+1004138320+1004719507+1004351964+1003719755+1003815154+1004859490
1131+1006183309+1007099570+1007610350+1007864909+1007774564+1007930332
1123+1009585417+1012814934+1016273464+1019196430+1021657839+1023148641
1114+1023543322+1024492883+1027688131+1032613648+1036496767+1036665273
1105+1033252157+1029475515+1028696675+1030743465+1032532372+1032449849
1097+1032441403+1034824582+1038240051+1038844707+1035818034+1032805208
1088+1032852215+1035017942+1037059677+1038847199+1041583175+1045645253
1080+1050332965+1054147546+1055061453+1052433684+1048990800+1049083361
1071+1054195522+1060756602+1063901104+1063241548+1062049475+1061690101
1063+1060290614+1056644608+1052672667+1051312433+1053217854+1056314311
1054+1058477615+1059707627+1061360496+1064048426+1066904031+1068716476
1045+1069863758+1071614450+1073323188+1072720748+1069701275+1067429003
1037+1067973567+1069371324+1068758983+1065788595+1062354987+1061106975
1028+1063811728+1069529653+1073741823+1072167183+1065892994+1059716557
1020+1057008343+1058210871+1061612632+1064495237+1064987810+1063341101
1011+1061092506+1059171577+1057540654+1056394756+1056332380+1057379071
1003+1058484538+1058325724+1056945828+1055860300+1056067644+1056939667
994+1057245110+1056126766+1053397230+1050010076+1047411245+1045813552
985+1044744708+1044932183+1047032279+1049470703+1050239989+1049621071
977+1048599996+1047021479+1045381071+1045225857+1046194595+1045598385
968+1042284199+1038003422+1034867712+1033799352+1033955051+1032696447
960+1028028189+1021352880+1015735131+1012299446+1010389802+1009614424
951+1009768877+1010051128+1009630486+1008013547+1004327803+997974206+990393298
941+984204538+980661063+979229729+979003901+979494258+980166621+980298574
931+979472658+977835434+975837106+974225498+974114452+975794183+977699051
921+977719058+975779783+973946292+973672764+974388673+974628002+973468535
911+971300939+969497079+968654479+967711633+965830996+964115889+963858353
901+964217242+963718923+963355396+965286017+968455996+968662717+964006574
891+957356050+952420425+950645987+951812654+954431422+955908101+954917626
881+953019196+952332710+952815937+952909467+951823523+950288898+949432106
871+949703211+950854993+952076559+952022213+949909932+946927359+945152921
861+945102314+945363589+944604065+943431998+943758211+946183827+948804811
851+949619719+949248992+949603658+950939869+951543833+949754303+945747331
841+941356271+938547465+938218276+939901122+942137048+943567136+944154276
831+944935192+946566393+948701520+950592749+951448849+950580495+948509060
821+947348486+948361185+950037454+950594965+951257359+953996172+957061337
811+956576726+952860452+950850701+953441777+957992344+959922619+958189719
801+955398983+953817628+953848366+955184300+957413788+959770313+961088316
791+960241493+957109729+953728667+953329694+957103429+962693348+966252816
781+965747851+962411235+959349116+958834459+960835695+963794245+965881119
771+965190825+960782388+954478845+949715742+948688505+951493018+957066045
761+963726815+969006098+970726952+969281427+967055954+965290378+963400395
751+961407952+960945633+962803285+964867936+964246041+961343221+959649783
741+961252045+964451447+966365038+966250877+964976558+963226074+961680649
731+961140100+961646934+962672232+963996190+965714620+967452851+968329028
721+967713641+965942041+964799467+965740028+967183061+966083132+962860885
711+960866918+960541744+958988773+955785287+954115248+954507714+953421977
701+949398045+945422573+944493158+946605370+949613489+950813039+949018109
691+946077628+944427459+943678042+941599961+937859664+934256927+932131977
681+930916157+929239888+926982085+925109617+924204503+924052681+923166812
671+917856514+905150913+890662428+887573102+896303093+904440750+904569310
661+899828430+898261129+902300500+906622746+906286633+902900172+900008082
651+897638265+894693492+891670558+888795637+885990363+884079334+883188134
641+881744339+878279648+873201963+867996410+863970677+862657381+865904344
631+874126739+884660105+892099715+890998056+880600657+866759475+859505471
621+864885138+876957767+884255386+885125332+888193889+897671080+905713408
611+902466583+889361455+875677425+867402207+865023044+867736035+872419662
601+873910325+870732177
##END=
