##TITLE=<SNM>
##JCAMP-DX=4.24
##DATA TYPE=INFRARED SPECTRUM
##DATE=3/5/2025
##SAMPLING PROCEDURE=Instrument type and / or accessory
##ORIGIN=Admin
##XUNITS=1/CM
##YUNITS=ABSORBANCE
##RESOLUTION=4
##FIRSTX=4497.3318
##LASTX=599.83466
##DELTAX=-1.4281778
##MAXY=1.7255521
##MINY=0.17928757
##XFACTOR=1
##YFACTOR=1.6070456e-09
##NPOINTS=2730
##FIRSTY=0.20084246
##XYDATA=(X++(Y..Y))
4497+124976201+125491932+125810234+125463308+124750288+124243904+124262041
4487+124800739+125726013+126885350+128061943+128915216+129065281+128348738
4477+126992891+125529142+124620994+124799868+125929644+127008738+127070965
4467+126239778+125390260+124974411+124763112+124568401+124568095+124893445
4457+125392717+125914957+126409593+126628514+126276756+125571433+125025400
4447+124676434+124211562+123656758+123236273+122893825+122593696+122692549
4437+123466349+124550274+125239073+125261485+124983035+124760562+124402722
4427+123564757+122369202+121260168+120525146+120197403+120062407+119635070
4417+118554335+117125079+116188604+116364112+117547270+119077326+120230376
4407+120575022+120072884+119075555+118199629+117942839+118236477+118438412
4397+117939102+116828650+115876727+115767637+116421972+117177487+117562949
4387+117638816+117531173+117054748+116088147+114996332+114326522+114186045
4377+114156930+113856022+113434258+113332957+113614216+113877191+113867510
4367+113774323+113820676+113963471+114120879+114323694+114455575+114145673
4357+113271323+112413664+112364789+113240826+114481287+115524506+115978047
4347+115514974+114323425+113278945+112994950+113074702+112825006+112268032
4337+111883385+111790559+111771041+111757911+111818348+111923479+112091281
4327+112489225+113075852+113382277+112996925+112156726+111563459+111586251
4317+111950480+112307838+112646800+112926808+112880455+112516773+112327579
4307+112716575+113607550+114714414+115872406+117033560+118033468+118414693
4297+117714701+116116020+114548809+113903061+114262960+115007867+115530264
4287+115695109+115603729+115182837+114389064+113682656+113699458+114380478
4277+114951175+114905778+114552277+114405912+114500648+114565082+114550710
4267+114662952+115042953+115601040+116055555+116210098+116294356+116729537
4257+117437299+117861576+117794518+117592092+117527492+117546648+117619724
4247+117787072+117910265+117773822+117357909+116863347+116606112+116869012
4237+117648951+118578712+119199759+119262533+118841557+118294356+117984704
4227+118000940+118266316+118715035+119145682+119278787+119201483+119292362
4217+119552249+119649108+119661422+120027978+120764707+121420349+121706764
4207+121708489+121725466+122100173+122776613+123113757+122717223+122142511
4197+122120137+122502002+122613140+122244822+121728202+121327912+121032364
4187+120857960+121047339+121777280+122720264+123249190+123175715+122924591
4177+122913909+123144745+123456075+123811310+124192489+124456177+124454647
4167+124220798+123928263+123681858+123439645+123156308+122925407+122946576
4157+123313568+123811227+124017296+123685243+122987096+122371530+122194464
4147+122399402+122557970+122410696+122269561+122551460+123102092+123428202
4137+123422908+123386746+123487898+123616237+123671649+123685855+123665409
4127+123525322+123266112+123071206+123077205+123191450+123327504+123636924
4117+124288097+125200547+126122232+126789028+126977480+126630239+125980290
4107+125413311+125190384+125364640+125878590+126582068+127162335+127288560
4097+126941327+126428110+126011176+125746811+125653485+125704028+125730853
4087+125670351+125745374+126113571+126541363+126634689+126228929+125556078
4077+125168214+125456075+126097549+126362999+126055554+125650944+125480601
4067+125363824+125077085+124672576+124300030+124058215+123992650+124041052
4057+124098773+124173276+124313994+124529921+124907789+125533398+126213203
4047+126667374+126977174+127331881+127483206+127072152+126282718+125576644
4037+125068869+124672168+124528669+124901215+125853416+127085476+127928272
4027+127830485+127131059+126849800+127375952+127953613+127825784+127304249
4017+127229078+127754294+128193666+127948569+127192248+126551395+126399356
4007+126682896+127229263+127905517+128550755+129024927+129310795+129416630
3997+129274299+128852442+128285342+127834834+127727858+127969154+128363425
3987+128817596+129413505+129999818+130070390+129396064+128532563+128380626
3977+129310638+130801917+131892610+132036165+131524060+131031965+130909152
3967+131054562+131305556+131670926+132198395+132819404+133388247+133754516
3957+133798245+133584924+133467943+133846980+134792004+135847917+136251646
3947+135810002+135424753+135926862+136722359+136542623+135313317+134113766
3937+133747645+134425698+136091206+138153275+139382915+139026753+137844792
3927+137236894+137627530+138217283+138359512+138655811+140015432+142102611
3917+143315329+142404705+139888066+137383101+135971054+135768313+136846739
3907+139851014+145032103+150851634+154688755+155469398+153815982+150178421
3897+145435174+141982023+141982811+144976868+147671518+147540713+146512979
3887+147554232+150007837+151195269+151229911+151819181+151718093+149088600
3878+146248818+146602495+150185385+154831615+158919999+160960204+159711788
3868+157188751+156581761+157541528+157039576+154136056+151212238+150795963
3858+154276987+162335245+173189176+178874471+172877809+161825912+153358853
3848+149577496+150091752+153531254+158272267+163368598+168370164+171933416
3838+172124631+169218514+165707856+162900879+160369757+158063620+156913620
3828+157186210+158287158+160839478+166341513+173116351+175780124+173410434
3818+170514777+168081756+163693502+158078919+154745094+155700457+160497549
3808+166267093+169789731+171925442+175553322+179444148+179713159+177161637
3798+175148897+173521814+170963802+168607686+168307038+170131029+173131854
3788+176856724+181085195+185233998+189356338+194614695+201156128+206810991
3778+210016995+212521766+217079890+224950169+235588980+246468133+254593569
3768+260010280+264972216+270491721+277071338+286166463+298318511+311507547
3758+323481435+335085800+349219451+368014336+390463397+410923344+425169822
3748+436918317+450887217+465581588+474638715+478082297+482755362+492237053
3738+506134444+522079328+535853136+543510577+545292026+544862788+545313798
3728+547361662+549599054+549634437+546335875+540806450+534937246+530297377
3718+528232786+529932304+535884514+544488963+550977525+550735738+545221482
3708+539524597+537275262+540129416+547180998+554521805+558456193+559301057
3698+559651145+561212283+564489629+570011118+578899710+590175943+597239579
3688+594426520+586779799+582081402+582325600+585742922+590535526+596313118
3678+602645867+606539828+605031432+601409152+600348279+600467967+597377515
3668+591202916+585370654+581698563+580245913+580113911+580616326+582215629
3658+585109469+588085723+590831427+595452492+603697765+613725711+619396003
3648+616673777+609887682+604327398+600984514+598535303+596393417+595971968
3638+598452260+602232356+604668399+606383978+610998255+619429643+625752230
3628+623431980+617294248+615621026+620426686+629802115+640292012+647555487
3618+649883081+650508485+652225733+654106545+655411950+657865129+661645744
3608+663738338+662372032+659674581+658685254+660774435+665389640+670159731
3598+672538211+672273540+671058634+670392431+671390215+675088565+680195948
3588+681637769+676391299+668961960+664762233+664777662+667673320+671838776
3578+675158219+676064466+675191600+674218814+674164219+675514576+678516087
3568+682072681+683212741+680105450+674845035+671217377+670932455+671942775
3558+670956341+667811664+665269841+664928394+665333487+664684419+663776169
3548+664276953+665923804+667329351+668184117+668792090+668721249+667809216
3538+666999105+666708694+665989082+664411736+663086229+663423818+665893836
3528+669342499+671098246+669054684+664032532+658751496+654845740+652188050
3518+650330529+649459740+650134474+652280625+654735139+656124367+655938919
3508+654791886+653811683+653294135+652340785+650443504+648327544+646620014
3498+645294655+644991188+646904713+650527772+653286050+653488114+652501012
3488+652858258+654702871+655433536+653282341+649895320+648195579+648770987
3478+649820473+649994869+649735835+649655202+649092479+647075325+644173214
3468+642439128+643098432+644935108+645727416+645119073+644927171+646084292
3458+646850192+645365125+642505741+640751923+641325847+643532455+646197934
3448+648349204+649067481+647821123+644887040+641458776+639094835+638600208
3438+639360619+640201143+640643325+640665356+639964363+638343771+636101632
3428+633704829+631663641+630555627+630645903+631763931+633608544+635470812
3418+636013062+634544685+632010354+629681574+627733258+626076986+625398099
3408+625991235+626607812+625970910+624851621+625054797+626631624+627567987
3398+626417765+624059016+622343994+621922582+622118082+622456227+623043281
3388+623368928+622288434+619737561+617203861+615966886+615955722+616548302
3378+617493085+618626506+619370115+619442810+619693907+621058469+622746194
3368+622738108+620564102+618365914+618580774+621485000+625251817+627860031
3358+628711533+628455986+627654925+626368733+625038775+624648963+625328518
3348+625509367+623581228+620169173+617554617+617074604+618158695+619671616
3338+621167921+622470989+622647980+620641583+617262648+615078628+615594729
3328+617710690+619438693+619839187+618802347+616489145+613774039+612181858
3318+612811194+615236370+617400547+617482886+616256259+616131453+617534737
3308+618224529+616729337+614325339+612817276+612472603+612846614+613866466
3298+615309511+616379063+616472491+616086018+616504351+618246041+620135050
3288+620495524+618989724+616592995+614301230+612769616+612618587+614004217
3278+616032609+617410413+617691589+617332450+616731080+615859734+614706545
3268+613410969+612061502+610984346+610790776+611633859+612782635+613283641
3258+612827216+611918299+611368557+611467587+611736152+611594322+610883389
3248+609812761+608983475+609101642+610069532+610753723+610171640+608610502
3238+607059898+606021390+605323290+604734604+604490740+605059249+606381826
3228+607596473+607571104+605996874+604022484+603087678+603120985+602798565
3218+601578540+600215090+599411545+599061901+598637485+597681650+596369643
3208+595826058+596837046+598291662+598147977+595813596+592409292+589385045
3198+587763451+587812632+588883482+590102357+591027000+591160041+589874219
3188+587613127+585927888+585684617+586240331+586710330+586905829+586532559
3178+584909964+582216260+579830732+578682624+578095941+577068004+575911291
3168+575509870+575616095+575125103+573677348+571932543+570544837+569665183
3158+569152754+568759901+568242835+567408690+565979184+563782591+561404555
3148+560114023+560430880+561290876+561315540+560146848+558111483+555638721
3138+553485077+552416860+552212979+551978276+551494479+551194017+551039984
3128+550461386+549185431+547560944+546273379+545876410+546274158+546692343
3118+546431603+545446616+543993780+542193006+540257635+538643460+537651907
3108+537277302+537453960+538016275+538579443+538909948+539075739+538843484
3098+537633807+535490066+533378631+532157753+531756221+531617952+531575150
3088+531930728+532742767+533438086+533324295+532168621+530195047+528030833
3078+526687931+526787108+527604229+527636830+526369071+524768396+523916152
3068+523951053+524427395+524907482+524965120+524275550+522998704+521599166
3058+520185608+518571618+516954587+515842604+515275096+514802352+514332502
3048+514257321+514456418+513988273+512373875+510533194+509723973+510034598
3038+510523810+510520620+510132552+509574539+508681311+507245165+505410307
3028+503542921+501957935+500845915+500205637+499761267+499158339+498288626
3018+497337537+496672670+496682016+497325446+497844329+497399143+496029907
3008+494517505+493354933+492322804+491067952+489726348+488796660+488434369
2998+488103122+487279919+486336546+486074285+486478339+486634709+485836133
2988+484179156+482226798+480589775+479624371+479185156+478810551+478221606
2978+477493055+476798812+476122298+475198694+473814028+472192954+470893410
2968+470231657+470014720+469925594+469877341+469827863+469574244+468997947
2958+468234346+467374832+466365773+465405005+464953476+465044420+465011336
2948+464270249+463071737+462099025+461525175+460897249+459929656+458967589
2938+458471553+458376010+458261663+457948701+457546539+457027322+456189691
2928+455044847+453822412+452598715+451260004+449824786+448503618+447494262
2918+446936398+446877833+447113723+447274172+447236081+447235970+447374351
2908+447211565+446223276+444610362+443184416+442427974+442145129+441937612
2898+441452258+440348324+438674879+437115633+436338941+436250037+436214394
2888+435858593+435357736+434994555+434710263+434194718+433275638+432069596
2878+430847161+429875599+429259133+428822033+428284085+427610057+427017625
2868+426624141+426298792+425906273+425449069+424881339+424071933+423065545
2858+422136673+421524176+421254201+421138296+420864501+420290576+419668325
2848+419341751+419250881+418944967+418094428+416915981+416026425+415781930
2838+415843425+415545410+414560274+413075837+411574822+410534942+410114754
2828+410083450+410093947+409927897+409510194+408871511+408127828+407417674
2818+406792158+406153142+405420697+404749895+404280415+403737238+402770869
2808+401603957+400786428+400441087+400224706+399854552+399309744+398640017
2798+397787328+396624681+395183899+393754058+392640370+391943419+391601936
2788+391422162+391080864+390384359+389499921+388717368+388081615+387453021
2778+386813337+386259775+385725685+384988419+384042560+383183009+382567137
2768+381956605+381042273+379822545+378563576+377542537+376852004+376323143
2758+375669551+374834664+374124102+373798159+373586377+372935270+371794061
2748+370737193+370169648+369851123+369335096+368453291+367292721+366083786
2738+365123945+364528138+364095859+363542297+362762600+361858467+360998805
2728+360239618+359512663+358837632+358350127+358028486+357658517+357136853
2718+356523131+355795730+354845384+353698871+352551320+351587732+350847647
2708+350250245+349711482+349201648+348737546+348398622+348248261+348134507
2698+347740467+346957618+345997109+345052437+344098567+343067663+341999260
2688+340989163+340129575+339508547+339185645+339103343+339030536+338724287
2678+338202660+337693494+337258433+336680503+335832821+334962180+334451271
2668+334357138+334293863+333823345+332911831+331901066+331079791+330444299
2658+329879016+329380792+328990610+328611072+328060032+327311564+326556754
2648+325978936+325548919+325081405+324460711+323785829+323281559+323048488
2638+322903616+322527528+321804689+320962756+320322775+319958036+319663100
2628+319233009+318700106+318262338+318019141+317856874+317606817+317231136
2618+316802974+316398623+316082064+315909672+315857746+315785792+315527241
2608+315026124+314397233+313845822+313482492+313239333+313016907+312840286
2598+312755277+312641449+312288913+311658501+310953354+310407729+310061331
2588+309780266+309459423+309117605+308794370+308475863+308168335+307937174
2578+307822623+307773442+307651491+307292668+306660328+305956312+305474723
2568+305354756+305543579+305902291+306255421+306464680+306546519+306632084
2558+306793721+306991297+307152822+307213055+307092236+306719300+306111699
2548+305424485+304873816+304582199+304524302+304585741+304592232+304362350
2538+303895764+303445682+303249607+303281579+303375619+303443512+303460109
2528+303381572+303178785+302877488+302542903+302250396+302035758+301852202
2518+301628070+301402250+301346968+301564869+301877441+301945371+301635617
2508+301141121+300719078+300448788+300262116+300100146+299979123+299893353
2498+299712115+299313402+298797152+298388870+298155001+297976526+297741749
2488+297427805+297057818+296663945+296252232+295795937+295293615+294807797
2478+294425422+294174066+293965530+293673968+293310898+293030464+292918676
2468+292911703+292935793+292956656+292899223+292689611+292343825+291900363
2458+291377901+290888560+290605993+290535726+290495837+290365819+290192240
2448+290069492+290043789+290084569+290080470+289932131+289649471+289290666
2438+288880734+288475048+288220372+288252028+288533983+288844831+288947903
2428+288762047+288362425+287888458+287506602+287341127+287346801+287360191
2418+287334488+287384021+287556172+287719663+287747536+287678290+287615590
2408+287570656+287487723+287353088+287211276+287115492+287109447+287228894
2398+287475168+287773554+287991493+288058217+288057735+288131469+288281051
2388+288311112+287951473+287021433+285510941+283511146+281063641+278134344
2378+274749715+271077736+267339867+263711671+260326672+257274552+254550712
2368+252140372+250220226+249059582+248621850+248643622+249331318+251536535
2358+255857193+261846529+268613208+276010984+284242904+292315637+298250507
2348+300821056+300487602+298973105+297718921+296613948+294750957+291711596
2338+287717197+283326458+279126397+275431886+272312337+269818452+267981201
2328+266710698+265845027+265233290+264840344+264880791+265661637+267133704
2318+268786212+270090801+270922052+271558343+272395640+273610064+275033080
2308+276397327+277620263+278702129+279517859+279975841+280242793+280546297
2298+280877507+281122113+281372672+281852926+282545722+283122799+283332355
2288+283296916+283313625+283504265+283770995+283955349+283954755+283782845
2278+283542449+283304890+283066627+282816921+282559816+282307181+282105506
2268+281999819+281981442+282044049+282197692+282347720+282317176+282077151
2258+281801075+281615961+281437152+281140936+280788251+280543015+280454686
2248+280479277+280617806+280839212+280970324+280876728+280676445+280597407
2238+280708323+280950704+281353459+281988414+282707618+283183700+283306949
2228+283320468+283495679+283913326+284593772+285578315+286818349+288149605
2218+289418662+290579251+291687821+292846537+294137124+295585473+297163393
2208+298812804+300497487+302270313+304273577+306585741+309060932+311440081
2198+313613752+315634838+317554075+319413895+321289663+323204302+325115565
2188+327008839+328872071+330609681+332083065+333253612+334271684+335330999
2178+336398623+337248975+337759328+337965101+337923820+337706957+337374004
2168+336899295+336251525+335451726+334515325+333483382+332398474+331193582
2158+329836549+328486080+327275439+326173656+325141898+324183652+323345502
2148+322741646+322463066+322871571+325065123+330095545+337560676+345958461
2138+354348755+362667094+370856362+378745241+386359843+393788366+401071239
2128+408265764+415455653+422800688+430331467+437551881+443695176+448364458
2118+451566586+453466463+454389029+454751876+455050707+456138990+459227476
2108+465351967+474906984+487621737+502631370+518279834+532171699+542055107
2098+546586638+545345954+539194129+530283209+520411484+509951666+498691863
2088+486398671+472649119+457300487+440790951+423758007+407054901+391666879
2078+378100773+366478345+356978962+349439504+343202928+337908539+333658407
2068+330381395+327753227+325428972+323082128+320722230+318744131+317303498
2058+316201604+315337602+314637536+313968329+313530227+313742973+314760303
2048+316586964+319308153+323085726+328452662+336326483+347317016+361541871
2038+379115098+399944754+423087761+446932577+469776160+489957193+505912982
2028+516439079+521168148+520982626+517416723+511644138+504446905+496444272
2018+487847835+478636972+469061963+459466555+449823117+439791943+429108883
2008+417873486+406521590+395539885+385268482+375868610+367284821+359312342
1998+351885005+345283320+339893240+335636803+331810605+327797846+323737946
1988+320097308+317023397+314483577+312491867+310925333+309546658+308279140
1978+307178043+306252880+305465283+304764290+304165331+303847362+303916849
1968+304053023+303726765+302828529+301786275+301056946+300757318+300750400
1958+300839712+300831738+300619919+300298371+300074573+300065894+300240085
1948+300533463+301053033+302012596+303136929+303433071+302298019+300443670
1938+298939390+298077799+297626327+297430883+297439191+297573863+297760331
1928+298039912+298700014+299956442+301382296+302321311+302899129+303556913
1918+303825015+302948496+301467731+300720692+301196607+302212620+302783892
1908+302551229+301966716+301639326+301657723+301710872+301684613+301863792
1898+302538507+303504320+304155576+304370473+304871887+306022554+306836133
1888+306198507+304553380+303179916+302633364+302686458+303000161+303340755
1878+303544284+303585620+303705401+304565323+307005094+311001070+314657490
1868+315266019+312495316+308817291+306340134+305266891+304914707+304874020
1858+305047043+305280447+305401563+305456474+305774981+306728814+308478107
1848+311146813+314763233+318155371+318789900+315992048+312466053+310672734
1838+310627151+311041089+311348692+312496429+315538034+319562587+321942811
1828+321716676+320564636+319487036+317849716+315712021+314317638+314247576
1818+314850579+315409148+316084734+317488167+319566481+321264220+321616793
1808+320948328+320472840+321202095+323446682+326602152+329231618+330176104
1798+329949524+330440145+333164337+337609634+340623126+339320206+335397871
1788+332749861+332846183+334606751+336732392+338922420+340897774+342028338
1778+342690870+344629542+349316366+356087106+361469064+362181888+359156120
1768+355257301+352323849+351697035+353924190+357407495+359634131+360516863
1758+361582521+362902316+364201119+366941371+372500617+379301399+383540590
1748+383731342+382013464+380846217+381246488+383018888+384995688+385928862
1738+386683672+389919441+396111324+400637105+398933766+393803350+389272673
1728+386310885+385156138+385903456+387916567+391125297+397013491+406558976
1718+416947619+421786325+418895637+412974620+408373843+406692313+408378368
1708+413176944+419389263+424648676+429167708+435639765+444399025+451108753
1698+452879780+451247171+446885362+441338504+438509311+440155903+444977326
1688+451897574+462012792+474714192+482489949+479862931+473443281+470212519
1678+471971270+477647125+484254634+489280531+493758987+499202809+503188604
1668+502675433+500557766+501750641+506800202+511870495+513697639+514073839
1658+517216142+526113228+541687290+559234555+565966091+562049209+560623412
1648+564778075+568313824+565505105+559974270+557614631+560060132+566867294
1638+577110657+587647620+591941518+588103934+583122914+582509193+586512160
1628+592779631+599550297+606920627+614418656+620120882+624444748+630914432
1618+641164878+650875079+653499240+650063707+645864870+642932568+640519965
1608+637817915+635333729+634474438+636304660+640676928+646374703+652179148
1598+657669889+662757838+666896441+669473425+670773044+671687970+672601264
1588+673251518+673523088+673791246+674525471+676002156+678675498+683464356
1578+690678428+697807712+700751735+700894530+703758809+711330499+720618768
1568+727842927+733761979+741257190+751562084+765982364+787854163+817501421
1558+840891815+847054694+847455261+850570044+855914949+861100592+865293198
1548+869603600+875625242+883191293+890556913+896515353+898346169+890509067
1538+876312066+865710826+861286262+859482447+856304093+852121056+850202635
1528+851853789+855713998+860198944+865049890+869511099+871743743+871978668
1518+871929710+871169670+868594986+865471821+864652215+868444773+877397678
1508+888112264+891248782+882405958+871626391+866236311+865856292+868037381
1498+870071225+869582682+866891091+865299206+867000802+870585287+872250461
1488+869911444+865415816+861539955+859513454+858941236+858868541+859494094
1478+862274254+867978557+875326893+880926084+880670389+874564109+868129512
1468+865833519+867525397+869537803+868724429+867004807+868640903+874795177
1458+881518776+881959845+875865582+869481279+865561726+863530552+862316981
1448+860761741+858109094+854981775+852645651+851651428+852201466+854681276
1438+858380293+860255691+858178304+854813463+853266234+852987024+851819666
1428+849820835+849038022+850028462+851421695+852587495+854183904+855468762
1418+853899576+849209673+844099470+840590054+838945799+838341313+837752331
1408+836971966+836377272+835807798+834891389+834197220+834594079+836048436
1398+837907588+839480779+839613263+837135828+832942554+829673701+828699210
1388+828735409+827558705+825242609+824314999+826607580+831690410+837797209
1378+843475995+848484497+853120101+857020219+859669972+861751143+864218267
1368+866813944+869012392+871229162+873584499+874823439+874037511+872292446
1358+871242885+871341098+871815029+871783132+871262691+871028730+871651316
1348+873020960+874686653+876378753+878313346+881017399+884647059+888435389
1338+891115407+892252351+892873750+894420163+897277099+900596394+903474100
1328+905773209+907821295+910006317+912673354+915885608+919276264+922433774
1318+925458503+928932832+933134043+937367892+940419920+941719835+941743944
1308+941429943+941638312+942815536+944646203+946295280+947310867+947994279
1298+948646388+948888583+948182027+946765502+945370933+944013677+941901574
1288+938865421+936079771+934729043+934507173+934005722+932173571+929004044
1278+925290710+922059466+919905154+918747069+918312973+918634243+919864578
1268+921864300+924027290+925542400+926254668+926958035+928086596+928715487
1258+927805531+925761080+923795480+922410926+921042618+918672742+914725372
1248+909601373+904223681+899293066+895128797+891808760+889233927+887239398
1238+885642617+884252500+883024316+882021710+881208929+880621950+880622840
1228+881607716+883583107+886032726+888014199+888815260+888678325+888399783
1218+888481157+889148844+890587623+892661153+894959742+897253139+899523986
1208+901792533+904089342+906236161+907751641+908492172+909043323+910058316
1198+911679353+913803696+916401154+919324109+922199145+924611080+926272767
1188+927410527+928976153+931815063+935572312+939131650+942125669+945169908
1178+948611747+951817399+953814599+954573896+955609363+958537289+963021864
1168+966998238+968988984+969244160+968722087+968151946+967941648+968208100
1158+968825641+969628482+970564327+971724266+973431722+976194970+980111332
1148+984255054+987183499+988510861+989532531+991312163+992998923+993117758
1138+991843211+991133243+992468467+995079129+997069578+998113130+999915832
1128+1003730644+1008467428+1012101465+1014457395+1016933718+1019633246
1120+1021002148+1020148643+1017474187+1014003270+1011938419+1013724357
1111+1018636649+1022910110+1024580476+1025016872+1025383614+1025454010
1103+1025601701+1026755484+1028622425+1030000377+1030619773+1031458442
1094+1033778618+1038317344+1044202347+1048124719+1046460732+1039931408
1085+1034054638+1033588645+1038170914+1043743475+1047335081+1049414249
1077+1052013635+1055802855+1059384595+1060653949+1058743094+1055157644
1068+1052259687+1051028907+1051093368+1052392245+1055576905+1060449511
1060+1065024882+1067013699+1066343787+1065512981+1066792942+1069626289
1051+1071343314+1070321422+1068172081+1068032921+1070441518+1072558220
1043+1071789947+1068896218+1066430058+1065884767+1067555430+1070895346
1034+1073741823+1073322488+1069666420+1065976452+1065109891+1066807184
1025+1067979067+1066149512+1062766126+1061515837+1063666068+1066594735
1017+1066985660+1064405931+1061047989+1058863190+1057857766+1057596210
1008+1058434212+1059531544+1058537989+1054811895+1050769576+1049144014
1000+1050393340+1052967876+1054608051+1053886362+1051724411+1050231184
991+1050091727+1050094472+1049057225+1047146889+1045045022+1043036918
983+1041230063+1039774667+1038372088+1035717809+1030324020+1022728149
974+1015914571+1012499140+1012272226+1012661814+1011323919+1007940237
965+1003540003+999234794+995487262+991757757+987356262+982938449+979847551
955+978001751+976227312+974190946+972164594+969761931+966702856+963679165
945+961157297+958791204+956867813+956474366+957415032+957800616+956443434
935+954374503+953413586+954197066+955765807+956638822+956299600+955529992
925+955257902+955672341+956774792+958702783+960746938+961286739+959836240
915+957942965+956886283+955822703+953180441+948921519+944818818+942932590
905+943615855+944747458+943888315+941331730+939307010+938849102+939533553
895+940973815+942486106+942622670+940840961+938300250+936125169+934571561
885+934154748+935525653+937703776+938378954+936711629+934374912+933177957
875+933118020+933501749+934407996+936047726+937997228+939692222+940631034
865+939899627+937008940+933345083+931222669+931807052+934481062+937422562
855+938824029+938244616+936843891+936280203+937395413+939294399+939631173
845+936951302+932766040+930349951+931600463+935174934+937475304+936380642
835+933817975+933231959+935667855+939360641+942076044+942783490+941556789
825+939382747+937638572+937066354+937697990+939427032+942111501+945293935
815+948145086+949848313+949957282+948434458+945890039+943754199+943369580
805+944550067+945830325+946542890+947386010+948377637+947858086+944919776
795+941517549+940589567+943091111+947914166+953348976+957249984+957571847
785+954885968+952259878+951478697+951730387+951788395+951640111+951889056
776+952559339+952843445+951977255+950167358+948092122+946150705+944999741
766+945489694+946791538+946122442+942693808+939638591+939772855+942279220
756+944432196+944855462+944572469+945467070+947995985+950733641+952768005
746+954816833+956975372+958004979+957488841+956722644+956797417+957115497
736+956425260+954502462+952825939+953589168+957248723+961187413+961953758
726+959117667+955382078+952892477+951525281+951343765+953725509+957894897
716+959495980+955997469+951096823+949958024+952354308+953039130+948488906
706+940978415+934701300+930731306+927530475+924494396+922585544+921805773
696+920891589+920252980+922084983+926643737+930775071+931284979+928264997
686+923241585+916874342+909807517+903777938+900698094+900655960+901469853
676+901182632+900010230+897935142+892120980+880728990+870312975+871446730
666+880526778+886220325+885719245+883008516+881088982+879115445+876518804
656+874991084+874909116+874237572+872038976+870224702+870843505+873220353
646+874503504+873022147+870469864+869417336+869363037+867108436+862260902
636+859103392+860538833+863497765+862978808+858851628+855254755+854549682
626+853363483+847010335+837191240+829838156+827974183+830206604+835100871
616+842452841+850326440+855262989+855905603+853760490+851185509+849872315
606+849852064+850274218+850355444+848517359+842433703
##END=
