##TITLE=<SNM>
##JCAMP-DX=4.24
##DATA TYPE=INFRARED SPECTRUM
##DATE=3/5/2025
##SAMPLING PROCEDURE=Instrument type and / or accessory
##ORIGIN=Admin
##XUNITS=1/CM
##YUNITS=ABSORBANCE
##RESOLUTION=4
##FIRSTX=4497.3318
##LASTX=599.83466
##DELTAX=-1.4281778
##MAXY=1.7158746
##MINY=0.1774862
##XFACTOR=1
##YFACTOR=1.5980327e-09
##NPOINTS=2730
##FIRSTY=0.19576433
##XYDATA=(X++(Y..Y))
4497+122503333+122967516+123361139+123468560+123620925+124075383+124459206
4487+124333751+124091850+124643406+126091455+127357376+127441456+126468126
4477+125155648+124005252+123407287+123686105+124514977+125039369+124911323
4467+124444426+123843011+123241326+123147958+123774475+124356970+124098834
4457+123300221+122797014+122788818+122835143+122754997+122939216+123650746
4447+124476260+124823764+124586702+123935055+122949408+121831088+120912112
4437+120232118+119624624+119190578+119195576+119613229+120118002+120430911
4427+120482038+120267011+119709441+118824612+117863609+117056912+116444727
4417+116146262+116382233+117017515+117543605+117675195+117493979+117046300
4407+116316718+115575134+115323741+115681203+116021013+115649247+114756911
4397+114099176+113863102+113671909+113561971+114003597+115021350+116082537
4387+116722621+116738548+116029704+114721328+113266863+112150996+111555400
4377+111414877+111679092+112334319+113168385+113776429+113921307+113680646
4367+113234945+112773074+112516887+112509698+112455307+112058262+111447364
4357+111065434+111261001+112081723+113293578+114464181+115120677+115061670
4347+114596666+114266889+114208489+114024643+113469013+112925598+112816154
4337+112882919+112585899+111974918+111624570+111796462+112179240+112498872
4327+112911658+113561598+114117088+114152839+113839856+113779357+114148354
4317+114536905+114717002+114928989+115242756+115324235+115106792+115065876
4307+115517694+116169956+116598528+116731480+116715134+116669294+116685640
4297+116784202+116836812+116757794+116743705+117105558+117850956+118596026
4287+118924330+118761931+118379684+118078786+117889504+117593538+117118100
4277+116801406+116999453+117548920+118000580+118225780+118321498+118198179
4267+117844009+117685265+118048919+118537523+118585452+118434784+118858423
4257+119968248+120969850+121212703+120934556+120785287+121062948+121559180
4247+121863603+121739576+121306695+120862150+120628194+120791096+121520548
4237+122638597+123495480+123526177+122799634+121808700+120934482+120334624
4227+120135897+120384269+120831444+121092843+121126682+121356844+122185081
4217+123429629+124374426+124431651+123751387+123068717+122877244+122929033
4207+122704998+122207787+121966119+122318592+123056408+123792891+124350853
4197+124748085+125048685+125242517+125213573+124964632+124771741+124789123
4187+124736158+124421944+124196697+124308108+124302737+123741783+123071645
4177+123146047+124189358+125640868+126801139+127385144+127534312+127502505
4167+127484900+127631941+127890216+127897527+127484257+127142712+127425996
4157+128067805+128338342+128126206+128009899+128285537+128512798+128216021
4147+127607949+127238057+127234103+127365712+127602876+128069083+128624592
4137+128978408+129047625+128902495+128612106+128389600+128622876+129461716
4127+130435167+130730760+130022671+128890914+128194574+128138402+128254038
4117+128269125+128587955+129656630+131120877+132030799+131911601+131250257
4107+130818011+130891107+131322551+131998806+132804692+133324516+133116566
4097+132360557+131826206+132016523+132601992+132849665+132435332+131687687
4087+131161523+131165337+131661075+132386023+132964601+133112127+132899002
4077+132719623+132915274+133450371+133956879+134064197+133700245+133142638
4067+132846970+133128725+133835844+134450034+134667225+134655149+134635875
4057+134604675+134553930+134552811+134599332+134713279+134985476+135292333
4047+135316820+135016071+134685203+134529508+134566798+134861859+135431523
4037+135972886+136063420+135702927+135428670+135746110+136512413+137069563
4027+137019779+136709612+136862593+137839662+139347707+140733822+141384014
4017+140988069+139706054+138107588+136815447+136148331+136059382+136343981
4007+136883200+137671192+138628978+139563032+140364051+140990055+141227406
3997+140895419+140288447+139891840+139740724+139613843+139629527+140070137
3987+140856199+141619854+142035679+141909003+141309510+140706146+140651345
3977+141250317+142061164+142507005+142394009+142033488+141797564+141710779
3967+141721018+142106519+143122584+144383543+145127430+145070568+144585954
3957+144148459+143997566+144206943+144794426+145753191+146841606+147364917
3947+146813026+145823322+145560888+146099594+146350801+145737899+144949487
3937+144906658+145919105+147705241+149559633+150539872+150121753+148914914
3927+148254167+148811130+149834142+150215149+150098628+150402603+151143114
3917+151274052+150079829+148103918+146556579+146200795+146962706+148607722
3907+151482263+155874957+160736412+164043974+164745545+162995599+159113133
3897+154278001+150940190+150971298+153772258+156299286+156299855+155539781
3887+156678232+159072328+160217288+160117458+160378176+160185827+158018470
3878+155547483+155527845+158299703+162436882+166604030+169193254+168687688
3868+166487061+165339994+165133508+163510769+159977550+156797607+156112755
3858+158882086+165567199+174984633+180907938+177279272+168693600+161658979
3848+158412233+159082417+162669962+167289395+171443209+174877418+177305213
3838+177601104+175825721+173791166+172379110+170982084+169511245+168920694
3828+169435566+170445467+172578378+177144903+182372922+183653071+180962674
3818+178565016+177088116+174062216+169804395+167249299+168115246+171950715
3808+176263254+178575292+179982537+182845423+185767874+185453725+183120855
3798+181857546+181062504+178903447+176054959+174417468+174686206+176526732
3788+179430907+182722411+185641058+188220380+191349280+195165484+198298468
3778+199833723+200984520+203568038+208339016+214820310+221552607+227258534
3768+232297448+237496821+242568465+247575115+254015250+262669160+271971267
3758+280289245+288823053+300036330+314710895+330946338+344875636+354823552
3748+363689207+373936595+383973916+390179647+393699121+399322507+409490784
3738+423897357+440412914+455494967+465820011+470952731+473519408+476384961
3728+480536201+484956291+487938104+489018388+489042893+488957031+489916878
3718+493392712+500315698+510649918+523128033+534644884+542192177+546513761
3708+550120999+554442210+560449176+568023921+574763173+578493758+580207674
3698+581987347+584865357+589174819+594906557+601426046+606626500+607332268
3688+603749162+600556723+600957163+604466865+608869238+612916116+618264610
3678+626768952+634468237+634008493+627785045+623650701+622103772+618854676
3668+614044889+611320513+611780742+614437831+618729726+624954218+632767414
3658+639808301+643086863+643609269+646629052+655300940+666072897+669409346
3648+662074022+653356779+650095151+651542493+654663579+657570047+659818193
3638+661621365+663402754+665983082+671197673+681034476+693865997+700914270
3628+695469545+686124340+683147153+687477987+694695596+700111451+702302380
3618+703319518+705123286+707167780+708008569+707831400+707855420+707876606
3608+706769877+705224366+705541330+708672562+712748720+714809626+714338020
3598+713560490+713740792+713760710+713061582+713198319+714848193+716486056
3588+717290590+718271995+719197079+718313770+716097925+715407674+717673350
3578+721392261+724237858+724984057+724017273+723264659+724708121+728188842
3568+731160956+730988487+727445253+722821400+719755815+719376263+721251794
3558+724343712+727146117+727506573+724221447+719072278+715651608+715843995
3548+718387323+720174307+718492282+713450011+708311510+706329155+707679296
3538+710318929+712832269+715062884+716922675+718552855+720996894+725179503
3528+730279736+733791862+734152019+732287006+729704290+727060703+725031650
3518+723977140+723008043+721401809+720151928+720300377+720678959+719563353
3508+717536613+716116873+715362095+715203277+717073064+721919516+728045764
3498+732561301+733938297+732482302+729454314+726234909+723459880+720924161
3488+718899808+718697798+720835465+723578491+724752656+724458070+724615993
3478+725797991+726213350+724600104+722643187+723283607+727352752+732544815
3468+735369525+734475996+731668891+728613525+724590779+719194021+714760988
3458+714044181+717127669+721343250+723373049+722119885+720025187+720340510
3448+723333736+726263181+726664068+724589884+722014703+721004727+721993741
3438+723216320+722420439+719595803+717098576+716773629+718072671+718958143
3428+717816503+714821114+712379014+713525206+718481018+724018094+727503216
3418+729127502+729304597+727759011+725723468+725190618+725793590+725695718
3408+724639715+723578864+722685633+721810604+721890796+724276649+728675068
3398+732883115+734458615+732580547+728531692+724346025+721168244+719318673
3388+719327327+721558464+724870967+726716883+725411053+722382394+720897530
3378+721895570+722708833+721136764+718629243+717626503+718485717+720747887
3368+724660677+729791793+733878619+734456899+731317909+727001995+724737587
3358+725795082+729025080+732323111+733802306+732637391+729922563+727433243
3348+725228886+722487875+720241296+720671947+724070237+728346615+731251741
3338+732129978+731919762+731826366+731574450+729621711+725840810+722520772
3328+721755700+723432951+726292423+729302881+731585864+732410465+731816818
3318+730535083+729219854+728333934+728325877+728972638+729107510+728389211
3308+728274927+729689147+731067933+730460187+728340275+726614461+726414838
3298+727814884+730199469+732376150+733085349+731834274+729588440+728443518
3288+729813650+733076099+735794060+735347593+731661506+727739093+726421477
3278+727249808+727658379+727258983+728130805+730741569+733131599+734158583
3268+734699490+735676345+736782178+736842677+734780652+731036677+727792952
3258+726838552+727915442+729660725+731228691+732495730+733600370+734665697
3248+735242038+734423628+732327139+730602221+730474883+731036975+730334565
3238+728121405+726556125+727475092+729895484+731255397+730703524+729681836
3228+729321008+729044550+728096266+727253463+727855689+729395680+729757553
3218+728148186+726186420+725544881+726008878+726297496+725773672+724723115
3208+723332319+721358244+719161273+717962714+718547857+720509324+722710101
3198+723897619+723660473+723213709+723924175+725245447+725762184+725622463
3188+726028870+727090990+727683443+726896141+724749523+721864762+719001858
3178+716862251+715910611+715930976+716013704+715295703+713437106+710664763
3168+707953442+706618220+707095122+708517921+709685745+710143625+710362494
3158+710985906+711866902+712088606+710954202+708350450+704490550+700315624
3148+697659430+697822053+700041852+701946849+701702318+699592103+697078987
3138+694729389+692139288+689596706+688330935+688791276+689858170+690393855
3128+690562221+690759607+690523431+689621547+688861099+688651704+688189125
3118+687034952+686019381+686009609+687343413+690438464+694929310+698324243
3108+697638095+692714733+686434143+681606639+678831163+677179127+675911491
3098+674980439+674394401+674172249+674621550+675658232+676466646+676606218
3088+676571604+676635684+676321777+675611609+675478825+676436881+677483857
3078+677455212+676717219+676325880+675935810+674099442+670748521+667608786
3068+665779058+664617276+663516515+663152106+664019004+665011225+664600193
3058+662890045+661522299+661682012+662965090+664100763+664169989+663171277
3048+661811290+660717541+659742327+658494982+657292545+656629596+656125168
3038+655088784+653799142+653179386+653436300+653885153+653869861+653119186
3028+651456183+649037955+646813233+645786473+645763422+645595205+644526222
3018+642789666+641249526+640838120+641786777+642995779+642833977+640872286
3008+638288601+636437836+635560196+635047562+634557754+634291814+634072572
2998+633056255+630969837+628888342+628066650+628415394+628650302+627948413
2988+626908076+626433039+626179333+625037842+622973280+621122702+620112876
2978+619528031+618883956+618036416+616797127+615069635+613416218+612771024
2968+613420769+614678259+615638590+615954884+615751718+615039423+613659294
2958+611811290+610012669+608375775+606683344+605211273+604530198+604576672
2948+604772901+604768425+604506700+604040652+603513546+602770853+601317879
2938+599373196+598128462+598183888+598639231+598356208+597196888+595641082
2928+594118248+592944978+592128545+591158293+589597339+587765821+586299308
2918+585317008+584588488+584142992+584070520+584065448+583782201+583279264
2908+582515498+580901356+578100779+574944222+572807711+572216265+572524613
2898+572773657+572414955+571330494+569654548+567723628+565939927+564531078
2888+563477500+562718097+562346154+562507844+563122938+563655937+563334496
2878+561938553+560214343+559094037+558696955+558488380+558112520+557536366
2868+556696249+555579636+554408082+553376472+552368287+551145335+549716569
2858+548315888+547123335+546224397+545730524+545699231+545939323+546004596
2848+545326541+543518036+540959416+538793252+537820389+537731133+537826282
2838+537925721+538014044+537658139+536486324+534833765+533351288+532195437
2828+531005867+529580607+528181605+527058129+526047817+524938403+523894224
2818+523149591+522618420+522181427+521937232+521735334+520959147+519280218
2808+517155568+515228938+513778463+512892208+512533729+512353501+511968877
2798+511366763+510682032+509833112+508649921+507146519+505558636+504179440
2788+503075732+502026854+500958393+500223384+500097277+500193470+499750286
2778+498501002+497009088+495967707+495340528+494531108+493253177+491750336
2768+490297623+489023237+488032842+487322189+486753793+486199086+485487910
2758+484396288+482986581+481689740+480744030+479836253+478519755+476729228
2748+474793161+473165742+472111679+471468424+470817038+469960920+469037216
2738+468145925+467158999+465960702+464637379+463384999+462374911+461626772
2728+460891539+459797193+458255934+456652236+455494109+454842090+454202491
2718+453142833+451890825+451001026+450514016+449906755+448896145+447808550
2708+447039636+446542033+445974570+445102375+443938356+442606454+441185520
2698+439734412+438413625+437384851+436570619+435765898+435016678+434579275
2688+434424896+434102821+433265799+432086114+430945406+429931364+428895466
2678+427863670+427078158+426600398+426095970+425175884+423891240+422680559
2668+421813773+421147468+420460164+419718366+418993315+418367255+417819784
2658+417080635+415920941+414626935+413685365+413088511+412530708+412072268
2648+411960223+411998566+411679475+410824028+409709802+408654956+407727671
2638+406805496+405784144+404780920+404120955+403983547+404115659+404080262
2628+403707797+403091621+402265491+401182260+399959420+398893533+398222305
2618+397978147+397991948+397908846+397330081+396178892+394872391+393904675
2608+393344783+392935988+392496422+391969988+391315991+390622980+390141901
2598+389987931+389940040+389675144+389141511+388598030+388269503+388065106
2588+387732401+387169674+386456037+385710584+385038870+384493674+384029006
2578+383593842+383239988+383020858+382852379+382592855+382222739+381847103
2568+381521970+381187251+380824595+380561340+380493494+380483983+380284061
2558+379845652+379397954+379201949+379305155+379545434+379723386+379728160
2548+379554572+379262299+378919001+378574733+378282945+378079219+377913165
2538+377685829+377389640+377125192+376964770+376887225+376843698+376795694
2528+376720537+376674622+376763878+376928291+376898490+376550641+376151955
2518+376017530+376016225+375678410+374822739+373846257+373285620+373284314
2508+373620861+374041143+374347068+374353371+374027865+373570507+373170031
2498+372799206+372367026+371919590+371561484+371306622+371127588+371043069
2488+371052692+371083836+371070334+370982980+370784327+370478328+370150099
2478+369842906+369498154+369102824+368748747+368486984+368266623+368047717
2468+367877560+367827132+367872002+367870809+367720047+367478836+367256051
2458+367079217+366953296+366893730+366855760+366796492+366768295+366754308
2448+366512798+365833140+364896792+364177187+363968202+364108967+364212807
2438+364090877+363823967+363487383+363064378+362634398+362374463+362330227
2428+362378417+362392329+362299231+362083421+361865484+361828968+361950637
2418+361957164+361654970+361196419+360934134+361061099+361453892+361851795
2408+362099534+362182635+362152088+362100503+362112924+362179577+362245596
2398+362340372+362535855+362791426+362933982+362787398+362297292+361562804
2388+360768751+360044297+359308803+358230682+356429413+353770943+350408423
2378+346602270+342658411+338899330+335398579+331884775+328237515+324871600
2368+322262290+320338308+318718572+317399054+316917042+317812884+320111644
2358+323508964+327895336+333445355+340409183+348659931+357019666+363512896
2348+366590230+366117058+363593237+361016601+359007951+356794120+353705447
2338+349771434+345367830+340885190+336718322+333306529+330889308+329258718
2328+328037146+327138283+326777082+327185280+328368583+329989886+331556247
2318+332809299+333815694+334727090+335659223+336743125+338076108+339591035
2308+341052923+342209408+342980560+343525495+344077256+344687874+345201030
2298+345513445+345756894+346119177+346579891+346986485+347322472+347711685
2288+348184484+348594621+348765636+348646541+348347591+348046441+347834398
2278+347668381+347489533+347319339+347199050+347109198+347002971+346865711
2268+346687573+346431330+346107763+345846672+345803032+346004259+346334950
2258+346637592+346797977+346777463+346616220+346442967+346450613+346738299
2248+347143326+347367753+347302965+347087863+346875707+346731212+346708646
2238+346845794+347089989+347335788+347537835+347759763+348111043+348613681
2228+349123256+349410793+349372188+349189797+349214415+349612653+350215140
2218+350760859+351124111+351269726+351233471+351195725+351354245+351699780
2208+352056207+352307079+352496072+352750039+353142758+353636444+354167429
2198+354737354+355391910+356170821+357039173+357818829+358316880+358562343
2188+358761481+359049502+359437260+359895363+360379688+360904034+361574815
2178+362390725+363130322+363613640+363913746+364190204+364518508+364981833
2168+365746010+366925621+368442263+370085050+371720974+373436157+375462077
2158+377955649+380852755+383952357+387148153+390511830+394093033+397696840
2148+400945040+403595304+405809284+408047545+410617169+413390108+416077037
2138+418663333+421424822+424599469+428164410+431887311+435528454+439007384
2128+442408099+445882143+449542569+453298480+456709676+459156065+460287709
2118+460245375+459387466+457913195+455857922+453368304+450789803+448412976
2108+446234318+444056667+441805053+439671265+437900021+436456373+434969980
2098+432994898+430263435+426745528+422592161+418053946+413375450+408690464
2088+404046619+399590685+395614972+392283633+389431322+386805377+384365814
2078+382177272+380213343+378460226+377023925+375950579+375088082+374259938
2068+373471666+372857653+372483472+372249534+371977477+371579723+371133928
2058+370756726+370439985+370092957+369711727+369389540+369190551+369124457
2048+369204836+369454029+369901204+370581123+371469393+372523233+373881803
2038+375838422+378486708+381597164+384937753+388478861+392168902+395701617
2028+398624833+400604018+401533130+401467260+400562952+399060259+397143289
2018+394785709+391912361+388712799+385577427+382766182+380332960+378254785
2008+376433262+374685181+372905471+371158434+369557496+368151706+366903204
1998+365730718+364697020+364076032+363940153+363799835+363075493+361831542
1988+360600832+359692570+359050173+358543059+358110990+357750945+357506042
1978+357396346+357329619+357140290+356747049+356290736+356075746+356253512
1968+356563278+356557571+356125428+355570273+355144060+354796025+354427626
1958+354117412+353956878+353842856+353577810+353136156+352738514+352609870
1948+352785771+353290498+354207563+355195980+355369419+354351536+352957084
1938+352134199+351913428+351793288+351552600+351326084+351216985+351157531
1928+351165886+351559835+352551311+353686014+354319012+354596887+355035111
1918+355337753+354778793+353575237+352714680+352719193+353277033+353694481
1908+353484713+352745153+352001080+351642415+351618283+351662705+351698550
1898+351924617+352433596+352959621+353370914+354036138+355034588+355517831
1888+354767828+353325857+352136251+351439174+351051677+350916879+351031125
1878+351290277+351540589+351723353+352227744+353905256+357031154+360105877
1868+360679570+358303116+355083711+352951266+352207566+352205104+352307713
1858+352270601+352181606+352184217+352287795+352540159+353169911+354447468
1848+356660180+359865860+362882472+363321740+360638429+357378182+355781459
1838+355844270+356386482+356808965+357780971+360149368+363287798+365233786
1828+365240351+364520969+363744558+362354322+360420903+359017052+358737162
1818+359186948+359813343+360660025+362134035+364135039+365731762+366103258
1808+365586110+365255792+365914414+367747574+370298996+372533639+373557565
1798+373679383+374351618+376852351+380821350+383677876+383028915+380219945
1788+378415393+378845821+380700465+382975950+385394141+387633895+389135505
1778+390274908+392589669+397264771+403507987+408203790+408830558+406659062
1768+404261683+402952310+403536969+406326282+409962277+412323923+413360792
1758+414473376+415872453+417381375+420135217+425149998+431063456+434847640
1748+435430172+434538657+434076040+434902245+437049013+439695658+441723555
1738+443697480+447882476+454797182+460400725+460492181+457428946+454814078
1728+453475612+453580310+455309481+458229452+462243768+468502240+477794593
1718+487820128+493276004+492204858+488453125+485864926+485978576+489101788
1708+494755348+501282109+506707737+511515771+518329659+527513808+534983109
1698+537921319+538060817+536417359+533906145+533395674+536561369+542523241
1688+550199438+560282823+572410442+580816502+581145440+578528036+578516511
1678+582443362+589224538+596410817+602330914+608159517+615025809+620720808
1668+622809912+623770840+627389007+633604249+639085228+641898077+644381950
1658+649896573+660150450+675265551+691245684+698292539+697017444+697665174
1648+702421811+706418821+705500302+702483205+701647862+704293165+710434630
1638+719323895+727512690+728965327+723125087+716592656+713482461+713574141
1628+715066017+716643830+717932651+717954807+715487717+712084653+710922722
1618+712300985+712319635+707767545+701174466+695834402+691936979+688438504
1608+684997693+681959411+679543794+677743830+676555790+675885456+675533431
1598+675401766+675410941+675312846+674860039+673943310+672489926+670560685
1588+668504851+666773219+665611288+664931854+664582737+665045242+667465857
1578+672093589+676329759+676613976+674667129+675181778+679127092+683443230
1568+685354270+686126578+688259545+693061686+702079781+717453213+737189257
1558+749472486+749817574+748647288+751283565+756976699+764365062+772899094
1548+782326207+792566881+803445662+814462375+825198003+833418651+833715698
1538+827181775+822168001+821989564+824188102+825271631+825238211+826486601
1528+829620294+833253044+836836411+841784018+848668101+855198593+859103699
1518+861003399+862142056+863011938+864242349+866697056+871187454+878056916
1508+885351436+887333641+881641924+874856533+871606244+871872483+874531064
1498+877754573+879078977+878090261+877464687+879536857+883919984+887715580
1488+887979283+884968154+881569938+880282608+881476019+883744829+886084207
1478+889230955+894102397+899776583+903464163+902694167+898605104+895156609
1468+894624058+896335250+898052187+898537145+899531829+903679451+911290115
1458+918312801+917877002+910386590+903317653+900078107+900050058+901609370
1448+902876036+902652318+901179763+899074994+896818941+895838878+897895234
1438+902496857+906105512+906105587+904469141+903843491+904394842+905026459
1428+905089867+904848544+904888230+905830770+908276599+911833856+914028814
1418+912392816+908485248+905453157+903817457+902681337+901829731+901565208
1408+901963335+902546837+901951996+899202705+895870284+894716931+896436404
1398+899180102+900794541+900179783+897151422+892999846+889907629+888689302
1388+887952801+885855864+882873903+881520927+883296199+887339609+891701177
1378+895315875+898484107+901608475+904276082+906051951+907394707+908929849
1368+910648502+912519855+915119430+918622828+921573533+922196423+921033224
1358+920279565+920807715+921422399+920924386+919807213+919340382+920054206
1348+921689160+923737533+925720559+927471885+929345626+931830246+934724406
1338+936920930+937500180+936745552+935692981+935140362+935387727+936535261
1328+938504114+940816264+942761246+943954806+944612905+945242359+946146631
1318+947263654+948387615+949406319+950226742+950587645+950213837+949142467
1308+947644251+946041448+944841994+944510110+944799325+944928602+944685862
1298+944732112+945469360+946034436+944918681+941751717+938026093+935620173
1288+934886208+934392671+932510426+929233282+926151957+924547886+923965354
1278+922877424+920259050+916242645+911930908+908799080+907507424+907211794
1268+906627098+905374456+903728835+901818840+899647530+897234449+894435251
1258+891049717+887165424+883244428+879978474+877918016+877006136+876736391
1248+876927062+877779563+878905165+879231081+878537921+878060199+878778946
1238+880187795+881311606+881853856+881896824+881619620+881568893+882247805
1228+883494629+884885425+886333960+887855376+889379180+891047106+893003128
1218+894970488+896623868+898002953+899276034+900654596+902533857+905089419
1208+907971793+910984638+914380541+917815832+920045179+920461583+920059204
1198+920142231+920845387+921601881+922576348+924733410+928332442+932143332
1188+934790873+936411504+938250557+940958149+943886027+946023097+947216807
1178+948034992+948871380+950080680+952499207+956566861+961041519+963908153
1168+964783704+965149903+966278489+968243313+970632523+972897901+974209922
1158+974233943+974138383+975514036+978368809+981183448+983083074+985090718
1148+988321014+991821503+993359555+992330184+990732827+990990338+993713670
1138+997572451+1000529422+1001059810+999096926+996072891+993718071+993015959
1128+994131938+996593507+999711833+1003426715+1008007451+1012709930+1016199080
1118+1018376358+1019990723+1020848744+1020707009+1020924610+1022387244
1110+1023096666+1020753110+1016572292+1013926467+1014576136+1017930041
1101+1022403357+1026622220+1029988060+1032716316+1035534387+1038345520
1093+1039963988+1039977788+1039651126+1040725256+1043830825+1048128389
1084+1052195968+1054520353+1053593105+1049657862+1046110526+1046103215
1075+1048729272+1051188678+1052873761+1054176607+1053827118+1050933181
1067+1047336834+1045794978+1046959968+1049032436+1050321407+1051445293
1058+1053929242+1057052789+1058330198+1057709994+1057944230+1060039003
1050+1062065967+1062937639+1064041981+1066373601+1069141692+1071617808
1041+1073475211+1073741823+1071826755+1069078209+1067862493+1069412630
1033+1072400783+1073354587+1070022390+1064276217+1059860939+1058410614
1024+1059013585+1059912560+1059704806+1058466636+1058009204+1059375533
1015+1060774386+1059884586+1057123583+1054870364+1054348107+1054928476
1007+1056071981+1057899098+1059850122+1060428999+1058576668+1054700879
998+1050119322+1046028916+1043279102+1042496052+1043629113+1045201480
990+1044976121+1042378188+1038984522+1035900735+1032957117+1030841829
981+1031044809+1032989492+1033802157+1031545657+1026573060+1019972223
973+1013076055+1007624617+1004127783+1000789842+995747497+989763805+985298248
963+983287472+982065340+979595118+975744393+971624819+967890542+964830775
953+962785162+961292167+959054838+955907642+953665315+953721264+955011353
943+955453418+954383093+952668319+951304080+950690366+950756907+951068202
933+951008077+950370193+949510979+948857728+948642888+948766048+948694136
923+948217682+948236331+949716794+952102572+953839724+954128044+953363419
913+952222002+950845529+948972832+946791228+945275779+945074515+945582599
903+945758350+944892273+942414442+938505084+934762227+932817171+932676853
893+933278557+934073319+935258748+936781806+937898606+937726658+935596302
883+931185276+925554058+921452163+920892682+922915095+924976673+925802467
873+925875573+926233492+927535219+929431339+930907698+931554534+931535735
863+930619677+928773911+927335969+927713208+929369199+930349634+929428355
853+927455996+926407901+927323362+929621339+931971981+933295416+933146296
843+931865232+930396854+929491166+929044700+928488053+927712388+927144402
833+926982600+926989687+927143582+927635179+928341767+929287142+930788193
823+932662158+934368800+935636734+936427095+936986203+937906588+939154455
813+939478954+938485837+937888460+938917533+940477442+941228490+941720535
803+942966314+944298924+944317574+942785714+939956155+935710959+931285162
793+929969485+933602086+939471122+942693884+941340013+937763510+935265761
783+934862710+935070613+934312479+933044619+932346535+931733568+930586258
773+930125394+931419736+933358003+934470178+934718140+934687107+935045847
763+936669238+939502826+941952981+942796008+942588701+942003335+940287069
753+937153003+934823099+935733263+938970423+941038341+940518023+939810540
743+940943602+942578407+942929165+942981756+944769560+948313689+951626565
733+952900542+951863487+949485690+946748334+943830526+940781800+938498444
723+937688539+937145917+934991316+931629802+929395308+929620518+931575645
713+933298325+933207242+932027407+932336987+935131933+937870333+937268480
703+933106610+927528729+922294220+918362408+915941196+914221574+912492478
693+911352926+911984991+914176517+915693309+913739450+907353529+898823675
683+892016128+889130472+889203801+889571119+889013876+888685423+889428116
673+889099514+883940796+873032847+862159363+860152391+866212022+873191293
663+877476697+879002067+879874112+882072128+883992418+881736290+875397589
653+868935280+865288729+864658902+865292160+864820182+861832029+857895517
643+855668035+854658283+852339344+848727779+846299033+846236968+847168542
633+846996893+845128896+842799439+841618784+842251520+843588457+843733027
623+842419812+840675200+839105966+837478248+835168187+831945946+828796812
613+827991084+830860105+834920747+835737217+832020842+826561273+822148680
603+818660127+815185448+812481437
##END=
