##TITLE=<SNM>
##JCAMP-DX=4.24
##DATA TYPE=INFRARED SPECTRUM
##DATE=2/5/2025
##SAMPLING PROCEDURE=Instrument type and / or accessory
##ORIGIN=Admin
##XUNITS=1/CM
##YUNITS=ABSORBANCE
##RESOLUTION=4
##FIRSTX=4497.3318
##LASTX=599.83466
##DELTAX=-1.4281778
##MAXY=1.8466711
##MINY=0.38062945
##XFACTOR=1
##YFACTOR=1.7198465e-09
##NPOINTS=2730
##FIRSTY=0.40628457
##XYDATA=(X++(Y..Y))
4497+236233044+234774367+234015484+234138533+234753261+235325257+235618645
4487+235886197+236566981+237687388+238576131+238393870+236991338+235028056
4477+233324580+232355901+232241585+232861494+233930574+235088983+235880115
4467+235802292+234797639+233602199+233087769+233340487+233808478+234084711
4457+234060572+233673957+233004558+232303759+231785742+231634083+232027821
4447+232898888+233838023+234315665+233984032+233008491+232105106+231931630
4437+232448209+233166977+233758104+234038530+233819637+233297634+233273062
4427+234290036+235706760+236212042+235242565+233519300+232215471+231893438
4417+232256470+232686441+232924899+233272889+234158652+235444425+236246543
4407+235774601+234269259+232666929+231614692+231341942+231963393+233201808
4397+234243925+234443722+233879212+232936630+231776540+230494354+229475648
4387+229166733+229489701+229816325+229697677+229344818+229107677+228825379
4377+228185057+227442376+227151102+227383234+227820535+228287278+228595309
4367+228371390+227651565+227047685+226892041+226925363+227075324+227721711
4357+228976761+230374944+231302208+231396267+230742325+229924143+229539780
4347+229551321+229494692+229190923+228804897+228429579+228056064+227747305
4337+227449047+226866065+225911994+225048239+224816973+225226220+225796534
4327+226099939+226100268+225978466+225819911+225629384+225544925+225793069
4317+226395926+227047061+227305048+226908382+225941851+224759408+223843823
4307+223619922+224147764+225005437+225649849+225891391+225901233+225810172
4297+225446967+224625008+223682720+223406002+224207964+225634981+226903582
4287+227640215+227858450+227591938+226928240+226139118+225466167+224934096
4277+224519322+224308399+224392564+224720627+225054390+225077559+224715913
4267+224303322+224208899+224431674+224771035+225136094+225524928+225924540
4257+226264889+226405977+226351756+226367386+226619048+227024222+227544683
4247+228035391+227962230+227134640+226317810+226223231+226540602+226691134
4237+226676405+226604163+226221047+225401913+224576766+224399582+225111644
4227+226190168+226754054+226505079+225983647+225777716+225876713+225907246
4217+225660211+225284201+225151828+225510736+226122310+226405682+226114408
4207+225675651+225629557+225895480+225940014+225687036+225673814+226089958
4197+226378841+226175803+225866663+225761600+225537439+224966656+224457909
4187+224410239+224675798+225006910+225444246+225958469+226165752+225741014
4177+224920337+224425436+224873169+226153120+227428669+227930034+227657752
4167+227132577+226741144+226557740+226486346+226357977+226058489+225636541
4157+225243981+225065099+225237622+225573118+225536867+224883688+224066061
4147+223696461+223926965+224549369+225252490+225596598+225267548+224545730
4137+224056305+224045526+224349000+224903113+225779449+226871195+227915322
4127+228595500+228478012+227257256+225226185+223261707+222321585+222909749
4117+224690839+226545904+227356791+226941566+226045770+225403594+225035398
4107+224608043+224277901+224659977+225888011+227235647+227864792+227603548
4097+226835047+225891044+224807182+223713339+223145901+223502157+224338534
4087+224799627+224730868+224785210+225388189+226143659+226365064+225850391
4077+225002665+224342173+224060758+224052856+224222814+224538158+224773045
4067+224592725+224132654+223923724+223975866+223732574+223080555+222474093
4057+222047189+221596752+221315944+221594881+222288315+222888452+223235836
4047+223579304+224036325+224343853+224298609+224245202+224635041+225188807
4037+225212894+224728251+224472032+224837767+225520925+226062631+226193824
4027+225837048+225179797+224640950+224604907+225178740+226083459+226765924
4017+226848494+226448189+225883281+225315253+224883202+224799610+225006235
4007+225120273+225051150+225262453+226097547+227189900+227842144+227767631
3997+227207991+226538557+225980805+225539588+225105249+224728320+224748525
3987+225404963+226363262+226944113+226849499+226426875+226218032+226466124
3977+227032921+227576273+227770005+227487985+226862652+226162269+225587778
3967+225237708+225260773+225822077+226820232+227850167+228561778+228894260
3957+228932920+228769772+228580147+228703040+229436936+230564638+231243308
3947+230851633+229859751+229272090+229451214+229934610+230171143+230105988
3937+230179513+230936542+232350945+233504207+233372718+232075474+230836436
3927+230653187+231455045+232373056+232664192+232477581+232561607+233207595
3917+233726791+233295832+232115295+231100660+230784762+231129391+232197432
3907+234409429+237820298+241366605+243492532+243672281+242305566+239680631
3897+236444486+234109820+233945736+235646405+237167031+236824083+235843014
3887+236451296+238507840+240046470+240658425+241364682+241612878+240330484
3878+238778129+238852330+240639953+243309942+246308237+248451977+248181099
3868+246288240+245057225+244867842+244191528+242304215+240401634+239944440
3858+241689885+246048396+252332655+256240522+253542253+247533256+242798735
3848+240803759+241360436+243517035+246045745+248409783+250936275+253345557
3838+254070459+252513582+250275713+248691994+247670584+246998881+247011582
3828+247659997+248424841+249739102+252648848+256194861+257460915+256195312
3818+254759803+253332613+250693277+247803043+246789812+248617915+252810280
3808+257310313+259749920+260594839+262033501+263999261+264547812+263756212
3798+263114729+262637052+261778270+261076710+261529225+263544666+266812730
3788+270557207+274042761+277178834+280713341+285599868+291988289+299008610
3778+306015380+313662021+323062478+334717925+348137271+361307261+371353273
3768+377254001+380215092+381560717+382464675+383983273+385874434+386811939
3758+386648809+387309093+390813362+397684624+406302561+413275541+417471944
3748+421724976+428419556+436642820+443124746+447732769+453725061+462785706
3738+474280379+486925143+499754905+511448197+520606783+527543858+534190542
3728+541976644+550391699+558007877+564574747+570331336+574588562+576898656
3718+578009585+579149626+581556967+585417891+587899537+585235041+578443768
3708+571702747+567449472+566230171+567554621+569779459+570883318+570359859
3698+569716938+570970099+574805792+580187532+585586532+589434424+589573814
3688+585525327+580497573+577930533+578766874+581850581+585487551+589197163
3678+593162196+595446020+592936995+587522192+583775706+582281506+580522180
3668+577293365+573714895+570735125+568275451+566197767+565266811+566360273
3658+568547058+569407937+568604692+568903712+572369512+577475521+578960191
3648+573467063+564640283+557493741+553816812+552786772+553042402+554232764
3638+556508756+559289561+561671984+563923508+567300274+571727145+574170010
3628+572185553+568606252+566766487+567222885+569504283+572443297+573762860
3618+572809517+572065744+572982212+573976728+573750730+573778179+575302842
3608+576808860+577123892+577779706+580235047+583915928+587587555+591075362
3598+594444919+596657766+596919911+596556914+597564600+600030927+602543071
3588+603885751+603736310+602686482+601483608+600425462+599716519+599970070
3578+601538990+603157955+602395849+598713131+595350505+596495779+602715386
3568+609414853+611256731+608806346+606249910+605214430+604755987+603939331
3558+602715524+601478271+600466704+599255928+597347786+595712878+596122593
3548+598256768+599275683+597482670+594485260+592179116+590432406+588854544
3538+588077466+588143245+587769781+586428141+585459964+585733061+585718575
3528+583705075+580571601+578404848+577684330+577507856+577545182+578087355
3518+578729237+578639267+577692543+576140639+574008370+571861857+571114653
3508+572301134+573781575+573563583+571873848+570567905+570524202+570917801
3498+570670871+569489588+567696749+565694097+563813611+562507390+562096185
3488+562084332+561340975+559413425+557079209+555314893+554452212+554389137
3478+554739726+554771611+554091745+553204458+552690391+552460858+552293950
3468+552085246+551243082+549299624+547219721+546473938+546979860+547392278
3458+547040129+546138805+544660236+542514797+540411674+539253023+539009142
3448+539000651+538886491+538634292+537804050+535902631+533544987+532123567
3438+531971943+531938603+531135359+530034446+529410724+529304328+529395129
3428+529428226+529001876+527743101+525899455+524184802+522956247+522031669
3418+521447076+521554304+521985506+521597418+520143731+518880312+518805800
3408+519554078+520528077+521731921+522867110+523053044+522033298+520508877
3398+519154553+518148184+517364867+516508875+515318062+513855712+512477266
3388+511509991+511048464+511026977+511328908+511610634+511226531+509954725
3378+508618387+508153984+508347335+508294795+507683551+506819518+505855119
3368+504805984+503964443+503694916+504119187+505096028+506146861+506749650
3358+507112473+508008979+509377929+510039981+509449565+508447182+507637838
3348+506604194+505288651+504504052+504559399+504770737+504684615+504663786
3338+504994795+505196221+504374193+502045245+498832649+496377169+495997675
3328+497278077+498536298+498812236+498557646+498382594+498404324+498726980
3318+499318436+499500905+498591991+496921665+495417033+494539449+494188617
3308+494251693+494714259+495247872+495181851+494362768+493550409+493337858
3298+493366138+493276862+493478427+494159020+494604570+494321422+493956450
3288+494331924+495170241+495506101+495188401+495155581+496015454+497217704
3278+497972845+498137569+497887346+497372344+496844899+496490393+496254553
3268+496043943+495699140+495017507+494334488+494430557+495233871+495417483
3258+494053697+491935603+490552617+490424837+490911282+491128789+490555355
3248+489065938+487036946+485357678+484835606+485467540+486537123+487232099
3238+486920221+485372892+483101060+481048432+479802168+479353880+479421011
3228+479649019+479662570+479324560+478840715+478372152+477807972+476985008
3218+476043864+475433693+475355334+475401982+475033197+474179181+473127862
3208+472203803+471777488+472067636+472654101+472574044+471177264+468851817
3198+466790560+465842138+465611426+465035601+463797932+462558668+461719000
3188+460728053+458944849+456695231+454997318+454427592+454688524+455202660
3178+455622113+455688655+455167657+454184716+453220837+452555527+452000600
3168+451242167+450169118+448872671+447530269+446303378+445206658+444111290
3158+443044757+442222729+441566638+440641124+439303747+437966231+437074993
3148+436698791+436576210+436288349+435562771+434495337+433311698+432123033
3138+431034458+430093418+429123612+428029770+427096943+426616563+426446328
3128+426165503+425538731+424774684+424344626+424414287+424491987+423901017
3118+422564194+421164885+420531806+420839283+421383328+421222000+420088994
3108+418566445+417358927+416623576+416152519+415962564+416211193+416606317
3098+416563100+415974659+415213281+414450030+413515748+412363058+411324805
3088+410843454+410938657+411083280+410874819+410558054+410434433+410176689
3078+409339827+408200168+407468040+407343829+407330452+406960316+406312854
3068+405665324+405008366+404201345+403307923+402479968+401759138+401180540
3058+400787010+400406546+399736246+398786923+397952834+397478380+397118780
3048+396577507+396024937+395793879+395806078+395705261+395262934+394339430
3038+392898637+391359313+390406905+390172382+390017223+389338016+388258278
3028+387314950+386728555+386251848+385629895+384915476+384274946+383719568
3018+383138475+382485296+381896301+381561133+381362722+380869207+379945287
3008+379056544+378659341+378641181+378604860+378322267+377725683+376827236
2998+375837745+375122841+374865063+374861528+374773776+374470008+373963497
2988+373191721+372117563+370898713+369774233+368989877+368813612+369208736
2978+369566673+369240447+368266794+367171114+366260849+365482524+364766372
2968+364143067+363575663+362948719+362289336+361814154+361625620+361504355
2958+361171718+360673143+360277014+360033064+359705867+359144459+358433818
2948+357667692+356865799+356180146+355899806+356130379+356612145+356897857
2938+356648569+355813926+354620618+353405302+352432031+351777742+351344530
2928+351046827+350917210+350867477+350513491+349557583+348248035+347137626
2918+346451488+345952081+345385648+344822299+344496108+344470011+344524457
2908+344334017+343786402+343133361+342716334+342556704+342381860+341981364
2898+341326313+340457151+339485301+338609589+337983615+337610152+337377673
2888+337171914+336983900+336848080+336659442+336298143+335925408+335741587
2878+335524115+334958721+334320998+334204135+334627609+334957266+334691897
2868+333935960+333111263+332519772+332200131+331976629+331596996+330952100
2858+330202123+329631323+329388101+329368277+329295255+328920578+328219711
2848+327412723+326777808+326460004+326428223+326540893+326633115+326574268
2838+326290358+325777331+325099337+324392370+323878095+323743453+323875842
2828+323857509+323392932+322590243+321724408+320969822+320422034+320100591
2818+319868736+319544936+319094257+318615506+318205271+317868891+317499344
2808+316969959+316309536+315728269+315409980+315326144+315328363+315370401
2798+315464287+315418852+314910226+313940247+312968674+312447156+312376837
2788+312385259+312125505+311564374+310938608+310482627+310218229+309963812
2778+309508039+308808661+308017686+307288295+306668975+306211538+305963845
2768+305806086+305515349+305007590+304358154+303650978+302907136+302089925
2758+301190612+300371529+299881688+299739282+299647164+299305343+298711634
2748+298102330+297637684+297227623+296736812+296237335+295873056+295592335
2738+295237656+294781813+294288713+293790208+293348193+293068130+292903891
2728+292613673+292061831+291420816+290943555+290681929+290513601+290285090
2718+289882861+289325075+288778708+288385993+288143186+287953630+287684484
2708+287257995+286778187+286412348+286151797+285892338+285630574+285369798
2698+285014165+284531931+284047514+283696300+283512029+283412217+283204968
2688+282714260+281988925+281322264+280990666+280966164+280922929+280553503
2678+279864817+279162979+278764338+278692840+278676725+278484518+278151741
2668+277800770+277449886+277123885+276943981+276965157+277039565+276934953
2658+276583029+276170438+275912261+275787305+275625579+275369776+275085762
2648+274807674+274502797+274123737+273660858+273197963+272868288+272691243
2638+272535807+272295773+272004949+271727676+271459518+271219310+271108633
2628+271162421+271266479+271303717+271225722+270968689+270521007+270062842
2618+269804267+269718404+269602529+269340609+269011680+268794138+268781107
2608+268863642+268826975+268565159+268165998+267828751+267727847+267886438
2598+268132883+268237703+268141963+268001412+267951835+267923711+267810262
2588+267707400+267783818+267999610+268160661+268159621+267987029+267647391
2578+267243690+266985218+266945137+266953628+266844459+266655007+266507333
2568+266452697+266488359+266584948+266672370+266718463+266808104+267030463
2558+267316105+267481124+267412937+267145351+266783844+266428194+266148824
2548+265971554+265873180+265809481+265738798+265618608+265410787+265101924
2538+264702503+264235085+263743476+263298983+262972809+262807027+262805329
2528+262912246+263012110+263030322+263028468+263077785+263072846+262852393
2518+262453232+262041732+261683276+261389679+261259490+261358783+261575458
2508+261726753+261709511+261505433+261180507+260898503+260817250+260948999
2498+261180143+261407112+261589736+261700431+261701765+261565615+261272365
2488+260846674+260423201+260167051+260093700+260078312+260038075+259986870
2478+259934711+259838971+259640196+259311059+258893356+258468860+258082245
2468+257765324+257620631+257728848+257961794+258062005+257937916+257718398
2458+257524753+257365955+257223064+257072150+256877551+256668570+256532507
2448+256484594+256424516+256214477+255785511+255255138+254895815+254853516
2438+254973966+255027303+254999664+255039936+255181977+255249350+255085752
2428+254791272+254587680+254518088+254461130+254358199+254246413+254142424
2418+254033861+253948224+253973004+254189904+254549990+254845891+254877810
2408+254637984+254326903+254190546+254286649+254440509+254516286+254615492
2398+254891968+255358502+256041556+257186691+259242144+262797982+268553151
2388+277172111+289128570+304733731+324182383+347344979+373540751+401756712
2378+431129349+460953497+490215578+517658550+542499929+564404720+582755128
2368+596958935+607298006+614527378+618833920+619661112+616557028+609740281
2358+599314707+584409789+563789871+537836004+510808499+489656250+479410024
2348+481294427+493425332+510702033+526069343+535571345+540232220+542448983
2338+543627458+544348115+544961370+545482195+545391740+544379306+542920179
2328+541414196+539219232+535042930+528192359+519373273+510049165+500976563
2318+491823973+482200845+472431014+463117269+454263457+445072189+434687787
2308+423018374+410717164+398605251+387257108+376816180+367022297+357601324
2298+348604412+340198992+332334600+324848732+317716296+311023414+304844495
2288+299222408+294156844+289614842+285618773+282249320+279493555+277156983
2278+274985291+272871304+270924068+269306714+268012260+266867038+265744880
2268+264669873+263708299+262869635+262115846+261397165+260708445+260136206
2258+259767543+259533626+259242975+258779248+258172058+257489663+256775435
2248+256094668+255544472+255189619+255013752+254908430+254707315+254318707
2238+253845276+253482920+253292930+253161979+252974450+252739944+252554373
2228+252479514+252452170+252350261+252194651+252167411+252320820+252418345
2218+252225098+251820252+251460305+251267630+251209666+251270437+251484981
2208+251841203+252229551+252494157+252544063+252425155+252254712+252098236
2198+251952382+251813477+251706162+251667918+251731842+251885321+252046545
2188+252143827+252213037+252333626+252467974+252483812+252359393+252221528
2178+252143706+252063752+251926476+251755894+251596091+251500906+251522220
2168+251626797+251713301+251736833+251713613+251638303+251499485+251331433
2158+251184852+251085629+251033297+251003838+250961852+250887998+250789780
2148+250679016+250561148+250493688+250635972+251127339+251897797+252728559
2138+253521233+254393237+255504166+256903076+258567979+260502565+262717110
2128+265147082+267702253+270396156+273319037+276493874+279853173+283303498
2118+286737812+290033498+293032607+295483235+297088406+297685580+297342061
2108+296281939+294727297+292757985+290351198+287575765+284639576+281723175
2098+278875067+276088353+273412351+270955467+268760313+266730663+264770517
2088+262955169+261471452+260408090+259649588+258983551+258319004+257749590
2078+257385224+257224554+257187211+257155396+257047960+256936486+256950626
2068+257054648+257102440+257050628+256947940+256833294+256761572+256798430
2058+256924494+257024999+257000237+256899021+256925257+257218870+257659360
2048+258007212+258182854+258308641+258536978+258884709+259221124+259430747
2038+259525551+259554749+259535740+259517892+259573187+259721033+259952802
2028+260266239+260622340+260941651+261169053+261343118+261611293+262070862
2018+262563094+262808812+262772214+262675556+262685260+262790617+262914065
2008+263003238+263075896+263204629+263409643+263625919+263793867+263877841
1998+263861292+263888394+264261043+265043198+265812392+266092559+265905498
1988+265607084+265410267+265340035+265409903+265619925+265915739+266225538
1978+266449785+266483073+266347842+266211571+266233405+266489017+266973244
1968+267534150+267915186+268014339+267993614+268045756+268191713+268349125
1958+268486176+268664417+268970975+269414723+269898794+270330117+270735725
1948+271261297+272081610+273206332+274246180+274579528+274056849+273279718
1938+272896343+272982812+273235721+273442086+273617399+273841560+274105316
1928+274379228+274787105+275481908+276330414+277050101+277642111+278214730
1918+278498450+278158534+277484959+277148197+277450545+278133131+278700950
1908+278862556+278737375+278628604+278656035+278724517+278785842+278979887
1898+279459400+280103708+280580553+280860616+281362587+282240500+282926760
1888+282872937+282340329+281903028+281744801+281804359+282077803+282528759
1878+283014806+283425716+283818206+284517497+286018039+288397239+290685742
1868+291404250+290313526+288711976+287770035+287647661+287945260+288301274
1858+288585582+288863444+289253751+289774749+290407117+291229544+292387433
1848+294060567+296307169+298479675+299202966+298095156+296565502+295907055
1838+296114650+296528142+296909992+297770767+299608903+301930364+303439710
1828+303657979+303339828+302936594+302204951+301263634+300728877+300868371
1818+301403787+302033296+302824098+304026071+305535866+306725432+307086626
1808+306902910+306936631+307741470+309409162+311519667+313242014+313980346
1798+314102581+314678198+316490480+319224290+321247909+321082284+319521785
1788+318527373+318895083+320086936+321438730+322849719+324228546+325219874
1778+325968013+327404891+330332433+334331222+337482267+338114514+336815121
1768+335066470+333767943+333676830+335212133+337533768+339179003+340052393
1758+341036823+342173052+343257780+345094529+348428494+352312915+354744689
1748+355186808+354902448+355096561+356211649+358132892+360173840+361540295
1738+362751867+365482524+370025635+373470397+372958237+370226576+367861862
1728+366550339+366391160+367261985+368621543+370473160+373873978+379460783
1718+385508561+388291895+386613910+383244214+380789877+380150699+381379669
1708+384147131+387538834+390486166+393273244+397242401+402229849+405726459
1698+406539788+405829632+403892482+401341626+400173894+401298651+403967514
1688+407666070+413081774+419864764+424129857+423193599+420356823+419138250
1678+420495105+423859255+427633086+430570506+433321575+436659248+439238696
1668+439481884+438899820+439974567+442911675+445835405+447376426+448541559
1658+451256065+456829735+465735741+475773609+480619448+480015204+480607492
1648+484452300+488620457+489884812+489543095+490492279+493775471+499519966
1638+507686046+516957752+523713155+526065462+527368979+531243211+538505438
1628+547904127+557874552+568074753+578590609+588677100+598054857+608137120
1618+620076026+632106841+640891964+646727918+652229641+658201173+663820244
1608+668330916+671833625+674994756+678330418+681763883+684883979+687476251
1598+689796672+692482240+695948144+699880876+703763010+707549144+711384144
1588+715296429+719335905+723313484+726613658+728964301+731180544+734638199
1578+739917979+745664864+749667535+752770303+757902582+765752729+774075320
1568+780457815+785527018+791327900+798926230+809093749+823471672+842227532
1558+857937808+864055107+865537108+866580213+867244171+867121346+866598581
1548+866368667+866746982+867248815+867374481+867276471+865824899+860446971
1538+853105935+848286816+846299655+844563827+841238561+837484797+835259959
1528+834745857+835134431+836279705+838397037+840360908+840486644+839434043
1518+838727110+837858052+836146969+834594753+834324775+835436085+837685322
1508+840244045+840515894+837113205+833218525+831487410+831934970+833503821
1498+834615478+833865363+831749486+830406599+831001173+832749963+833815665
1488+832960955+830493172+827555648+825260734+824181516+824175694+824884983
1478+826319781+828639995+831410472+833255123+832781709+830471061+828247609
1468+827149053+826947072+826840190+826290738+825994283+827270075+830294587
1458+832998731+832300532+828701407+825409897+823489209+822410268+821610940
1448+820682688+819496519+818454038+817985684+818044046+818519193+819549059
1438+820740427+820617464+818479338+816027497+814968519+815124960+815169806
1428+814446793+813777221+814121641+815451290+817272167+819204015+820245941
1418+818941662+815635319+812135728+809330733+807196558+805881673+805892624
1408+807267466+808792857+808738168+807115391+806065701+806973852+808901333
1398+810362609+811190772+811632579+811304932+810344588+809792086+809874639
1388+809336001+807452950+805983633+807211599+811103783+815856222+820106620
1378+823736867+827048132+829990576+832199195+833538409+834375097+835232510
1368+836545524+838575313+841016549+842949852+843835129+844311871+845193682
1358+846258067+846662860+845945253+844557935+843671895+844134011+845415002
1348+846012903+845268680+844353736+844988028+847482358+850378363+851957958
1338+852041827+851882544+852327539+853041265+853577200+854314076+855978026
1328+858808044+862457837+866286460+869710776+872624386+875315291+877809482
1318+879801772+881399597+883331514+886281375+890315584+894857517+899107291
1308+902629963+905564645+908221586+910584843+912355467+913389839+913952945
1298+914509397+915386565+916672546+918227187+919682156+920466789+920051252
1288+918520732+916680032+915018300+912954132+909865434+906340822+903600150
1278+902322764+902478859+903546917+904820976+906081865+907602127+909202100
1268+910177693+910344879+910359296+911143721+913447023+917335256+921645264
1258+924640804+925779631+926421478+928335651+931415615+933366108+932405556
1248+929590302+927395755+926985139+927666841+928310352+928528483+928474279
1238+928165416+927453008+926336084+924904682+923212660+921427688+919876165
1228+918890799+918692908+919160638+919745647+919994484+919933142+919635993
1218+918952766+918045793+917632613+918163557+919181987+920081889+921152928
1208+923037573+925352450+926970029+927745305+928811283+930953638+933602192
1198+935555874+936292750+936560648+937656501+939965001+942481997+944168335
1188+945393112+947279282+950099804+953354577+956811886+960107693+962159524
1178+962738295+963580459+966162887+969419047+970966965+969999620+968047394
1168+967146036+968083021+970567301+974608302+979821055+983754828+984197882
1158+982558678+982278788+984487407+987181985+988229942+987747794+987175123
1148+987242565+987954419+989421517+991418936+992871964+993070826+993033673
1138+994593514+998319136+1002634898+1004887600+1003957962+1001979951+1002445255
1128+1006352480+1010947161+1013247343+1013921144+1015589807+1018524558
1120+1020440949+1020128135+1019110676+1019595389+1022032119+1024830738
1111+1026614115+1028082531+1030166453+1031653999+1031255236+1030587813
1103+1031883983+1034410128+1036293318+1038118839+1041675613+1046039963
1094+1047637094+1045602177+1043667556+1044778103+1047090485+1047334678
1085+1046188434+1046908675+1049878637+1052476661+1053486981+1053858573
1077+1054797915+1057189314+1060777695+1063512822+1063662540+1062237100
1068+1060572595+1057142596+1050742358+1044391609+1042026549+1043977666
1060+1047756592+1051459895+1054587131+1056960855+1058725796+1060816788
1051+1064001832+1067374023+1068792602+1067051090+1063363451+1060656743
1043+1061022443+1063275907+1063939449+1061704977+1059284188+1059499963
1034+1061550823+1062810257+1062916376+1063643687+1065468653+1067283568
1025+1069129329+1071869516+1073741823+1071329837+1065446750+1060648286
1017+1058637420+1057294879+1055839218+1056712712+1061126552+1066042087
1008+1067684827+1066205183+1064106704+1062000393+1058955294+1055455427
1000+1053610706+1055223433+1060493993+1066914472+1069723072+1066814452
991+1061405402+1057490691+1055990461+1056028029+1056955588+1057792969
983+1056777659+1053028608+1048066009+1044814355+1044551031+1045199532
974+1043341018+1037850455+1031132828+1026867458+1026592351+1028448369
965+1029484266+1028769501+1027266567+1025578080+1023639647+1021715077
957+1020069011+1018285286+1015769261+1012251857+1007878149+1003446772+999488254
947+995386811+991069248+988003147+986897590+986461952+985592755+984708241
937+984094813+983453728+983314892+984198575+984975376+984488169+983789207
927+984495586+986277369+987586570+987420078+985454405+982181956+979512262
917+979558148+982318782+985517966+986993936+986305233+983835994+980081953
907+976433407+974814927+975334782+975543624+973561940+970770252+969702125
897+970747448+972092693+971974304+970399908+968707609+967891299+968108113
887+969472765+971862986+973729194+972969514+969752794+966789416+966172869
877+967143957+967377198+965888335+963709729+961821480+959781502+956922234
867+953926209+952064438+951444910+951190389+950831274+950846731+952038514
857+954432409+956853197+958121226+958985848+961324360+965175788+967829679
847+966563591+961802211+956541839+953248943+952309532+953280342+955746878
837+958166141+958311077+956167336+954128606+953194878+951913056+949946135
827+949062244+949818320+950961307+952299828+954794297+958102719+960621448
817+961544155+961702121+962546295+964282054+965588968+965600821+965100305
807+965316495+966694733+968987221+971673205+973870456+974397796+972395179
797+968282576+964595007+963984420+965950163+967304695+966008803+963053396
787+960343776+958788580+958580916+959418782+960443866+961124667+961776842
777+962929532+965165599+968672813+972117438+972770652+969386262+964557508
767+961735600+961118983+960814279+960249302+959689037+958481104+956687676
757+956066415+957295559+958939269+960562393+963613036+967997141+971236111
747+972246431+972857710+974334027+975054130+972816746+968163772+964266251
737+963856744+966933104+971155361+973561385+972530202+969541317+968052038
727+969133751+969426810+965924655+961090773+959226367+961061175+964329396
717+967315231+969344257+969170765+966723706+964960499+966888673+971438092
707+974673527+975405343+975695214+975442842+972224112+966981623+963510244
697+962397132+961228014+959614941+958843061+958029177+955057204+949777425
687+944340511+941587917+942534260+945374813+947600414+948222090+946826454
677+942796266+937609576+934764725+934765626+933193309+926640233+920189672
667+922839197+931474255+936832220+936358390+932719826+929131929+926627479
657+924341784+921140798+917121076+913478353+910905143+909198011+909106378
647+913125406+920938678+926381484+924685719+918408929+911411412+904229867
637+897821379+895230703+897067937+899703252+900169250+899369714+899054266
627+897927291+892241610+881432521+871166021+867237239+869370860+874112833
617+880132885+886229459+889293758+888627998+888445980+892998379+899439859
607+900132791+891640589+877520929+864624798+858420163+860067755
##END=
