##TITLE=<SNM>
##JCAMP-DX=4.24
##DATA TYPE=INFRARED SPECTRUM
##DATE=2/5/2025
##SAMPLING PROCEDURE=Instrument type and / or accessory
##ORIGIN=Admin
##XUNITS=1/CM
##YUNITS=ABSORBANCE
##RESOLUTION=4
##FIRSTX=4497.3318
##LASTX=599.83466
##DELTAX=-1.4281778
##MAXY=1.859271
##MINY=0.39429617
##XFACTOR=1
##YFACTOR=1.7315811e-09
##NPOINTS=2730
##FIRSTY=0.41403264
##XYDATA=(X++(Y..Y))
4497+239106697+238633032+238957254+239847856+240617500+240874685+240884770
4487+241165775+241833529+242542401+242935931+242827570+242026396+240486989
4477+238789549+238005672+238632533+239906236+240641286+240526006+240148137
4467+240052823+240263572+240548518+240789817+241026951+241152763+240782210
4457+239809631+238928649+238967873+239668001+239811369+238829221+237646787
4447+237484384+238406775+239525166+240174298+240400331+240441586+240258994
4437+239843278+239537696+239555957+239585371+239311818+238905965+238693993
4427+238821768+239309340+239847701+239741905+238733957+237499719+236823256
4417+236776769+236971564+237115362+237172330+237355783+237960200+238929458
4407+239658862+239509298+238603033+237808296+237741465+238146630+238490352
4397+238646233+238626233+238237161+237385506+236301297+235353914+234913931
4387+235164524+235836788+236410122+236619098+236483682+235941689+234848237
4377+233466740+232591490+232780192+233677679+234348755+234180087+233385040
4367+232682863+232570320+232960684+233433678+233666010+233531643+232974091
4357+232079169+231253004+231117519+232039291+233682085+235197741+235941000
4347+235832175+235110172+234121690+233312960+232968395+232957638+233000356
4337+232933319+232608185+231881190+230847340+229868634+229269500+229215715
4327+229835124+231098862+232576826+233654806+234040436+233810807+233129438
4317+232327283+231968295+232266907+232664585+232473439+231741299+231084456
4307+230900298+231112235+231514061+232010772+232573814+233174118+233716886
4297+233952884+233593792+232650748+231536522+230723076+230415274+230561740
4287+230979417+231385598+231469674+231157586+230757567+230590689+230571223
4277+230479230+230420609+230605662+230981603+231456817+232078188+232748179
4267+233213618+233407466+233403438+233089819+232320295+231361606+230733127
4257+230555974+230513893+230519710+230890161+231686120+232441823+232726648
4247+232506846+231945456+231320316+230964753+230913654+230947973+231104765
4237+231547347+231982133+231988019+231789748+231913874+232311604+232494144
4227+232287732+231905113+231475164+231004459+230758462+231173937+232205825
4217+233137424+233331186+232899378+232424612+232291897+232372084+232152178
4207+231381054+230697552+231031653+232247183+233184462+233172414+232591937
4197+232001426+231684915+231893307+232589855+233170934+233163551+232814907
4187+232482355+232043387+231295808+230337893+229344368+228490184+228132108
4177+228627889+229964361+231743708+233382957+234300168+234284782+233802235
4167+233583087+233775662+233776866+233017171+231688013+230526009+230031467
4157+230116714+230429490+230773040+231124059+231413153+231568844+231742056
4147+232117618+232480875+232451048+232164122+232045194+231983561+231583594
4137+231062220+230993720+231423135+231943821+232250419+232247235+232051046
4127+231890845+231598688+230622873+229040472+227939878+228209127+229488459
4117+230765226+231461000+231492823+230897699+229997820+229469062+229660913
4107+230154234+230382487+230345603+230326929+230273386+229955067+229485481
4097+229142930+228851822+228401306+228015331+228102884+228618251+229204580
4087+229704354+230091465+230303402+230480865+230884051+231359661+231421397
4077+231070653+230934531+231227136+231187740+230132531+228595739+227708751
4067+227824942+228398862+228831857+228876520+228570749+228291895+228563795
4057+229431198+230279616+230498678+230104907+229560969+229238916+229300256
4047+229882970+230972705+232086346+232545691+232174105+231340712+230386634
4037+229446602+228747730+228611057+229074309+229835726+230655075+231522030
4027+232347661+232886264+233112916+233171778+232835405+231772072+230448543
4017+229858686+230243490+230915805+231290421+231341830+231235346+231139187
4007+231221439+231521359+232022699+232779039+233655873+234238776+234332491
3997+234184372+233958667+233494760+232878346+232678199+233229452+234141568
3987+234794831+234936564+234679173+234336483+234239568+234408856+234591276
3977+234666419+234668829+234595699+234515220+234473260+234221169+233645047
3967+233312805+233868618+235114251+236201868+236514214+236148118+235703454
3957+235650151+235918230+236241695+236752054+237804854+239091741+239479230
3947+238522107+237588752+238165356+239593856+239778358+238046979+235827717
3937+234748344+235555611+238175872+241547826+243691427+243311321+241453853
3927+240314740+240751626+241718542+242048203+242156856+243120915+244740664
3917+245349608+243662616+240478349+237771481+236654708+237085501+239101103
3907+243327310+249803655+256680587+261025102+261449871+258525628+253286327
3897+247638333+244469607+245405269+248963016+251303081+250547551+249655864
3887+251701259+255356954+257235557+257424706+257897769+257284694+253784845
3878+250262329+250367093+253785809+258013909+261647626+263675070+262858767
3868+260590816+259680919+260103692+259366766+256626578+254060188+254078655
3858+257789322+265243357+274117097+277265463+270562362+260841116+254212282
3848+251842493+253115611+256930560+261904191+266880696+271237758+274079457
3838+273917105+270725317+266720427+263652179+261598798+260268591+259922184
3828+260535930+261529868+263467831+267899986+273736028+276548037+275362936
3818+273402736+270766950+265530885+259481615+256232480+257386274+262382830
3808+268415112+272152078+274334507+278082247+282643742+283998699+282157221
3798+280215006+278212913+274865193+271238292+269374456+269922611+272537296
3788+276791677+281897816+286801880+291727165+298257621+306587457+314221245
3778+319444487+324271429+331660647+342589593+356017135+369308778+379510041
3768+385993373+390060963+392649779+394890417+398246743+402411472+405125550
3758+405465744+405923695+409901650+418736424+429977991+437850324+440679613
3748+443927544+451064518+459175877+462711749+462925200+466119674+475746500
3738+491702517+510293063+524768448+530642991+530614765+531396422+537410409
3728+548485511+560920801+570763558+577303067+581478226+583253855+583319532
3718+584098780+587423472+592862300+597908992+599313895+596400340+591451545
3708+585856647+580465872+576930035+575668775+574651499+572181163+569784559
3698+570075839+573753530+579831817+587049786+593926631+597632858+595446849
3688+589558674+585257634+584493119+586222760+589127021+592427274+596235528
3678+601145770+605657198+606452831+605079320+605290741+605101488+599559256
3668+590004578+582211141+578334318+576655381+574954516+573336540+573396159
3658+574852145+575291474+574645647+576478038+583196921+592555324+597475274
3648+592865398+582586617+573450822+568485194+566980948+567040671+567705017
3638+568945073+570576129+572350623+574829048+578987994+583778379+584276948
3628+577629354+570132360+568413837+572876764+579916771+585006008+585996332
3618+585049242+585762124+588408150+590153901+589513512+588513069+589429591
3608+591456433+592225904+591481974+591354957+593411264+596711654+599505489
3598+601989249+605004487+607171702+606875740+605960595+607727412+612650941
3588+617454200+618348142+615442642+611616764+608718217+606603806+604566225
3578+603013513+602758996+603332330+603892447+605359310+609711364+616875909
3568+623014539+623755715+619564550+614296937+610335230+608011394+607055286
3558+607109260+607747996+608373721+607973461+605841081+603023426+601584032
3548+601897480+602097541+600661933+598399369+597115769+597340064+598027955
3538+597924275+596670967+594757718+593223181+593376497+595480858+597689999
3528+597690274+595210162+591511784+587417069+583508510+580755018+579594236
3518+579661841+580837699+583218607+585988759+587755438+587959975+586779641
3508+584357634+581259508+578513657+576700508+576035577+576612422+577555002
3498+577058085+574116992+569688246+565767776+563897658+564398328+566334157
3488+568374665+569670656+569730516+568272982+565865225+564013351+564011768
3478+565813248+567957538+568682949+567383893+564810050+561995080+559581231
3468+557981189+557429506+557635178+557766980+557282971+556631051+556443348
3458+556232650+555016621+552968162+551229261+550635996+551274802+552358030
3448+552420472+550821256+548788700+547850251+547969627+547851903+546415022
3438+543718361+540982458+539592494+539550258+539417664+538279704+536960030
3428+536646239+537078236+537005640+535952392+534569416+533548078+533034397
3418+532941389+532988168+532523608+531043664+528813801+526601838+524930266
3408+523993710+523974296+524726453+525392865+525054186+523726663+522357490
3398+522044766+523123554+524455482+524094188+521474254+518354511+516839526
3388+517187120+518123917+518744169+519280775+519985946+520102258+518697733
3378+516255624+514443128+514218834+515013537+515834848+516317170+516416891
3368+515932710+514901493+514020322+514101902+515242857+516781042+517848885
3358+517913701+517072219+515899699+515009922+514791136+515300824+516084546
3348+516375688+515891541+515127715+514737334+514856813+514967824+514323993
3338+512750147+510928116+509702965+509361601+509658389+510276678+510979440
3328+511327585+510699898+508998861+507068780+505971404+506023209+506771511
3318+507527799+507645763+506733509+505092401+503574284+502645748+502026701
3308+501469579+501372062+502146834+503488435+504618891+504846455+503933995
3298+502350991+500980476+500281811+500068153+500222364+500985261+502331440
3288+503598517+504071442+503723985+503139429+502828323+502818925+502802850
3278+502547094+502284591+502630878+503845668+505287024+506010404+505836091
3268+505298624+504580097+503216879+501221844+499715980+499566313+500073557
3258+499963819+499007126+497649897+496047274+494649220+494590737+496252223
3248+498188156+498452242+496673549+494130376+492132518+491034763+490549274
3238+490277580+489927508+489550414+489544183+490076314+490743036+491009566
3228+490583317+489358476+487632655+486237907+485684537+485471912+485071411
3218+485035027+485965077+487008135+486801603+485451396+484218190+483709535
3208+483420080+482539391+480622975+478002456+475662132+474263631+473580731
3198+473147288+472821655+472445973+471729477+470809615+470295349+470447770
3188+470734781+470422848+469367398+468000944+466706226+465537183+464493918
3178+463657943+462950776+462064373+460798294+459348504+458070102+457099365
3168+456406999+455923334+455434265+454678975+453693643+452781044+452098282
3158+451510215+450842392+450103522+449426921+448780887+447850837+446448309
3148+444899349+443722939+443093118+442803938+442552760+442070954+441187098
3138+440033063+439094338+438779893+438892935+438735419+437899134+436743585
3128+435895493+435592200+435704898+436017933+436168357+435669684+434345707
3118+432475521+430461140+428726748+427790743+427869535+428457327+428735526
3108+428370239+427646824+426922273+426164678+425136318+424013916+423438207
3098+423699057+424273356+424412042+423842150+422794927+421724710+421043531
3088+420844502+420882573+420843194+420505169+419802373+418901409+418069772
3078+417479536+417246154+417371864+417455510+416860455+415476377+414013128
3068+413243829+413170957+413193469+412934512+412510948+412004117+411220120
3058+410154205+409204706+408702660+408581115+408610512+408596227+408294758
3048+407539709+406559368+405828759+405479410+405159835+404572181+403786669
3038+402926805+401945810+400867779+399908848+399200372+398618088+397974257
3028+397221791+396413147+395556140+394609636+393668467+393012519+392778862
3018+392724475+392590642+392500009+392618490+392667885+392194719+391159819
3008+389973049+389105474+388759498+388634408+388078698+386835819+385478349
2998+384739135+384643063+384629810+384287724+383643239+382885746+382090527
2988+381243847+380402123+379676609+379073706+378512592+378035433+377786733
2978+377698165+377421618+376714140+375719962+374784472+374150349+373844336
2968+373675324+373352651+372760040+372036591+371352831+370788962+370382334
2958+370067923+369654341+369043453+368359417+367788423+367438867+367319835
2948+367288132+367080533+366515701+365643823+364738109+364138890+363913425
2938+363659080+362922757+361820562+360906276+360462576+360277901+360071334
2928+359760709+359344581+358862327+358406338+357902708+357098746+356026188
2918+355114381+354603729+354292622+353990706+353716913+353425908+353012292
2908+352525977+352057424+351582674+351136426+350893957+350915195+351001801
2898+350919429+350634724+350249059+349764465+349024872+347926222+346636873
2888+345535229+344932429+344876700+345178134+345560839+345764927+345603144
2878+345061409+344353209+343788273+343506287+343315141+342870133+342123242
2868+341481752+341299728+341356628+341162625+340641130+340117639+339740683
2858+339333917+338762579+338101571+337479908+336994729+336704757+336551407
2848+336360605+336001135+335499743+335015975+334725969+334666832+334689619
2838+334577575+334153736+333375762+332490805+331917505+331768973+331667979
2828+331191164+330342591+329508681+329065325+329025774+329040885+328812529
2818+328417639+328112246+327969050+327827575+327480153+326858111+326086643
2808+325310459+324524087+323731277+323156050+323041803+323292912+323517550
2798+323436177+323151368+322955438+322892721+322626741+321829525+320623995
2788+319503384+318824959+318524764+318338815+318108119+317776427+317298683
2778+316727035+316244059+315948098+315718262+315404435+315016395+314629663
2768+314252500+313874821+313512735+313117707+312567780+311860853+311231789
2758+310936138+310923471+310834903+310369550+309581147+308748786+308031326
2748+307358443+306640949+305969684+305528634+305342686+305189094+304793722
2738+304102389+303344793+302827016+302633908+302531433+302209311+301606133
2728+300908191+300278989+299756118+299381984+299213350+299139480+298890402
2718+298376583+297867963+297626939+297475172+296984279+296062455+295114058
2708+294584061+294491224+294465614+294185969+293689258+293212375+292860581
2698+292560902+292229899+291849294+291435885+291013732+290596192+290210424
2688+289926648+289777153+289670754+289506217+289334451+289275554+289300510
2678+289216624+288902453+288474311+288129540+287891270+287619834+287227887
2668+286789797+286452530+286262072+286083336+285731679+285182182+284580639
2658+284072948+283710225+283474709+283317538+283217782+283217886+283313682
2648+283331599+283049510+282463095+281840227+281460603+281334292+281239114
2638+281003048+280655935+280321077+280074495+279930851+279837826+279659485
2628+279300961+278866021+278539751+278324665+278086515+277844941+277779849
2618+277913235+277996209+277786820+277324841+276875271+276647982+276603508
2608+276550877+276411209+276292884+276287256+276320955+276293038+276242335
2598+276232542+276153749+275835414+275342059+274967530+274910045+275081863
2588+275249257+275247984+275060160+274798586+274626648+274590745+274543863
2578+274336762+274031111+273800466+273706752+273708559+273789675+273941872
2568+274102657+274205063+274234184+274214254+274206130+274306574+274568698
2558+274899546+275093377+275025101+274773923+274485087+274187783+273863114
2548+273586567+273432081+273300726+273010548+272555574+272138275+271896184
2538+271724005+271483739+271253696+271182356+271218499+271185333+271007664
2528+270720652+270404950+270198779+270188866+270232255+270081847+269714753
2518+269338640+269086051+268931616+268896936+269056895+269305853+269397588
2508+269284683+269177923+269213688+269275338+269192449+268949825+268651007
2498+268408314+268320692+268453992+268750143+268992302+268950427+268592093
2488+268121647+267779956+267604334+267427749+267128087+266787429+266547438
2478+266430076+266390250+266397840+266374691+266211427+265930543+265679675
2468+265537391+265490491+265563535+265747882+265826227+265511833+264805422
2458+264058446+263641663+263611630+263712900+263694243+263558155+263422377
2448+263276513+263083853+262981792+263099618+263280610+263237651+262907578
2438+262484255+262186968+262113873+262234092+262416632+262504392+262433155
2428+262269667+262087936+261855053+261523792+261182480+260992074+261003192
2418+261142395+261350391+261634580+261987182+262320698+262501517+262434549
2408+262155248+261862729+261775332+261900094+262034909+262035580+261966512
2398+261997371+262323779+263210492+264972215+267900640+272312072+278693050
2388+287753358+300261262+316729514+337188938+361233080+388238278+417494544
2378+448179809+479332869+509843407+538506030+564360498+586979633+606102758
2368+621183283+631810967+638330167+641476484+641590558+638647814+632480201
2358+622480239+607781317+587501266+561430489+533152775+510127424+498333520
2348+499586243+512292229+531256599+548571394+559239385+564014521+565346278
2338+564847570+563888158+563641145+564245666+564802994+564467757+563052493
2328+560595616+557077231+552422916+546316747+538539660+529610087+520323145
2318+510907325+501257333+491535708+482011597+472553473+462634781+451785420
2308+439928214+427391446+414726974+402513430+391217683+381034629+371746516
2298+362884617+354172627+345718630+337723582+330213852+323143245+316540364
2288+310462628+304962356+300124400+295997948+292498667+289483498+286878641
2278+284648416+282716321+280996680+279430337+277955402+276538761+275235041
2268+274103380+273089340+272093078+271117901+270246953+269496534+268776045
2258+268001032+267205813+266515994+266003759+265598352+265167870+264674894
2248+264203311+263825322+263509585+263200510+262900968+262599483+262214076
2238+261726074+261276779+261008511+260902405+260873111+260904315+260978168
2228+260982333+260810584+260495449+260163500+259903148+259722346+259593195
2218+259492751+259412393+259362808+259363203+259388452+259351707+259216514
2208+259090219+259086674+259143780+259129374+259056210+259011909+258967676
2198+258842122+258677085+258602045+258679460+258871432+259103764+259306183
2188+259421119+259419501+259318558+259166946+259011909+258904477+258901087
2178+258997882+259106019+259147893+259122025+259052544+258959725+258881759
2168+258854979+258886492+258964045+259036848+258999482+258765171+258365651
2158+257961020+257746019+257789116+257944308+257992791+257879990+257737947
2148+257679739+257683973+257712802+257830594+258104938+258467472+258809696
2138+259168874+259682623+260392579+261209570+262046991+262907698+263848144
2128+264896624+266044170+267333105+268890860+270804160+273002355+275307895
2118+277550839+279599298+281321779+282583968+283325007+283618507+283585858
2108+283234684+282453044+281179323+279514981+277657065+275786328+274038013
2098+272489019+271109794+269813355+268619270+267657086+266939954+266294298
2088+265611588+265000492+264580199+264288024+264006417+263739938+263549704
2078+263422394+263312691+263236911+263229940+263253433+263237599+263221335
2068+263357750+263700301+264068514+264265822+264331000+264402202+264491217
2058+264565018+264648819+264713016+264682862+264629457+264734151+265055602
2048+265483211+265873970+266165956+266401781+266634389+266825793+266931055
2038+267016784+267166554+267347012+267467214+267510947+267569034+267758081
2028+268096639+268489946+268846404+269142296+269423094+269835678+270509197
2018+271270425+271685245+271541895+271102015+270784092+270791717+271053359
2008+271354019+271505149+271469815+271357048+271312850+271409180+271601049
1998+271836840+272260628+273138030+274390202+275376378+275479851+274812338
1988+273986018+273423096+273200179+273257268+273448844+273574003+273564227
1978+273553246+273697905+273985726+274246473+274419909+274793715+275690135
1968+276825720+277409502+277129719+276550223+276291369+276398611+276673540
1958+277074730+277560890+277934662+278071353+278106721+278289657+278753994
1948+279550676+280865686+282840224+284875309+285632716+284514583+282599493
1938+281338629+281120771+281458607+281847215+282131524+282369261+282601438
1928+282879035+283496033+284722888+286188994+287266302+288101554+289122066
1918+289706519+288874847+287152899+286095814+286379021+287374078+288071022
1908+288013830+287513281+287110715+286967656+286922443+286962527+287329346
1898+288162568+289176419+289870953+290299784+291205463+292773734+293851386
1888+293394467+292043194+291057689+290755050+290781693+290926025+291137824
1878+291348246+291568651+291993282+293150036+295837472+300187048+304437006
1868+305707525+303346342+299784068+297385399+296619198+296804699+297221275
1858+297487908+297582363+297749757+298210497+299022101+300234929+302049627
1848+304885147+308943753+312937163+314006554+311257090+307528351+305551283
1838+305479066+305991817+306460577+307850094+311198744+315431181+317805135
1828+317572270+316666108+315944277+314416143+312058677+310354267+310097444
1818+310663859+311254439+311981055+313483166+315722668+317585832+318059790
1808+317479847+317059690+317805789+320093241+323378623+326139516+327059171
1798+326655709+326979621+329660551+334172221+337252447+335885374+331762433
1788+328891527+328815764+330381798+332162246+333902661+335516025+336475472
1778+337139026+339232544+344181614+351123070+356295850+356430716+352844485
1768+348624267+345528689+344788166+346900581+350172711+351961317+352198348
1758+352578023+353369112+354438021+357193819+362804930+369509287+373438534
1748+373194722+371103064+369744527+370135115+372071323+374410683+375802575
1738+376972444+380704040+387630935+392762202+390974800+385324070+380282300
1728+376904116+375390955+375768118+377322998+380047817+385600445+395046452
1718+405440650+409979995+406230121+399196173+393628709+391286114+392578835
1708+397126097+403067385+407910952+411907357+417827991+425864792+431432221
1698+431762054+428695355+423019049+416332799+412465167+412996093+416616609
1688+422424545+431504508+442899150+448933721+444706482+437174515+433005380
1678+433696231+438003571+442961006+446473850+449915715+454412651+456834590
1668+454252210+450391910+450315872+454104883+457672217+458040224+457339080
1658+459744565+467995471+482702242+498878801+504151405+499690852+498545939
1648+503309062+507469453+505102969+499888297+497833470+500670367+508207945
1638+519915346+532870927+540008175+538555907+535637293+537396124+544407422
1628+554241194+564725131+575692801+586986449+597008648+605701121+615964619
1618+629552946+642859976+650119527+652754469+656086252+661892777+668861943
1608+675258738+680294002+684047387+686813340+688708827+689969983+691275131
1598+693379698+696560162+700391960+704054884+707149705+709989734+712920913
1588+715897529+718714702+721143112+723111367+725176280+728523691+734265364
1578+742303061+749717442+752545836+752862175+756556698+765366138+775689874
1568+783254818+788866720+795569734+804690694+817672022+837523380+863085433
1558+879540983+878724904+872993970+869594237+868557719+868915434+869569109
1548+869791889+870371764+872645343+877217767+883666333+887980798+882757452
1538+870190979+860094566+855131795+851882625+847138985+842263440+840405060
1528+841906208+844762002+847929867+852046887+855869667+856076338+852906476
1518+849670593+846959233+843646726+840468122+839731213+843467800+852193732
1508+862471549+864846261+855208075+843976972+838453947+838267861+840820604
1498+842659570+840585914+835342947+831634518+832746145+837722753+841937325
1488+841128613+836122677+830824772+827806988+827019272+826965918+827166599
1478+829012380+833731718+840401618+845598253+844928605+838118332+830711317
1468+827487551+828728398+831158185+831495315+830849350+832907447+839018745
1458+845665995+845622692+837944018+829508334+824365398+822999805+824421644
1448+826028398+825287635+822585225+820055339+818782341+819079197+821508846
1438+825629033+828501350+827606789+824850268+823020320+822086793+820782196
1428+819292890+818813252+819271410+819817000+821087313+824523464+828882953
1418+829939574+826196447+820571395+815642289+812265206+810668297+810809083
1408+812258322+813916021+814222722+812923839+811933653+812859676+815005756
1398+816683833+817252417+816721697+814991436+812900500+811989898+812350711
1388+812067004+809672259+806835947+806558850+809661244+814722737+820181048
1378+825518882+830730731+835222677+837719931+837893900+837257780+837486205
1368+839146657+842334625+846965498+851750375+854255891+853408557+850815816
1358+848636071+847691322+847454016+846939888+845877760+844969843+844877454
1348+845460013+846293854+847592944+850196631+854355026+858583643+860475894
1338+859429256+857567503+857040569+857900158+859044004+859999561+861227948
1328+863223052+865776896+868025210+869318585+870170050+871810125+874655111
1318+877989648+881257131+884602132+888050055+891350170+894687186+898508520
1308+902695417+906728653+910341527+913368193+915613133+917265393+918706371
1298+919846499+920342591+920342797+920348649+920515321+920556558+920038712
1288+918580868+916176141+913393114+910948320+909057996+907388112+905702944
1278+904474213+904538100+906003999+907878558+909033488+909230795+909042231
1268+909132210+909804267+910976890+912539171+914726213+917544281+919831491
1258+920124768+918862303+918490200+920772867+924823796+928235508+929763780
1248+930302141+931155809+932292977+932919735+932918771+932641467+932025380
1238+931025212+930201973+929963910+929814380+929004359+927274787+924969333
1228+923158318+922912406+923963588+925011259+925375307+925216897+924650378
1218+923972676+924013776+925022343+926184226+926989841+927731155+928545306
1208+929124768+929395394+929987867+931775269+934799801+937955549+940233741
1198+941883248+943832708+946505446+949475316+952012774+953753087+954867605
1188+955737314+957003152+959534828+962971116+965078575+964474742+963075760
1178+963696115+966462205+969370390+971099343+971849400+972185153+972128288
1168+971635157+971600666+973401561+977147236+981249179+983970934+984688083
1158+983929696+982813043+982255681+982871148+985366336+990078790+995565052
1148+999011460+999141645+997168226+994874407+993840298+995621504+1000285491
1138+1005375761+1007741729+1006349631+1003411292+1002499520+1004912990
1130+1008314444+1009812218+1009565825+1009896001+1012040635+1015106405
1121+1017702519+1019745195+1022131747+1025380435+1029115370+1032539473
1113+1034792330+1035345700+1034621666+1033407048+1032244407+1032176802
1104+1033976733+1036110628+1035922821+1033596782+1031985760+1032382371
1095+1033320029+1033494136+1033424465+1033817772+1034384429+1035047949
1087+1036854489+1040633691+1045813871+1050770653+1053391000+1052563218
1078+1049997670+1048421207+1048166071+1047469023+1045241914+1042624114
1070+1042312456+1045799139+1051267777+1055770186+1058805251+1061477231
1061+1063210040+1062401396+1059516618+1056566713+1054720863+1054440185
1053+1055976925+1058395903+1060067371+1061114216+1063014316+1065528781
1044+1066478899+1065347583+1064953519+1067636583+1071815563+1073741823
1035+1071804961+1068058185+1065146213+1063690710+1063374233+1064104532
1027+1065042259+1064635527+1062750918+1060868373+1059934640+1059479511
1018+1058932337+1058491872+1058687940+1059877775+1061793639+1063295131
1010+1062980582+1060500401+1057507882+1056310820+1057082425+1057449915
1001+1055524206+1052467042+1050379480+1049583090+1049467914+1050228298
993+1052105197+1054320328+1056024703+1056562858+1054561971+1049068343
984+1042235419+1038655178+1040421513+1044243673+1045063814+1042349494
975+1039985041+1040520098+1043297272+1046817620+1049739160+1050439581
967+1048123043+1044022683+1039674485+1035161955+1030375563+1025703797
958+1021156294+1016818973+1013692896+1012510772+1012150511+1010575975
950+1007243986+1003569221+1001140260+1000078339+999286286+998218995+997619293
940+997804966+997520158+995680641+993090103+990902166+988907268+986645117
930+984507436+983064806+982725267+983894792+986125963+987912194+988031708
920+986365197+983794142+981930048+982076892+983924326+985730109+985770245
910+983523446+979763797+975960293+973520799+973093483+974294126+975937850
900+976713104+976420241+976058327+975806908+974444275+971408040+968070199
890+966243143+966269854+967137085+967519927+966758648+965302112+963710090
880+961890263+960265540+960364538+962790400+965698517+966663161+965283386
870+963111972+961833879+961409799+960145476+957592320+956337428+958887004
860+963673809+966440657+965343143+962439364+960450318+960131225+960302991
850+959357072+957083699+955051488+954730949+955651809+956126765+955775729
840+956342041+959313081+963490821+965756208+964348138+960692305+957443135
830+955776830+955523759+956448956+957754035+957985145+957497660+958841360
820+963205531+968145514+970273488+969365502+967836748+967213708+967277183
810+967923698+970053669+973987012+977880702+978894570+976131715+971497056
800+967679852+966329473+967271606+968617303+968007895+964846432+960890645
790+958314909+958073885+959888412+963065089+966843120+970075423+971666344
780+972106258+973477221+976784427+979664386+978496100+973159161+967354426
770+964518045+965112790+967622436+970697568+973568715+975653523+976645293
760+976759849+976060186+973668332+969000834+963430032+959475828+958590492
750+960597162+964974000+971406181+978203237+981558083+979717877+976776785
740+977708866+981667476+983659482+981799175+979023653+977895434+978255627
730+979149431+979868371+979523393+977487532+974548643+971953837+969223821
720+965731768+963420738+965085321+970697981+977288848+982386209+984937850
710+983498800+978332939+973528992+971748681+969996872+964930491+958588220
700+955246110+955977649+958001048+958503955+958055160+959165616+962554540
690+965773901+966177879+963985742+959799603+952848612+944643211+939695793
680+940515314+944364392+946079438+943654402+939968140+939122389+941165340
670+941664805+938788633+937813730+939143387+936673877+930237083+925870503
660+926588410+928632807+928290308+926952872+927185014+928057201+927653705
650+925537160+920617967+912534146+904909859+901699585+902959090+906005170
640+908323979+908044403+904824492+901736624+902475597+906671788+911504581
630+915078282+915053912+909231208+899633365+891495569+886911923+884258255
620+882256198+881420016+882712703+885437763+886761017+884978916+881575604
610+878797190+878053467+880852740+887055532+892293060+890365079+880803172
600+869994222
##END=
