##TITLE=<SNM>
##JCAMP-DX=4.24
##DATA TYPE=INFRARED SPECTRUM
##DATE=2/5/2025
##SAMPLING PROCEDURE=Instrument type and / or accessory
##ORIGIN=Admin
##XUNITS=1/CM
##YUNITS=ABSORBANCE
##RESOLUTION=4
##FIRSTX=4497.3318
##LASTX=599.83466
##DELTAX=-1.4281778
##MAXY=1.8420509
##MINY=0.32113144
##XFACTOR=1
##YFACTOR=1.7155436e-09
##NPOINTS=2730
##FIRSTY=0.34325355
##XYDATA=(X++(Y..Y))
4497+200084424+202233872+203548094+203123715+201520198+199813960+198500590
4487+197559760+197181086+197884737+199699827+201637806+202419422+201678769
4477+200175662+198888158+198123723+197567317+197039922+196785006+196912933
4467+197094001+197051266+196942726+197045759+197345651+197563391+197499010
4457+197268832+197085089+196869364+196392609+195830592+195752071+196421568
4447+197477156+198387915+198823030+198545409+197542562+196421481+196100065
4437+196875236+198125356+198965758+199005870+198572214+198307535+198455700
4427+198574142+198143909+197247221+196329236+195554326+194753583+193848227
4417+193013870+192504021+192543438+193281919+194592424+195899854+196426171
4407+195876019+194946343+194837959+195978948+197461747+198005055+197261762
4397+195931818+194855279+194295433+193999832+193743631+193657345+193936529
4387+194383214+194565480+194375049+194024049+193512098+192610720+191462851
4377+190665253+190541496+190788021+191045699+191403214+192049450+192676942
4367+192574412+191466882+190093369+189582634+190254025+191427882+192370657
4357+192856463+192850783+192344095+191591439+191030360+190863693+190888083
4347+190708562+190109838+189325964+188866580+188907404+189049976+188981947
4337+189024786+189484274+189885549+189572749+188762470+188352527+188862689
4327+189882978+190427571+189891942+188728160+187928652+187955578+188489175
4317+189001421+189214905+189153565+188994837+188882006+188926583+189232138
4307+189633899+189701632+189333277+189009916+189239973+190051016+191014829
4297+191489465+191060986+190029579+189216868+189104993+189449999+189755363
4287+189811301+189751298+189740423+189647466+189113175+188115921+187271245
4277+187189319+187700211+188178790+188434453+188724825+189153113+189645677
4267+190250481+190950796+191450882+191497595+191197981+190825093+190487035
4257+190137233+189834996+189815592+190235680+190992020+191846007+192518735
4247+192697110+192330441+191861294+191684135+191491724+190775826+189856433
4237+189588975+190088766+190585325+190577786+190375924+190442493+190846130
4227+191375766+191757288+191772124+191407852+190941103+190799921+191195879
4217+191845885+192303375+192472022+192404515+191949127+191148489+190434606
4207+189987227+189644687+189591372+190172412+191074432+191634226+191742557
4197+191683301+191446713+190914176+190458354+190691468+191615047+192464674
4187+192571285+192115498+191760745+191788280+191939868+191953974+191908025
4177+192068420+192638671+193604673+194635732+195226118+195134793+194550801
4167+193728170+192817481+192155540+192193585+192923884+193720353+193869525
4157+193152568+192030914+191322695+191503450+192310915+193111674+193464325
4147+193291422+192831778+192474750+192403646+192452705+192414313+192310950
4137+192337720+192722004+193544375+194452823+194761001+194216478+193432830
4127+193098298+193043698+192634068+191880351+191574918+192313277+193736613
4117+194849980+195036347+194548334+193935018+193405469+192964517+192679356
4107+192457204+192002945+191316997+190841457+190911605+191386780+191927429
4097+192353580+192568367+192402291+191890983+191448137+191367549+191508835
4087+191788332+192387786+193158752+193543628+193355264+192956578+192627432
4077+192410595+192408580+192611866+192683369+192369146+191864317+191501261
4067+191335949+191244677+191211323+191311281+191549259+191913393+192442612
4057+193020611+193306952+193170131+192934429+192911758+193025006+193058152
4047+192868572+192351235+191627624+191172184+191351706+191945826+192338797
4037+192076272+191263335+190563037+190641923+191482273+192432414+192961390
4027+193139522+193409099+194039527+194757892+194919260+194161913+192886812
4017+191978729+191997664+192674840+193243545+193232896+192808447+192391382
4007+192241931+192428262+192913165+193596977+194319076+194808027+194820969
3997+194488592+194241459+194239305+194248095+194178868+194281970+194740937
3987+195487513+196353835+197034832+197122143+196550381+195828785+195621503
3977+196255266+197566778+198939283+199611213+199262818+198246699+197217880
3967+196752885+197165000+198330414+199735874+200828794+201230017+200754130
3957+199594535+198383503+197781131+198164182+199645852+201755119+203263003
3947+203447806+203263316+203883355+204721812+204295053+202588051+201009237
3937+200656117+201948017+204807785+208087313+209675977+208604024+206473025
3927+205531761+206217084+207199728+207540670+208024218+209613785+211535174
3917+211810658+209510978+205737532+202242645+199996366+199326243+200858639
3907+205598713+213610721+222697862+229257073+231244406+228840268+222948939
3897+215727128+210684400+210215202+213466013+216447264+216146868+214909847
3887+216337734+219576246+221288164+221605653+222522649+222422187+219253058
3878+216083044+216916498+221550376+227332974+232464089+235242054+234008959
3868+230908293+229762527+230438226+229485635+225649025+221740825+220927644
3858+224776120+233828291+246153266+253002883+246559874+233776296+223405091
3848+218243749+218294492+222236776+228047777+234341406+240697139+245708197
3838+246447738+242481098+237251223+233386018+230803071+228909373+227909566
3828+227818520+228652946+232008632+239381440+247577122+249819545+246291286
3818+242975486+240196514+234548114+227428607+223396197+224621457+230287298
3808+237004802+241163211+243776506+248076166+252579686+252703478+249194884
3798+245910719+243029652+239480755+236637698+236358792+238595395+242371516
3788+247119823+252313669+257219679+262163820+268641626+276849625+284527380
3778+290145605+295642122+303886498+316048350+331331524+346562617+357564892
3768+363476078+366354191+367409224+367984791+370558270+375601519+380042204
3758+381472540+382310667+386905406+397200366+410695932+420786042+424587926
3748+427626973+434858878+444749314+451245413+453555012+457405468+466881897
3738+482590544+501416656+516537680+523136481+524135507+525819404+531527511
3728+541103689+552338436+562353951+569488294+573361820+573945066+572381591
3718+570879266+571424988+575462852+582449187+586953141+582525102+571140019
3708+559927473+553588313+553502322+557720681+561239819+560896306+559325535
3698+560192708+563872606+568911094+574746503+581714111+588488264+591017341
3688+587301344+581127078+576994050+576671210+580103628+586614249+595815610
3678+606493378+613463001+611534993+606018290+604567803+604537645+597678577
3668+584112828+571426308+563840746+561008147+561089586+563260593+567778235
3658+573509725+577214431+578092686+580168112+586517661+594145541+595266587
3648+587451090+577496794+570470191+566473081+564339355+563326432+563147849
3638+563764692+565118313+567369717+571644222+579195805+588360198+592660935
3628+587861971+580060545+575931269+576698449+581440433+587992747+592387223
3618+592650095+591913386+593059309+595144914+596666001+598140323+599500894
3608+598538697+594786079+591225596+590629877+593263325+597783782+602809276
3598+606851379+608165671+606796206+605748608+608114180+613910433+620075040
3588+622675758+620540121+616012159+611469536+608125368+607098825+608727271
3578+611261767+612031622+609795645+605811008+603342594+605739783+613236054
3568+621249869+624317407+622303860+618565696+614987284+612065185+610024885
3558+608736721+608063663+608007030+607996051+607259550+606467112+607238217
3548+609428541+610662713+609465648+607080133+605163035+603898149+602913299
3538+602128782+601239061+599668915+597587340+596157559+596090573+596626324
3528+596694005+596364633+596129556+595752029+595188831+595449132+597164090
3518+599091750+599006488+595866614+590871973+586616681+584862740+585000743
3508+585185580+584477431+582858852+580712931+579201051+579365251+580642158
3498+581481639+581040601+579514059+577416605+575215094+573383744+572530226
3488+573014625+573980713+573681951+571384789+568059001+565262570+564129850
3478+564746067+565936149+566304956+565487710+563848320+561740027+559829182
3468+559143095+559989352+561382269+562032292+561661679+560904957+560038097
3458+558546786+556174335+553476368+551050793+549223960+548433849+548774582
3448+549301230+548924850+547817528+546888997+546354810+545712639+544684950
3438+543620397+542951577+542480589+541519018+539710807+537499567+535798646
3428+535202615+535396346+535445648+534855037+534070346+533705257+533718008
3418+533772730+533943045+534564508+535605157+536382656+536081426+534756781
3408+533440301+532901944+532814737+532538419+532063331+531668779+531172185
3398+529987558+527797720+525004590+522478293+520781367+519749404+519021833
3388+518769939+519415029+520804506+522039652+522032077+520381743+518014851
3378+516772826+517779009+520126306+521748324+521749158+521079157+520722407
3368+520415966+519635166+518705698+518240095+518234953+518201147+517746107
3358+516871221+515926917+515194412+514527642+513712585+512997626+512870706
3348+513431785+514208207+514600291+514328282+513354376+511828946+510470251
3338+510294830+511397461+512675724+513174541+512900343+512037513+510338468
3328+507803519+505440658+504679384+505828538+507480923+507992596+507226702
3318+506159126+505403134+504902440+504553334+504574840+505301613+506572578
3308+507464558+507061112+505362692+503290741+502068833+502202250+502740815
3298+502233589+500674804+499528395+499778899+500945772+501970717+502426105
3288+502687934+503143635+503618688+503827013+503916339+504072582+504102844
3278+503937985+504034746+504722606+505495483+505506254+504653987+503590407
3268+502647423+501540622+500306693+499591247+499641765+499836539+499631515
3258+499277058+499222684+499408494+499416207+498986356+498266254+497621755
3248+497197567+496778834+496181691+495561964+495254516+495532189+496353326
3238+497097818+496908116+495607896+493908920+492498214+491488626+490724573
3228+490005618+489217836+488562670+488274261+488076291+487425190+486160548
3218+484563371+483062366+482026199+481525992+481382083+481612261+482290600
3208+482835245+482293831+480609552+478864159+478002719+477814268+477409849
3198+476400574+475152887+473990322+472781478+471482369+470525731+470336446
3188+470676728+470645910+469401662+466992556+464392428+462586928+461778472
3178+461494511+461203148+460783894+460507645+460490968+460211280+458948722
3168+456776535+454582597+453013147+451912600+450906764+450067560+449721755
3158+449870180+450098448+449947972+449128676+447554918+445485572+443559510
3148+442406882+442114408+442178198+441960041+441122539+439796296+438506151
3138+437773368+437583667+437332190+436464253+435106740+433877154+433145344
3128+432742072+432371806+432038057+431888623+431850092+431648230+431115884
3118+430338976+429477676+428526805+427441128+426485150+426078299+426134758
3108+425991648+425239582+424192506+423350592+422787672+422209568+421403649
3098+420503713+419792575+419305536+418838612+418332776+417978910+417903585
3088+417975435+417982245+417845250+417617365+417348343+417022098+416560699
3078+415841605+414890075+413994794+413254784+412260866+410843663+409647918
3068+409225884+409202848+409015926+408755590+408634369+408383518+407751075
3058+407009467+406533615+406217446+405682772+404896136+404130485+403370567
3048+402351529+401225375+400498220+400251956+400048704+399564374+398842153
3038+398060242+397391422+396917898+396491139+395812730+394748073+393515082
3028+392510776+391945562+391641588+391213647+390459497+389546323+388824206
3018+388454810+388256318+387968465+387557445+387110951+386602648+386006895
3008+385446545+384935289+384217758+383162031+382049705+381209980+380614748
2998+380043420+379458333+379011318+378737397+378441935+377995650+377564062
2988+377324989+377134037+376717006+376021815+375177018+374320442+373592454
2978+373037316+372463069+371632517+370579291+369590897+368925169+368583637
2968+368304087+367797000+367034720+366272265+365762607+365453248+365000987
2958+364163937+363118980+362265357+361805800+361628155+361475108+361121415
2948+360464964+359574270+358721134+358301115+358499433+358993908+359168913
2938+358617979+357384954+355940477+354947705+354688377+354747580+354591858
2928+354208460+353810746+353327945+352592348+351667709+350730840+349942675
2918+349507091+349499691+349624213+349489719+349118689+348820413+348581167
2908+348021061+347052158+346123732+345625400+345410127+345092916+344555532
2898+343992021+343585205+343259585+342791724+342105567+341292421+340410761
2888+339547792+338957563+338788013+338806288+338701292+338452943+338140144
2878+337660261+336920286+336073925+335312165+334599082+333882142+333414767
2868+333509410+334011771+334376269+334282739+333881656+333450102+333092865
2858+332766273+332407716+332059096+331862723+331829578+331716729+331304007
2848+330661384+329995518+329374575+328736295+328058755+327405118+326844178
2838+326411165+326120220+325922214+325671433+325236196+324642840+324027422
2828+323457275+322914124+322470375+322310206+322440391+322536458+322272543
2818+321689680+321084024+320666924+320425628+320141875+319550325+318682736
2808+317909928+317447834+317100187+316672420+316269252+315971740+315611550
2798+315055891+314372688+313635284+312899999+312377520+312252755+312316302
2788+312103912+311428839+310538318+309772632+309274336+308969076+308663295
2778+308169480+307406748+306442848+305500907+304863496+304617335+304520539
2768+304249502+303729837+303134640+302615879+302125191+301488162+300617237
2758+299637321+298816983+298387410+298369343+298531076+298573637+298369412
2748+297943973+297316499+296549875+295854511+295390993+295011937+294408853
2738+293510376+292571388+291844199+291312252+290833638+290397654+290076708
2728+289850490+289641471+289404709+289091667+288676477+288232589+287833747
2718+287452641+287074767+286736136+286363785+285817160+285160987+284660988
2708+284436490+284292963+283983656+283541036+283212932+283061848+282807245
2698+282198880+281413269+280894056+280835495+280963770+280866678+280429200
2688+279828774+279209707+278594723+278080392+277839443+277860707+277875455
2678+277638624+277191678+276760681+276436068+276073047+275537644+274910308
2668+274379630+274074284+274039071+274216664+274398722+274323519+273894692
2658+273276095+272738225+272376107+272023856+271546684+271113236+270979577
2648+271105575+271204022+271070519+270687902+270147461+269634085+269340047
2638+269253240+269145777+268854762+268468445+268164002+267960524+267739779
2628+267458336+267195603+266981181+266727446+266400732+266131085+266058245
2618+266128062+266122642+265897710+265552825+265318808+265288459+265351676
2608+265401620+265444737+265451929+265274544+264824941+264229570+263723682
2598+263471267+263498889+263675214+263742669+263524113+263117244+262749585
2588+262498942+262330365+262294961+262451152+262662482+262690763+262465345
2578+262138648+261905152+261830105+261846695+261900097+262024897+262219827
2568+262339763+262237790+261977002+261791713+261827812+261982978+262052483
2558+261989666+261915940+261900062+261876158+261771336+261576544+261316452
2548+261060928+260897458+260805161+260650915+260371453+260057420+259817514
2538+259654912+259502387+259305250+259057717+258800977+258589439+258434047
2528+258287358+258112093+257959411+257923538+257988683+258000513+257855127
2518+257626026+257415912+257195306+256919561+256705105+256711532+256898576
2508+257060083+257061299+256901842+256606953+256228766+255934902+255914820
2498+256158010+256432991+256511807+256343021+256011321+255632839+255305326
2488+255068946+254892655+254732747+254568043+254367432+254119743+253903566
2478+253812207+253821137+253826140+253762888+253612725+253369431+253048207
2468+252682058+252329912+252102287+252083265+252217620+252366219+252441422
2458+252421636+252313183+252148219+251936646+251620233+251177214+250745817
2448+250521910+250526461+250576683+250519425+250403033+250353992+250362800
2438+250294789+250102516+249942729+249994306+250157359+250093257+249672734
2428+249195353+248988402+248998634+248982512+248888061+248829587+248842755
2418+248862976+248869282+248900013+248951851+248987307+249042654+249191931
2408+249377168+249430847+249307455+249159619+249164431+249375917+249737897
2398+250178154+250705253+251436594+252568012+254418054+257518494+262553768
2388+270192628+281020611+295530524+314000789+336340272+362084655+390505428
2378+420710231+451742702+482604581+512206924+539654661+564738597+587579573
2368+607544242+622990190+632380350+635696931+634439411+629860237+621589803
2358+608518599+590541072+568054623+541198957+512761576+489360077+476931322
2348+477808952+491030876+511747610+531498465+543790121+548501669+549019145
2338+548308563+547609620+546979019+546364191+545874059+545250962+543604276
2328+540136941+535041507+528925472+521619112+512724191+502901714+493174260
2318+483495379+473249269+462515738+451854647+441314291+430383136+418735388
2308+406581040+394369990+382524133+371429786+361339468+352182335+343652747
2298+335510970+327676746+320129610+312911013+306151208+299937716+294223877
2288+288957816+284200371+280043873+276523832+273639325+271316505+269329815
2278+267432608+265609180+264032589+262750627+261602568+260481851+259469727
2268+258635544+257898001+257170725+256493514+255943362+255516134+255129070
2258+254678424+254103656+253431831+252744476+252120093+251628016+251298574
2248+251046160+250712011+250246200+249765101+249382432+249077363+248780546
2238+248501014+248297554+248178053+248077625+247907832+247637177+247359713
2228+247222248+247237119+247270160+247242799+247201854+247178836+247150502
2218+247132123+247150172+247157364+247120501+247136970+247330371+247669784
2208+247996846+248215645+248385369+248615200+248905468+249137991+249243109
2198+249315011+249483936+249718840+249867317+249879044+249872373+249970698
2188+250179596+250443701+250719376+250947053+251052970+251032141+250944569
2178+250811952+250634080+250491092+250478549+250562108+250626576+250621520
2168+250571784+250524533+250537510+250617368+250643079+250454680+250046544
2158+249587160+249233832+249014772+248901194+248874806+248905607+248994343
2148+249223479+249656474+250296682+251246528+252710687+254734744+257135651
2138+259734007+262487963+265438883+268689642+272406664+276727309+281640580
2128+286992372+292663251+298697916+305152009+311885443+318649660+325283031
2118+331699253+337753618+343157542+347530616+350597354+352255645+352414772
2108+350980267+348012479+343713132+338382517+332489399+326510428+320616997
2098+314690629+308598845+302377849+296260076+290547592+285397436+280776830
2088+276619933+272934650+269764652+267108100+264890555+263043952+261569717
2078+260456072+259604690+258916101+258362805+257920724+257516444+257122344
2068+256858325+256845574+256935943+256819204+256447218+256038370+255699200
2058+255413813+255267107+255305743+255377089+255369463+255381102+255527600
2048+255792296+256102020+256430367+256782028+257058589+257059735+256778727
2038+256517001+256524645+256744296+256999941+257210906+257410874+257704391
2028+258145725+258635266+259020836+259258728+259476624+259940750+260784870
2018+261679716+262065686+261797863+261238869+260768454+260540186+260556829
2008+260695526+260784488+260778443+260750943+260754852+260793938+260817391
1998+260757753+260793799+261390630+262658816+263871239+264164095+263559847
1988+262727731+262095097+261719237+261622076+261808321+262150774+262465397
1978+262628745+262628085+262535145+262422836+262443647+262974534+264260440
1968+265773449+266465738+265999632+265155790+264744683+264799178+265021505
1958+265366094+265863592+266321725+266512990+266470707+266492126+266911728
1948+267899392+269504386+271656439+273708222+274371900+273064348+270895045
1938+269385545+268970911+269196051+269582421+269928539+270194660+270413338
1928+270797797+271874370+273939078+276241242+277675921+278419232+279343437
1918+280008678+279205538+277330949+276140190+276555553+278000360+279261493
1908+279561784+279086419+278583501+278524471+278855024+279406705+280234687
1898+281480498+282899977+283827030+284177179+284929158+286546173+287702537
1888+287010282+285172209+283766229+283257318+283250873+283434685+283648586
1878+283736488+283654127+283622806+284415418+287207072+292217730+297157650
1868+298328032+294947105+290169769+286991486+285924935+285984469+286214369
1858+286246594+286168229+286223959+286545739+287222724+288491779+290655975
1848+294039803+298681795+303039303+303894176+300391541+295908920+293493734
1838+293196535+293530423+293889849+295436959+299418990+304699539+308009624
1828+308083732+306912308+305633941+303426558+300447131+298332792+297854195
1818+298275778+298789987+299613834+301435421+304060599+306059450+306233377
1808+305112401+304340913+305264266+308280522+312470703+315720368+316427059
1798+315468683+315518958+318558665+323921835+327629529+325924577+320768689
1788+317000263+316530734+318103034+320135343+322281785+324240680+325274866
1778+325890285+328204783+333879745+341920834+347942644+347997226+343562517
1768+338356772+334514064+333445481+335728918+339506621+341822717+342508040
1758+343183983+343791723+344216675+346604657+352774753+360761469+365769834
1748+365818858+363495847+361809170+361984940+363879940+366256700+367581032
1738+368682969+372789835+380737012+386838350+384924240+378243999+371949103
1728+367421836+365144479+365322228+367126096+370395287+376942737+388088157
1718+400535292+406164392+401790345+393245088+386236343+383066381+384477921
1708+390051638+397302895+402960589+407395750+414279347+424081221+431042679
1698+431287311+426975352+419371862+410773654+405919691+406559221+410854190
1688+417520708+427996058+441544018+448996719+443863971+434340603+428646220
1678+428768657+433398940+438989543+442725240+446085008+450786064+453636070
1668+451038304+446728673+446406354+450373862+454166192+454518286+453947132
1658+457200792+467349515+485096829+504463243+510315641+504290496+502383856
1648+507560938+511911636+508371061+501412278+498105182+500503899+508589148
1638+521843140+536576561+544061436+541193537+536803821+538079721+545514634
1628+556081256+567014669+577984702+588695755+597280482+604196182+613479539
1618+627325949+641281038+648292700+649890085+652133776+656805299+662099502
1608+666068157+668485428+670313582+672215601+674068492+675835427+678134499
1598+681560176+686001209+690772447+695197706+699147807+702914809+706628582
1588+710233051+713762891+717100458+719909570+722387226+725827704+731981818
1578+741279559+750434572+754108251+753814249+756362782+764264097+773874671
1568+780409370+784863675+791268223+801520031+816767314+839606275+868180964
1558+885008051+881252863+872733663+868538131+867996196+868039000+866691424
1548+865165473+866522638+871923853+879995760+888484316+891842868+882031751
1538+864658421+852663790+848185026+846070791+841876857+837099643+835364325
1528+836820997+839202203+841853231+846072806+850739674+852034092+849803048
1518+847291969+844771787+840777283+836488498+835188173+839509339+849852454
1508+861680175+863014410+849025063+833413039+825571692+825397208+830015157
1498+834779863+834441319+829149200+825323899+827652712+834755612+840040365
1488+837805847+830096805+822813584+818977164+817993495+818282287+819667108
1478+822963399+828253850+834610869+839621840+838832668+831315273+823472814
1468+821017950+823626521+826406518+825563215+823952975+827018705+836161766
1458+845792423+845223944+834058233+823297358+818137127+817484289+818765227
1448+819487552+818206892+815488531+812975436+811721113+812234280+815062640
1438+819666552+822702264+821036643+817100856+815018099+815129349+814996558
1428+813500208+812166599+812226914+813355674+815486516+818968965+821862644
1418+820457601+815018724+809357487+805346931+802732037+801103243+800402320
1408+800760738+802021802+803088092+803032571+802985806+804699652+807845016
1398+810581027+811932286+811589920+809013800+805261322+803121863+803807638
1388+805223243+804306143+801369173+799806393+801643789+806075649+811500003
1378+817440998+823935881+829591559+832026549+831372809+830734286+831893341
1368+833707736+835110069+836974704+839925432+842481609+842835649+841265643
1358+839424078+838399411+838180942+838368211+838872484+839636919+840214640
1348+840284892+840122013+840247299+841359521+844251115+848512800+851718131
1338+851705276+849523430+848069051+848768098+851030619+853698254+855961193
1328+857560662+858928182+860815956+863556275+866926084+870502898+873858531
1318+876762981+879426030+882112705+884709810+887150846+889878518+893484169
1308+898126230+903305987+907994187+911256915+912923788+913657440+914550844
1298+916325214+918340151+918751379+916548478+913057343+910469341+909543903
1288+909573435+909782733+909675791+908630070+906281661+903102109+900072929
1278+898002541+897252143+897614452+898443302+899353175+900474638+901765999
1268+902939647+904314879+906600123+909531187+911710879+912111615+911160119
1258+910141359+910051164+911238223+913574402+916546185+919271704+920783758
1248+920643114+919376074+918004942+917020648+916367393+916307842+917119459
1238+917911550+917263855+915255797+913263722+911861320+910397908+908384847
1228+906356777+905395484+905983350+907404653+908576842+909174715+909363235
1218+909139971+908861533+909387834+910802604+911937479+911808370+910971112
1208+910995364+912930945+916450501+920214375+923004795+924532970+925231669
1198+925674654+926342223+927601758+929483000+931464444+932867193+933547479
1188+934153134+935854333+939452132+944044717+947172987+947610134+947067643
1178+947670589+949446418+951586572+954295552+957962005+961788418+964561397
1168+965991802+966388230+965865682+964653468+963424090+962849913+963512757
1158+966092559+970379121+974155016+974851979+972715021+970687507+971203454
1148+974231105+977900754+980497165+982101776+984245960+988200439+993773219
1138+999181035+1002310833+1002341964+999947276+996301809+992805880+991228785
1128+992186188+994057702+995106898+995885161+998093760+1001997304+1006284838
1118+1009970261+1012973383+1015001939+1015695288+1016034041+1017564023
1110+1019966354+1021541364+1022446859+1024805829+1029076617+1032440311
1101+1032069941+1028931804+1026526902+1026696035+1028900674+1032786777
1093+1037954651+1041314246+1038848751+1031383610+1024495358+1022100045
1084+1023558246+1026206911+1028483191+1030075712+1030887676+1031629667
1075+1034163260+1039356776+1045195971+1047945046+1045657301+1040656475
1067+1037429463+1038501103+1043271577+1049295472+1053268712+1053049340
1058+1050115914+1048078463+1049281574+1052972069+1055347578+1053363980
1050+1049219521+1047859576+1050287131+1053574598+1056408100+1059197756
1041+1060691326+1060227356+1060790485+1064966422+1070614665+1073741823
1033+1073274240+1070735991+1067666230+1064482370+1060872272+1057136262
1024+1054662984+1054142660+1054037247+1052477872+1049785013+1047510887
1015+1046320839+1046017108+1046236620+1046518532+1047045110+1049113205
1007+1053111462+1056865191+1058424913+1058713635+1058984776+1058276140
998+1055677575+1052433608+1049707464+1046955193+1043804340+1041177285
990+1039636811+1038174511+1036507986+1036521119+1038767936+1040317791
981+1038852850+1036107736+1034474913+1033578729+1031950422+1029601527
973+1027898313+1027410648+1026794430+1024798325+1022452765+1020919309
964+1018769775+1013946073+1007371210+1001995081+999157826+998119540+997884463
954+997606164+996378524+994142129+991942077+990583870+989656903+988339484
944+986308218+983509181+980202675+977339988+975608492+974409203+972737257
934+970755814+969762764+970627262+972578339+973636082+972638793+970315609
924+967859425+965918562+964665003+963659515+962291231+960910648+960683910
914+961740819+962578841+962356272+962239463+963169487+963930031+963161844
904+962228970+963629010+966996387+969120141+968037383+965140508+962914815
894+962503030+963297206+963344457+961036352+957609910+956249409+957747426
884+959216815+958272615+955600671+952387279+948690252+944921166+942582973
874+942582486+944045690+945452956+946094328+945943262+944904489+943015186
864+941090167+940332264+941123591+942786224+944710202+946751127+948293130
854+948066252+945860155+943049305+941037982+940512029+941487567+943592560
844+946262350+948588939+949425572+948389509+946767109+946470466+947790386
834+948742993+946925958+942041107+936579508+933948631+935952033+941581862
824+947281805+949404239+948104748+947133796+948773985+951803374+954718524
814+957411314+958988339+957733598+954428830+952668427+954736800+958724702
804+960529300+958463289+954810665+952587334+952458087+953097514+953393879
794+953748892+955168458+957282970+958192635+956807604+954330296+952916498
784+953565514+955107934+955393806+953871746+951851598+950607559+951172981
774+954459126+959002028+960639924+957194999+951065205+945638836+942558165
764+942432184+945116496+949425085+954069300+958337378+961200134+961138985
754+957801696+953029416+950291181+952158456+957256217+961266773+961798980
744+960349743+958941018+957715254+956709627+957302079+960367393+964357936
734+966478772+965778197+964402826+965126263+967748383+968678755+965439513
724+960145936+955944288+953251360+951640355+952313553+956272896+962042882
714+966989438+969560694+969193381+965679038+960856934+958207922+958300757
704+957922952+955185552+951759874+948777668+945375755+942188907+941481730
694+943222399+944974811+945294385+944417311+943189531+942115598+940984198
684+939741409+938719939+937076554+933381820+929227702+928273357+930432412
674+931298577+928193307+922476201+916303742+912027326+911755768+913548483
664+913754236+910931365+906343575+903380408+904674687+908465731+909029624
654+903073758+894211984+887932166+885671451+885740105+886589732+887639623
644+888840232+890206153+892590209+896602780+899985305+899621954+895133878
634+889419969+886125345+885682778+883705225+875253498+863145602+856008862
624+857236780+863042066+869598097+875393724+877800433+875913076+873694123
614+873047887+871953316+870328900+868482402+863402846+854531482+848062866
604+848634542+852616469+852158545+844811464
##END=
