##TITLE=<SNM>
##JCAMP-DX=4.24
##DATA TYPE=INFRARED SPECTRUM
##DATE=2/5/2025
##SAMPLING PROCEDURE=Instrument type and / or accessory
##ORIGIN=Admin
##XUNITS=1/CM
##YUNITS=ABSORBANCE
##RESOLUTION=4
##FIRSTX=4497.3318
##LASTX=599.83466
##DELTAX=-1.4281778
##MAXY=1.8604348
##MINY=0.40614328
##XFACTOR=1
##YFACTOR=1.7326649e-09
##NPOINTS=2730
##FIRSTY=0.42981103
##XYDATA=(X++(Y..Y))
4497+248063564+247445145+247426139+247788635+248395994+249006139+249305957
4487+249075697+248289902+247368673+247064658+247720745+248866353+249587990
4477+249118285+247373403+245260486+244139199+244682109+246410892+248251219
4467+249298062+249297856+248689706+248025482+247384411+246574914+245698216
4457+245269258+245800626+247152603+248297883+248188025+246939354+245678263
4447+245333776+246017229+247110754+247622703+247133992+246426906+246430690
4437+246948212+247278440+247421202+247667562+247620416+246610003+244840283
4427+243394290+243074175+243631877+244261923+244560538+244696403+244905850
4417+245199339+245481217+245683527+245733751+245535088+245053119+244422006
4407+243877016+243630157+243895059+244783247+245900955+246346907+245682357
4397+244638369+244219697+244407713+244400523+243981542+243897759+244691225
4387+245724721+245741526+244187257+241688762+239365502+238006594+237825991
4377+238581892+239667436+240407857+240732667+241298797+242491516+243627302
4367+243757921+242913834+241795799+240737242+239712501+238908371+238670009
4357+239098967+239924942+240690199+241223288+241856808+242717201+243081657
4347+242219184+240560268+239200947+238669631+238824640+239361099+239786428
4337+239448201+238207683+236741273+235878851+235906956+236558761+237353740
4327+237968994+238542503+239425703+240418916+240703151+239891040+238654529
4317+237946015+238074776+238680192+239174717+239295618+239437520+240150540
4307+241240694+241834826+241349658+239990664+238419418+237240597+236716074
4297+236741084+237028311+237251674+237095564+236506300+235941202+236074882
4287+237136208+238599798+239538417+239377818+238387408+237364112+236908253
4277+237038029+237319426+237350232+237216293+237322333+237720863+237984664
4267+237815276+237404258+237173120+237375568+237840663+238064834+237799400
4257+237405118+237332532+237498171+237488831+237209310+237060338+237412135
4247+238019271+238271943+238107732+238161758+238797618+239566849+239873564
4237+239687629+239406147+239302756+239270110+239101943+238902436+238893458
4227+238959473+238877410+238755735+238757249+238757799+238636881+238475199
4217+238360524+238419212+238786679+239194308+239081010+238364446+237527412
4207+236939093+236726945+237050757+237828589+238404557+238085956+237061903
4197+236361817+236654171+237429318+237737031+237419961+237092210+237149504
4187+237454603+237796648+238047531+237998304+237526603+236906843+236659262
4177+237016133+237714688+238355777+238773555+239046403+239285022+239416811
4167+239255077+238891239+238705304+238729522+238520556+237990615+237744118
4157+238230078+239024799+239224443+238403869+237128864+236418372+236679025
4147+237412307+237936366+238013904+237811629+237665719+237828881+238204449
4137+238475526+238515189+238443258+238362795+238259800+238114096+238048838
4127+238295198+238803174+239023131+238440145+237230569+236053158+235337283
4117+235042659+235008964+235303570+236094250+237181669+237887293+237635309
4107+236599543+235608634+235440983+236200788+237264609+237873567+237809685
4097+237393972+236919674+236375767+235710443+235109362+234901651+235210362
4087+235780792+236272582+236619718+236940022+237230535+237356492+237291493
4077+237213610+237249249+237208020+236823026+236201081+235698248+235455105
4067+235415578+235546215+235634039+235328493+234820242+234858977+235702651
4057+236692871+237136948+237040368+236822905+236761655+236779062+236602897
4047+236244288+236146264+236539496+236989868+237021775+236812018+236802729
4037+236967457+236930390+236643369+236429157+236349743+236005324+235186419
4027+234403823+234415554+235431764+237051119+238680880+239727517+239744751
4017+238802193+237528409+236628198+236394876+236567705+236597633+236227105
4007+235812956+235899990+236615642+237663431+238677078+239372933+239529903
3997+239057445+238121750+237138100+236567309+236682018+237453708+238555610
3987+239526015+240082496+240250852+240091509+239462443+238315821+237188996
3977+236983848+237977147+239333562+240002068+239909410+239762450+239915155
3967+240130313+240354880+240962600+242036620+242994125+243294597+243138436
3957+243000352+242858673+242461742+242142488+242666116+244059184+245210416
3947+245340725+245261845+245979956+246866596+246566142+245197705+244148660
3937+244264418+245545701+247701102+249938773+250834839+249689782+247841715
3927+247389777+248807562+250517390+251145390+251479918+252922093+254968823
3917+255463176+253174730+249337554+246177794+244732506+244615166+245551016
3907+248379413+253910902+261065428+266905732+269110223+267362451+262553390
3897+256713172+252710564+252405465+255029660+257326655+257130245+256721205
3887+258848295+262061703+263227073+263094528+263915463+263981839+261019503
3878+257651774+257542036+260759555+265536159+270677168+274168877+273596366
3868+270681503+269273075+269478378+268133522+263965619+259636343+258527836
3858+262598627+272508809+285901360+292946716+285705483+272514227+262569816
3848+258155949+258599647+262395336+267988713+274361417+280600423+284561028
3838+283825871+279477761+275169606+272231472+269595408+266869473+265106307
3828+264905563+266039680+269180004+275338307+282283763+284874452+282851234
3818+280516279+278154319+273193002+266841437+263003779+263877399+269102551
3808+275660193+280055312+283111148+287573004+291574340+290919456+287297318
3798+284589598+282033722+278035001+274493962+273948524+276301694+280034224
3788+284363139+289087282+293725991+298374539+304194839+311406125+318012960
3778+322579703+326938013+333909356+344496094+357643404+370828003+381650454
3768+389873943+395989227+399538574+401496792+404541826+409119371+412273559
3758+412152847+411627103+415297196+425469683+439420933+448818788+449764047
3748+449374185+453789910+461343241+466190831+468335602+473399503+484523371
3738+500957723+518597677+531523998+536711052+536909887+537251451+541533495
3728+551234969+564567938+576746081+584060019+586598436+586180745+584817519
3718+584295319+585455512+588583761+593828264+599411613+600503762+594528522
3708+584910263+577157477+575066439+578576157+583382190+584615932+582024675
3698+579057833+578667318+581445026+586414049+592672681+598885216+601731518
3688+599331116+594903282+592227056+592255264+594535127+598763988+604937719
3678+611814391+614884229+610793933+604938132+602803233+600864211+593016686
3668+581582009+573418446+570804967+571938809+574472789+577533476+580974839
3658+583073548+581425830+577935549+578272537+585470373+596425713+601859695
3648+595442201+582654412+571598106+565572916+563879893+563807927+563340010
3638+563090641+564582352+567638361+571516301+577459170+586496404+593776388
3628+591696806+583144689+576627021+575309858+578286297+583484566+588062662
3618+589775259+589510444+589247830+589187629+589392106+591028747+593673049
3608+594270449+591694466+589096330+589520282+592502742+595384615+596666655
3598+597381980+598960759+600918977+601486517+600346139+599713581+601578986
3588+604619858+605646302+603914715+600943264+598350425+597515867+599043321
3578+601883293+604209941+605237279+605448155+606054981+608651260+613832879
3568+619077451+619480212+613764353+606283607+601395906+599858958+599968833
3558+600527774+601789311+603924692+606154123+607714120+608691921+609385230
3548+609309274+607276338+602802752+597211422+592726483+590661968+590773563
3538+591789756+592256159+591497902+590100826+589121236+589022575+589579520
3528+590306748+590483980+589376144+587125384+584704892+582660329+580669293
3518+578443783+576310914+574670867+573557321+572909627+572796553+573281188
3508+574126650+574882087+575322964+575355576+574803481+573669260+572054120
3498+570004672+567951474+566544835+565691736+564822640+564244436+564665498
3488+565471022+565342536+564299820+563152768+561693256+559477653+557298893
3478+556151050+555994871+556335781+556813674+556978039+556400144+555114699
3468+553589791+552413085+552181466+553053451+554025646+553541733+551317702
3458+548765594+547219219+546646037+546376406+546143067+546018296+545999410
3448+545941720+545719286+545531425+545673877+545698302+544599823+542152808
3438+539104471+536037248+533162875+530910051+529773732+529792755+530612555
3428+531643299+532264642+532536647+533009621+533382935+532483877+529977761
3418+526846382+523997190+521620386+519973046+519675378+520689816+521719494
3408+521429153+519983160+518626058+518071934+518096564+518431488+519232540
3398+520531161+521685437+521548214+519330616+515736686+512975215+512837304
3388+514861949+516933585+517500334+516622225+515113933+513598932+512289956
3378+511130279+510261768+510158360+510879499+511602908+511596716+511221062
3368+511215523+511580032+511914990+512044646+511818875+511014383+509842391
3358+509111895+509373717+510338756+511526229+512791792+513755489+513517334
3348+511671056+509116195+507235860+506576333+506717409+507131179+507683239
3338+508342457+508956335+509446131+509716209+509307393+507894046+506226548
3328+505525258+505782127+505713807+504627334+503260015+502418990+501952966
3318+501380678+500546981+499586517+498962009+499260262+500331289+501083905
3308+500689915+499526488+498620549+498715151+499924331+501563620+502284828
3298+501189136+498930189+497111225+496688270+497392174+498411635+499168172
3288+499514620+499579293+499612352+499890136+500465967+500977710+501005093
3278+500601506+500137580+499899528+500160112+500950018+501469879+500661294
3268+498643494+496750535+496058567+496521014+497421380+498084244+498038389
3258+496891095+494595580+491970198+490329051+490289869+491307781+492343444
3248+492755770+492673587+492632237+492835785+492849614+492186303+491027382
3238+490184534+490212399+490520628+489917138+488210423+486435527+485362401
3228+484800674+484490519+484582884+484959536+484948081+484063883+482562471
3218+481096525+480169636+479931963+480123196+480141909+479501784+478290162
3208+476923049+475559617+474131925+472792952+471883504+471529179+471559554
3198+471668054+471543971+471042067+470188830+468928015+467177817+465300751
3188+464026898+463622278+463536071+463158387+462566353+462111509+461610190
3178+460533142+458919722+457522646+456890157+456713579+456245938+455064004
3168+453343735+451713148+450772155+450542153+450534963+450322368+449722353
3158+448617373+447188339+446092269+445813383+446027114+445901758+444853264
3148+442983524+440980311+439528435+438805576+438548913+438297893+437581570
3138+436331625+435013396+433979487+433105334+432343843+431983670+432089933
3128+432299811+432250652+431750434+430717385+429410920+428446329+428152858
3118+428139785+427841257+427289163+426947978+426929126+426766102+425939801
3108+424453662+422897759+421881085+421400715+421030772+420613803+420251874
3098+419844056+419258076+418694148+418392799+418298782+418255575+418171948
3088+417961863+417607710+417236287+417000299+416908002+416758153+416264368
3078+415404010+414554866+414049109+413747347+413266806+412481063+411636185
3068+411072738+410872630+410682705+409981587+408716747+407535500+407097272
3058+407303778+407476091+407104014+406145374+404846065+403549095+402466956
3048+401577805+400891170+400599212+400717034+400807542+400361091+399388209
3038+398423067+397859999+397487785+396885293+395988849+394910563+393616621
3028+392247891+391284159+390977719+390987179+390773036+390130915+389335058
3018+388874606+388954313+389259377+389256040+388607073+387366761+385974467
3008+384932027+384319628+383801693+383166900+382580886+382247098+382062848
2998+381754722+381272977+380849884+380636051+380529822+380393561+380123104
2988+379522367+378491072+377319389+376455832+376022729+375813539+375653955
2978+375498671+375254908+374747259+373890754+372810095+371754961+370915484
2968+370304840+369787799+369227173+368594169+367922257+367235897+366579052
2958+366035489+365711436+365739748+366133772+366510492+366242581+365124734
2948+363652390+362473345+361830399+361615808+361638100+361664003+361382641
2938+360512204+359030159+357371467+356282517+356192938+356724393+357121031
2928+357161555+357214807+357364002+357061621+355891796+354226155+352833655
2918+352112825+351859121+351637306+351295021+351030618+350967459+350923460
2908+350703606+350358947+350011880+349627729+349091355+348415315+347828717
2898+347624515+347798204+347914718+347535246+346693671+345768708+345025415
2888+344463861+343973928+343462667+342918931+342432370+342083479+341845978
2878+341643531+341412737+341093225+340669823+340223613+339887485+339788308
2868+339950610+340127291+339913389+339228198+338453154+337932570+337617461
2858+337308406+336939357+336499752+335905104+335106392+334260448+333673127
2848+333529917+333730576+333960819+333845302+333218489+332385583+331845700
2838+331677241+331546966+331302516+331117234+331083728+331038113+330774432
2828+330231832+329506359+328760142+328115716+327621793+327251333+326924356
2818+326626826+326457403+326442198+326412373+326163966+325645618+324977800
2808+324355769+323889504+323517875+323129286+322691986+322225927+321762862
2798+321350330+321020532+320773536+320568543+320284119+319827968+319342541
2788+319066202+318932349+318583562+317860462+317031856+316419285+315968844
2778+315398242+314675176+314044408+313577110+313075344+312477324+311968850
2768+311660174+311493228+311422122+311411285+311341177+311087611+310610784
2758+309915308+309039780+308105736+307289479+306695003+306250892+305782046
2748+305245845+304813499+304634650+304631382+304596259+304377506+303898685
2738+303128766+302165412+301282453+300726437+300460486+300237949+299899826
2728+299478522+299065991+298707330+298392600+298092283+297812640+297574898
2718+297319474+296921769+296320103+295560745+294761483+294089743+293700569
2708+293639956+293797545+293912752+293705007+293142799+292483753+291922336
2698+291381421+290770639+290207949+289844748+289666794+289554545+289421690
2688+289282884+289231283+289294098+289329325+289170738+288831136+288443200
2678+288058791+287618791+287088696+286541555+286095242+285796267+285583895
2668+285363267+285105262+284887421+284824399+284889175+284846484+284502616
2658+283963370+283481143+283141317+282874678+282659400+282521195+282389699
2648+282094285+281549603+280914431+280469666+280325322+280366706+280448286
2638+280444416+280207999+279745191+279329047+279220427+279377070+279548798
2628+279530480+279287336+278946805+278663310+278467055+278297804+278121295
2618+277908768+277600849+277195748+276796753+276522460+276422647+276470154
2608+276569812+276590642+276454399+276207712+275982492+275853851+275762999
2598+275630660+275492008+275423465+275394466+275306744+275136633+274942373
2588+274776150+274648954+274528311+274349394+274086625+273812900+273636614
2578+273598739+273659525+273754385+273840317+273891626+273872808+273763088
2568+273597157+273403361+273140747+272825208+272666106+272893510+273458058
2558+274041595+274367489+274412932+274319947+274176428+273947544+273618210
2548+273325014+273256952+273403447+273456716+273083849+272336479+271645802
2538+271339070+271334838+271380178+271353208+271234096+271010389+270716299
2528+270422690+270157565+269902141+269635640+269362413+269142301+269054666
2518+269086882+269129625+269111736+269068615+269071419+269139790+269208505
2508+269155890+268903166+268505684+268130409+267931040+267938488+268050393
2498+268119555+268067972+267931728+267795330+267698733+267642076+267651467
2488+267759192+267933827+268100394+268187737+268115066+267838348+267438717
2478+267040461+266656138+266250607+265889694+265669737+265572675+265519097
2468+265493348+265513627+265534198+265468218+265276865+264968567+264562159
2458+264158881+263973462+264114332+264387353+264502629+264416266+264290756
2448+264202931+264070420+263821308+263502983+263215325+262990673+262773846
2438+262534452+262352817+262332831+262446937+262537583+262487100+262323663
2428+262139912+261980655+261849486+261760938+261730563+261736411+261710972
2418+261594388+261427975+261343109+261399268+261511225+261594130+261677861
2408+261821432+262017876+262220255+262383984+262464550+262439627+262366646
2398+262384707+262636553+263269472+264592156+267139122+271487112+278110252
2388+287485454+300187690+316751938+337421791+361953003+389610331+419465065
2378+450750311+482827217+514761327+545028041+571853496+594278981+613009880
2368+629417434+643340717+652926708+656951230+656038102+651417074+643449560
2358+631489517+614740710+592874406+566520927+539257382+517524862+506442033
2348+507659537+519794439+537780153+553477266+561690022+563788422+563532344
2338+563309050+563758424+564726559+566195635+568200706+569973918+569967038
2328+567319399+562687397+557040889+550539906+543064973+534767902+525641502
2318+515554638+505018847+495048842+485978549+476911009+466639689+454893205
2308+442346357+429682994+417199065+405204828+394150001+384151031+374807254
2298+365680957+356709394+348061712+339857557+332133495+324897750+318137042
2288+311874042+306213533+301241998+296954794+293346725+290424191+288039510
2278+285889492+283766633+281680411+279741871+278071741+276733043+275606717
2268+274442551+273139216+271855611+270795644+270005566+269402593+268882801
2258+268348526+267706817+266949936+266228849+265714148+265350138+264895810
2248+264255340+263598324+263094941+262700125+262282176+261827056+261407112
2238+261045544+260740291+260549316+260501861+260496804+260445203+260405264
2228+260402650+260282334+259959003+259634141+259520396+259521754+259417916
2218+259197735+258993396+258848123+258739554+258687816+258702023+258740242
2208+258781248+258824610+258837166+258798637+258729681+258616125+258418563
2198+258183521+258031883+258040243+258202269+258456765+258698308+258814616
2188+258766507+258622489+258484921+258375424+258242793+258090330+257990654
2178+257952917+257917622+257889173+257911808+257947929+257944024+257950715
2168+258026190+258108098+258116044+258091792+258104795+258082899+257896173
2158+257604714+257442430+257488767+257539474+257405139+257162581+256996856
2148+256954234+256960392+256962146+256971417+257047150+257269739+257670471
2138+258167181+258626514+259016135+259454553+260077547+260892307+261805762
2128+262765280+263813448+265014802+266385526+267889072+269446419+270961265
2118+272393808+273787873+275146197+276315403+277098429+277446046+277423772
2108+277031348+276206044+275002041+273628375+272278876+271026248+269891098
2098+268882164+267940569+266985558+266060837+265311850+264789529+264384428
2088+263975836+263562375+263226901+263020154+262895452+262765590+262617770
2078+262521672+262515326+262555161+262601017+262664762+262754736+262880470
2068+263128619+263572369+264065862+264310054+264185593+263866511+263603691
2058+263534597+263646244+263797555+263852630+263858444+263998093+264351232
2048+264799420+265172391+265426869+265659382+265942258+266196547+266291286
2038+266219045+266101120+266078828+266243142+266590932+267011685+267370535
2028+267627541+267850182+268101977+268356472+268598239+268980137+269690182
2018+270598288+271251056+271350181+271050346+270699632+270511323+270526287
2008+270671750+270811589+270868332+270886272+270925214+270977451+271020108
1998+271107072+271451473+272332609+273664530+274754426+274917553+274272251
1988+273480401+272948723+272674757+272558655+272538617+272577885+272674568
1978+272844438+273102029+273434373+273756156+274045516+274544325+275485662
1968+276543582+276996104+276632318+276025148+275733328+275762190+275933763
1958+276279248+276833132+277404886+277779422+277949671+278079361+278382670
1948+279094814+280478817+282584596+284704737+285474965+284326468+282382802
1938+281090992+280752078+280833693+280959169+281146927+281440020+281714124
1928+282000887+282814168+284533319+286484931+287661035+288301763+289187147
1918+289702261+288610043+286471120+285162901+285540722+286868738+287884329
1908+287928998+287291315+286673068+286445680+286501495+286653941+286978803
1898+287702058+288704438+289443638+289860882+290767371+292416672+293502353
1888+292836531+291173401+289956000+289556471+289603979+289862258+290246375
1878+290632693+290942367+291310969+292403496+295336901+300407268+305502026
1868+307028723+304128996+299813171+296990639+296168087+296449105+297011176
1858+297497256+297805588+297981410+298187125+298715862+299916028+302026434
1848+305279041+309717092+313932365+314897129+311734720+307561828+305279936
1838+305018492+305415061+305868701+307442630+311299449+316316152+319353343
1828+319278384+318116299+317010630+315098338+312384374+310393476+309952564
1818+310428977+311018981+311903626+313801505+316536040+318584628+318682257
1808+317468811+316699581+317630976+320502803+324425637+327522513+328350913
1798+327638821+327779657+330643986+335694745+339225412+337635349+332731859
1788+329161149+328855432+330668204+332956666+335163325+336943348+337738585
1778+338155004+340201390+345421710+352906653+358623441+358911443+354999858
1768+350163621+346409247+345283901+347474185+351090509+353120865+353482552
1758+353999937+354714781+355340045+357750320+363708738+371420140+376261538
1748+376215888+373758931+371931092+372040726+373890410+376150905+377400471
1738+378601498+382789594+390509012+396210973+394268786+387982394+382164467
1728+378033407+376025171+376310249+378091510+381303662+387768697+398653344
1718+410485658+415302390+410439665+401964949+395384053+392585636+393849065
1708+398564178+404643858+409566647+413862589+420606131+429863460+436274142
1698+436499844+432619598+425773061+418050892+413730250+414344300+418240405
1688+424378187+434144369+446766795+453646357+448747166+439735251+434424424
1678+434794127+439545670+445133009+448786486+451952026+456297057+458795811
1668+456087111+451781777+451270275+454780440+458109038+458284206+457672357
1658+460586291+469741141+485642353+502773385+507888301+502881506+501867584
1648+507126294+511130279+507563457+501074995+498383564+501213836+509258923
1638+521876567+535712713+542826887+540342857+536454183+537980089+545390898
1628+555685438+566195945+576789873+587444277+596484332+604077912+613684406
1618+627414771+641552094+649630722+652502756+655629973+661073931+667448080
1608+672772942+676556660+679731901+683112237+686469801+689201618+691370643
1598+693679952+696634272+699916912+702767892+705091994+707621949+710791067
1588+714154341+717050593+719373318+721694462+724854222+729537171+736219204
1578+744562166+751638018+753677902+753158247+756073007+763967247+773102592
1568+779328405+783878017+790327572+800189869+814565863+836076396+863241350
1558+880380535+879354297+874048011+872367681+873336263+874168069+873486043
1548+872889331+875581794+882314947+890384837+896762564+897909410+888720882
1538+873419031+862523616+858270606+856024525+851484752+846551023+845352026
1528+847889687+851183884+854295621+858966942+864215023+865534491+862238573
1518+858125918+854565184+851001561+848395581+848473120+852303347+860373237
1508+870550643+873875939+863912505+850460853+842737790+841422243+843816316
1498+845911379+844214399+839815462+837809703+841139952+847607602+851115152
1488+847559648+839659972+832533483+828659704+827610762+828016964+829837717
1478+834255781+841463731+849703491+855465997+854215675+845575767+836104330
1468+831714749+832830428+835538303+836115888+836118434+839746936+848156360
1458+856848212+857245401+848557470+839159512+833613385+831821047+832007911
1448+831633082+829260820+826034529+823733819+822838785+823498450+826317852
1438+830578499+832748142+830485273+826989075+825773428+826196555+825851862
1428+824671853+824557093+825742399+826844387+828002860+830697662+833753258
1418+832891730+827191901+820724252+816721953+815319923+814701264+813371682
1408+811906700+811634110+812191330+812272997+812349160+813958624+816977205
1398+819945767+822248609+823494322+822235675+818494407+815176817+814543365
1388+815361823+814524238+811622895+809764646+811356084+815887877+821499296
1378+827197611+833109486+838886578+842782029+843373031+841672748+840150248
1368+840678503+843852987+848890881+853579883+855418937+854092452+851746953
1358+850245093+849718833+849479199+849264815+849426153+850066967+850540731
1348+850175879+849243005+848892876+850238350+853494157+857573513+860507331
1338+861012744+859688185+858090760+857260468+857587686+859153806+861524555
1328+863751648+865251237+866441359+868153337+870798603+874275055+878200640
1318+882091275+885574538+888397723+890365917+891737536+893411261+896109022
1308+899701541+903625820+907471183+910931742+913764697+916169434+918595499
1298+920871440+922134216+921986637+920989778+919574745+917545112+915163905
1288+913515087+913210160+913623517+913687365+912804440+910920390+908498315
1278+906544088+905836468+906019342+906141051+906177172+907171485+909568654
1268+912344711+914177366+914783022+915010823+915922300+917551786+918635610
1258+918311694+917773394+919039541+922475401+926547257+929884594+932505159
1248+934709891+936034038+936056536+935243926+934174619+932843042+931369253
1238+930429774+930474907+931051323+931079325+929828039+927658464+925508705
1228+923803882+922391601+921317271+920934806+921355318+922477946+924332687
1218+926712793+928733069+929355788+928413144+926924150+926280928+927142869
1208+929248596+931949315+934754268+937618665+940467238+942669356+943562532
1198+943371058+943255197+944579619+947775087+951270528+952562819+951274450
1188+949843111+950686613+954013422+958259828+961506277+962833657+963309004
1178+964988302+968419345+972165842+974954420+977006344+978772607+979656839
1168+978822900+976574411+974253061+973224760+974195199+976974421+980492497
1158+983367765+985056282+986069585+986843391+987222417+987444438+988846742
1148+992446692+997035314+1000128062+1001136687+1002063782+1004713520+1008416465
1138+1010741461+1010153418+1007680774+1005580207+1004953911+1005642610
1130+1007547025+1010635645+1013978347+1016241216+1017367422+1018467345
1121+1020332406+1022847775+1025434835+1027089915+1027119706+1026150229
1113+1025493041+1025720085+1026174516+1026540263+1027946420+1031074807
1104+1033831324+1033381090+1030705139+1029731878+1031952641+1035035068
1095+1037016472+1039148894+1042534047+1044963002+1043810170+1040321265
1087+1038686138+1041362364+1046822627+1051999430+1055414167+1057042002
1078+1056550831+1054107290+1051272409+1048861617+1046474149+1044809644
1070+1045526964+1048301232+1050750070+1051846279+1053007573+1055617612
1061+1059445569+1063418215+1065825772+1064643769+1060006298+1055425795
1053+1054633343+1057111973+1058751435+1057492030+1055987074+1058015951
1044+1063634594+1068436293+1068165561+1063770545+1060120990+1060248685
1035+1062682593+1064085517+1063251028+1061916699+1062561572+1066023438
1027+1070462486+1073066058+1072912288+1070964666+1068290022+1065354209
1018+1062330056+1059317943+1056632360+1055494321+1057244621+1061905347
1010+1067970234+1072777575+1073741823+1070237507+1064895444+1061606337
1001+1062424864+1066470920+1070204482+1069408453+1062893744+1054505855
993+1049872306+1051564332+1057389035+1062162044+1062206352+1058606746
984+1055141921+1053734938+1052940423+1050841094+1047688283+1044729009
975+1042354407+1040597020+1039986410+1041042370+1043239190+1044802213
967+1043718321+1039250995+1033170076+1028540449+1026746873+1026223434
958+1024206666+1019932121+1015414640+1012315287+1009804390+1006196597
950+1001534357+997729311+996567604+998022266+1000215371+1001029907+999825613
940+997420945+994960754+993258614+992418002+991790123+990495974+988306998
930+985867447+984114876+983766261+984851186+986594882+987921780+988361213
920+988430771+988677354+988725033+987685379+985420515+982792175+980400923
910+977881839+975062988+973046221+972948798+974187562+975184835+975085417
900+973956735+972300210+971275830+972329519+975432588+978320583+978740339
890+976912087+974744026+973286818+971911484+970020003+968130587+966730759
880+965227042+963245638+961830743+961708209+961947361+961395989+960071636
870+958820419+958662176+960549666+964001556+966486309+966056577+964022609
860+963157642+963815174+963747543+961608585+958724441+957151579+957473843
850+958782510+959979924+960662775+960833815+960466211+959780952+959395940
840+959808885+961136265+963219632+965350265+966596803+966505780+965050567
830+962654018+960252514+958331862+956473200+954828647+954622931+955924029
820+957516982+959482630+962983919+967561258+971048993+972864379+974477697
810+976216576+976404541+973870940+969921618+967058390+966524975+967677738
800+969152559+970527068+972392266+974695177+976148738+975281844+971760878
790+967244291+964631155+965453673+968233445+970522114+972110594+974071082
780+975628740+975294091+974079614+974169881+975464374+976615279+977964194
770+980120008+981206034+978963048+974286705+969995510+967639622+967164894
760+968399599+971519730+976259508+981117487+983716931+982672117+978887023
750+974601195+971634422+970274774+969514315+968712438+968582404+969674071
740+970712143+970142813+968390174+966819375+965920557+965410879+965167529
730+965079188+964503805+963349391+963395212+966733718+973646717+982762934
720+990716000+992379542+985434276+974303424+966049903+963624664+965067079
710+968002754+972973154+980703786+987562569+987903548+981537242+974731711
700+973073810+976621540+981910901+986449780+989408366+988771474+982031578
690+970851327+960823082+955697467+954176343+952953747+951532316+952103916
680+955977763+960092552+958516937+949395835+937996659+930766899+929273571
670+930170462+928995752+925661305+923765903+924837206+928176537+932228717
660+935068552+935256723+932152485+925596564+917571325+912893262+914968441
650+921587866+927259487+929333359+928933900+926068333+918400929+906354472
640+895191352+890161440+892060764+897539260+902408865+904330687+903212875
630+900063986+894709125+886899028+878971694+874385549+874277187+877331063
620+882763737+889693936+894803589+895338105+893924105+895579872+900061990
610+901138521+894586935+884264083+878781390+883791282+895855214+903137744
600+898798664
##END=
