##TITLE=<SNM>
##JCAMP-DX=4.24
##DATA TYPE=INFRARED SPECTRUM
##DATE=2/5/2025
##SAMPLING PROCEDURE=Instrument type and / or accessory
##ORIGIN=Admin
##XUNITS=1/CM
##YUNITS=ABSORBANCE
##RESOLUTION=4
##FIRSTX=4497.3318
##LASTX=599.83466
##DELTAX=-1.4281778
##MAXY=1.8702717
##MINY=0.40535784
##XFACTOR=1
##YFACTOR=1.7418262e-09
##NPOINTS=2730
##FIRSTY=0.42973697
##XYDATA=(X++(Y..Y))
4497+246716327+247566291+248340168+248588927+248298061+247869254+247840099
4487+248155399+248161747+247675520+247294365+247432253+247786614+247849937
4477+247538984+247338183+247827181+248943409+249854421+249672406+248281601
4467+246577960+245815666+246449910+247776143+248814127+249082135+248477611
4457+247255183+246155228+245878049+246356148+246856011+246801876+246327797
4447+246085351+246571578+247613052+248510085+248648709+248010274+247274517
4437+247289865+248087849+248687172+248369340+247668351+247441064+247622069
4427+247618733+247297838+246979065+246927017+247046324+246799087+245686025
4417+244047692+242917931+243011659+244192133+245719971+246785399+246873788
4407+245872693+244208678+242803449+242358851+242700739+243161643+243268956
4397+242894234+242311816+242015696+242075375+242069130+241754857+241290959
4387+240938822+240903781+241118389+241166588+240905133+240810378+241157331
4377+241444434+241171276+240603675+240238500+239972117+239421866+238902788
4367+239274875+240653310+241958858+241989176+240619210+238918358+238190866
4357+238703596+239510751+239788512+239735557+239890418+240431020+241221989
4347+241817342+241682243+240866601+239922755+239095736+238323604+237850997
4337+238015764+238545501+238840218+238893104+239181216+239665954+239812260
4327+239661010+239688368+239614505+238778092+237615138+237296348+237992820
4317+238774858+239003736+238793645+238413020+237983050+237549898+237071456
4307+236513334+236031744+235806716+235815510+236100782+236903917+237989911
4297+238394387+237614299+236493624+236171018+236662429+237142856+237257252
4287+237464281+238160530+238993658+239221595+238505532+237158408+235850072
4277+235240398+235516773+236105761+236216376+235734667+235223528+235220260
4267+235886978+237038452+238170933+238711073+238489210+237834862+237217164
4257+236942397+237046288+237265944+237216992+236754822+236156116+235862716
4247+236098438+236721458+237350244+237706248+237842544+237975436+238225051
4237+238590038+238995352+239289350+239283875+238835701+237967001+237069797
4227+236873770+237778673+239099209+239403729+238032497+236050480+235207222
4217+236054962+237649101+238956154+239735078+239939917+239250271+237724452
4207+236280880+235993487+237055065+238532087+239130075+238360955+237038007
4197+236458925+237077907+238245292+239162943+239593477+239530308+238815425
4187+237600098+236638937+236460670+236613803+236378920+235938838+236083792
4177+236939625+237752153+237929342+237712150+237703168+238095034+238511333
4167+238505088+238062884+237546647+237321311+237569061+238221954+238874591
4157+238948608+238187769+237006200+236249946+236470217+237379655+238167357
4147+238355787+238113222+237828052+237724777+237763394+237691687+237321961
4137+236755284+236178290+235702757+235581568+236120407+237125866+237899469
4127+238057957+237943526+237974256+238038092+237788512+237149511+236310189
4117+235572551+235325999+235801446+236704502+237354299+237364000+236979252
4107+236549675+236001374+235235916+234661368+234745035+235352758+236042917
4097+236651222+237157262+237361006+237067282+236338232+235523993+235228421
4087+235870245+236993590+237509793+236993299+236214717+236052567+236423422
4077+236668075+236579412+236472630+236481647+236417160+236184689+235761033
4067+234943629+233745788+232797031+232720020+233301223+233812293+234000484
4057+234337000+235296621+236678769+237738448+237891649+237253556+236458429
4047+236043311+236084135+236221116+236002127+235425629+234988439+234940908
4037+234896029+234599584+234551694+235269074+236397706+237077103+236887851
4027+236146637+235524558+235559531+236352348+237527536+238444707+238589251
4017+237984128+237165355+236578249+236145234+235579156+234922447+234530409
4007+234632008+235228524+236344888+237860715+239128809+239440071+238901693
3997+238194219+237617088+237095051+236872811+237331765+238211706+238844889
3987+239163559+239607524+240017356+239585658+238150076+236712544+236355171
3977+237278297+238914149+240379485+240979013+240751469+240308633+240017167
3967+239825811+239875549+240471826+241334332+241720997+241467327+241108928
3957+240955555+240866618+240883010+241378031+242503497+243768340+244373856
3947+244262061+244430593+245384499+245896955+244541344+241943236+240032019
3937+239937179+241631889+244425425+247089817+248266339+247572724+246152114
3927+245644688+246605096+247954838+248384089+248182364+248604686+249792004
3917+250291628+248802749+245891822+243330757+242237063+242508322+243923680
3907+247047128+252297240+258335807+262516418+263577415+262146111+258823368
3897+254465977+251204727+250911893+253024681+254515014+253450732+252157915
3887+253542321+256718108+258631310+258854576+258852643+257847475+254807814
3878+252090639+252488938+255886708+260645186+265437611+268285009+267376221
3868+264817945+264031236+264568022+263390456+259909020+256832093+256514313
3858+259753098+266821299+276362056+281698983+276755547+267047439+259558628
3848+256445035+257448800+261070776+265328245+269223517+272861149+275485965
3838+275181188+272043539+268718298+266639148+265054095+263372114+262335978
3828+262423649+263397009+266053068+271576184+277788450+279575655+276793018
3818+273885445+271701360+268160227+263778746+261223584+262024648+265901219
3808+270630422+273721789+276106914+280132768+284278356+284610406+281846590
3798+279525353+277841678+275396395+273042838+272794318+275007096+278566365
3788+282626250+286984581+291371161+295830663+301266006+308128102+315228948
3778+321404496+327533642+335336812+345589218+357724524+369809151+379759705
3768+387447521+393513121+397415699+399465796+401757416+404985388+407125381
3758+407045649+407181398+410834104+419329777+430643710+439144652+441716599
3748+442697334+446838833+453548925+458415332+461171963+466334404+476816116
3738+492453801+509953890+523847127+531152641+534325827+537698821+543443304
3728+551198019+559345781+566769182+573738933+580214586+585027577+587923584
3718+589785269+590998902+591994009+593751118+595831398+595753993+592271735
3708+586893163+581906405+578799126+577344655+576033632+574270227+573147857
3698+573679630+575769457+578730413+582186390+586388560+591018270+593954588
3688+593503026+590902745+588139510+586439342+587049204+591020666+598196522
3678+606471786+611081512+608404099+602519008+598817882+596630768+592291925
3668+585709643+579871637+576375623+575121953+575392767+576681068+579029150
3658+582057519+584222115+584739790+585519382+588818085+593772608+595073365
3648+588475410+577683703+568436567+562463292+558873687+556759530+556206643
3638+557657898+560540662+563137213+565028224+568484235+574937167+580469660
3628+579493168+574583541+571518455+571611362+573774829+576799947+579100601
3618+579581044+579357111+579970190+581273410+582482663+583679324+584958385
3608+585286414+584159562+583194432+584216914+586925261+589374291+590866883
3598+592737601+595470107+597486670+597717994+597627654+599373677+602916366
3588+605667282+605523628+603285733+600566915+598020838+596316016+596254147
3578+597391881+598095095+597327480+595833040+595799163+599298530+605872874
3568+611156316+610457346+604996509+599837490+597441842+596977208+596920472
3558+596709200+596575812+596664851+596625498+595981417+594626867+592761008
3548+590799470+589441430+588944629+588415252+587078086+585737018+585787800
3538+587300513+588936759+589547511+589073090+587857882+586124590+584572388
3528+584432840+585920983+587284361+586404575+583163908+579666456+578262425
3518+579365871+580874888+580437767+578589975+577694722+577946715+577217358
3508+574947775+572961771+571974500+570452582+567708202+565571768+565817192
3498+567893262+569764391+570242542+569895213+569657010+569322787+567869924
3488+565169688+562436635+560579022+559295718+558131840+557107954+556025211
3478+554555991+553279976+553148538+553680927+553282234+551588020+549775372
3468+548479475+547343863+546693621+547220090+548094368+547912764+547160890
3458+547359569+548429617+549022712+548568515+547285655+545201338+542544081
3448+540191789+538935108+538820575+539089678+538635139+537011452+534982980
3438+533666175+533281170+533163146+532877070+532767260+533192746+533676954
3428+533307895+531882614+530190932+529101277+528619738+527951155+526459145
3418+524310255+522029756+519867692+517972575+516763835+516568133+516939211
3408+516839050+516030406+515717262+517003817+519294582+521056721+521686020
3398+521727802+521701864+521518549+520791553+519359838+517598246+515980924
3388+514374005+512420098+510573915+509651114+509409147+508953718+508408326
3378+508719211+509761062+510206088+509511327+508629898+508622404+509562349
3368+510751104+511372601+511002003+509865774+508710759+508446926+509567379
3358+511363259+512171458+511290782+509918438+509297146+509101547+508378384
3348+507190073+506596465+507208928+508210023+508127759+506704702+505346148
3338+505245303+505845378+505832307+504983728+504053878+503495551+503220288
3328+502992488+502459620+501312373+499845925+498850065+498670412+498891026
3318+499029274+499002719+498838157+498509409+498150445+497967883+497855369
3308+497430772+496560978+495683244+495452843+496038820+496817043+496923295
3298+496163551+495320208+495387313+496369313+497127723+496712160+495616311
3288+495218507+496074854+497382112+498214230+498625550+499236713+500225147
3278+501069824+501098124+500103257+498570251+497372120+497061713+497456984
3268+498020616+498410651+498485934+498180661+497651797+497205299+496838807
3258+496203040+495256731+494444699+493972502+493475873+492628047+491625070
3248+490875626+490476112+490117627+489447744+488452637+487428615+486720850
3238+486596188+487136482+487989303+488468036+488121938+486983109+485338856
3228+483642179+482387516+481696074+481223775+480627566+479943311+479489353
3218+479479669+479624247+479286773+478290126+477146472+476213029+475273632
3208+474147053+472978898+471826278+470588657+469332112+468282699+467641971
3198+467460538+467445584+467108213+466327766+465364141+464329066+463214704
3188+462240402+461643270+461375843+461213916+460848930+459967808+458601761
3178+457238622+456337756+455911722+455663869+455336387+454830553+454065402
3168+452922706+451464402+450008049+448846943+448086651+447698293+447450269
3158+446963666+446104274+445085761+444081141+443056742+441970543+440823878
3148+439648536+438686246+438305553+438480586+438594606+438005925+436695382
3138+435211585+434077478+433317357+432548066+431555594+430647782+430218462
3128+430130894+429886977+429300076+428629919+428160802+428005890+428113339
3118+428133871+427541461+426235914+424855665+424158029+424114160+423887592
3108+422849916+421327348+420076175+419373612+419036446+419038362+419449922
3098+419798483+419291930+417983508+416919654+416689835+416700135+416357426
3088+415996751+416021013+416073369+415718203+415191358+414910346+414745887
3078+414250147+413358520+412412313+411558020+410641482+409735415+409218014
3068+409197961+409303289+409165316+408786949+408356569+407927284+407368546
3058+406548506+405520686+404534065+403834137+403403141+402913698+402097628
3048+401118947+400350032+399920917+399698866+399469492+399036443+398414125
3038+397814836+397229202+396426854+395484137+394700542+394022549+393239809
3028+392586248+392439207+392592887+392405569+391591381+390499193+389645106
3018+389210482+389043080+388969918+388934569+388861989+388567461+387907467
3008+387008449+386220645+385731373+385344657+384714947+383683294+382406423
2998+381254795+380470858+379891554+379211336+378464116+377896892+377449265
2988+376789716+375822087+374819726+374098445+373734450+373547543+373290177
2978+372870713+372352388+371794471+371216878+370640585+370055259+369440537
2968+368893947+368610095+368673675+368974808+369280800+369260850+368621833
2958+367460932+366330726+365737700+365681306+365778387+365685139+365326448
2948+364804873+364162228+363354474+362508941+361982985+361925565+361935933
2938+361450665+360388590+359173862+358204591+357510925+356879231+356136152
2928+355307865+354622652+354355944+354500111+354536316+353817224+352383901
2918+351086019+350598081+350668882+350650779+350346772+349906160+349330518
2908+348615088+348060491+347969432+348213315+348406827+348374011+348234463
2898+348130675+348014191+347694443+347041088+346134131+345219577+344521805
2888+344128484+344006628+344033799+344012651+343777459+343309745+342680549
2878+341936067+341160479+340560370+340307726+340362820+340523241+340553286
2868+340270392+339649169+338829164+337998209+337339995+337001460+336941268
2858+336913139+336711859+336295748+335652180+334808050+334003786+333586409
2848+333640305+333846034+333766097+333256874+332598899+332204860+332190899
2838+332287124+332177451+331797955+331243426+330597804+329998105+329612484
2828+329366856+328917792+328077973+327092927+326390125+326194662+326400733
2818+326679109+326711857+326413805+325943695+325499935+325125949+324723868
2808+324238189+323754495+323386736+323165130+323042145+322880594+322481011
2798+321762947+320855750+319947595+319172418+318630995+318341155+318188775
2788+318031467+317800143+317475604+317063052+316594140+316083104+315497675
2778+314803017+314014631+313208519+312500857+312013125+311800176+311759181
2768+311665042+311389814+311032972+310754732+310558380+310272235+309672776
2758+308689543+307591401+306828954+306544828+306391558+305980136+305336122
2748+304740530+304295983+303888085+303474301+303143431+302888050+302531687
2738+301950022+301242531+300616688+300170293+299869434+299672877+299531242
2728+299321475+298980545+298633113+298378862+298087071+297606319+296995020
2718+296388306+295839047+295355215+294902045+294395902+293844521+293389161
2708+293110374+292923021+292730946+292580448+292576102+292655937+292565768
2698+292160813+291617132+291193116+290916279+290651112+290324930+289946837
2688+289537023+289134121+288784089+288476523+288133163+287691080+287212005
2678+286861288+286692705+286517706+286136140+285617353+285163464+284816699
2668+284524874+284333775+284274558+284229645+284092561+283871331+283542668
2658+283061831+282551155+282199086+281979088+281716247+281378876+281067922
2648+280782804+280431745+280046689+279767148+279599045+279420589+279247660
2638+279220952+279300273+279279416+279150990+279142623+279317520+279427570
2628+279262358+278921051+278609413+278328299+277932651+277429144+277039074
2618+276938469+277042411+277090027+276905943+276521776+276044361+275535378
2608+275099899+274910733+274989729+275123956+275139508+275108437+275190051
2598+275386728+275519586+275412068+275092884+274777653+274608659+274504290
2588+274327015+274063318+273770398+273475442+273192121+272949897+272794455
2578+272810264+273053839+273372236+273450291+273211164+272997189+273124640
2568+273426696+273480815+273162127+272743467+272537722+272630508+272901083
2558+273149603+273226460+273148799+273078546+273126436+273233475+273276267
2548+273190205+272971148+272660639+272326570+271996111+271662367+271367137
2538+271157507+270980181+270751543+270485810+270250670+270068861+269917012
2528+269752107+269550519+269396377+269451796+269705363+269842481+269567236
2518+269010619+268592079+268504357+268572180+268576116+268477272+268365066
2508+268346690+268420895+268419561+268221617+267978110+267919766+268027062
2498+268105390+268094697+268090471+268119266+268084431+267935267+267758899
2488+267664094+267626401+267492414+267158088+266730052+266432957+266331736
2478+266278233+266168679+266055789+265945790+265714995+265328981+264974209
2468+264885597+265097417+265388660+265486237+265321778+265030415+264730753
2458+264439305+264167430+263939664+263738726+263555668+263432580+263346672
2448+263157609+262803829+262459665+262350453+262471710+262619231+262633775
2438+262478589+262143869+261670629+261243773+261069613+261152304+261319210
2428+261425959+261421339+261290637+261063419+260827184+260678944+260697389
2418+260897847+261145375+261246374+261214105+261269421+261484183+261625733
2408+261471813+261115604+260834472+260774691+260886024+261084344+261345354
2398+261686918+262197012+263084293+264639969+267214157+271317176+277671059
2388+287034268+299934554+316561666+336860783+360649652+387574100+416940939
2378+447731896+478958436+509899378+539737182+567122876+590531804+609158026
2368+623147626+632779356+638027483+639298811+637550120+633061326+625231601
2358+614115766+600293500+582579642+558935351+531861466+509073145+497004738
2348+497575282+509053024+526165370+541501888+550974052+555643902+557660704
2338+558260950+558442212+559172390+560750599+562423973+562928781+561453265
2328+558127939+553700090+548670763+542827590+535845726+527995333+519704670
2318+510929217+501539968+491820601+482149382+472467725+462296420+451201185
2308+439173362+426644941+414246691+402523389+391722305+381727437+372224544
2298+363020627+354199184+345934083+338218823+330873546+323780125+317008848
2288+310727562+305071331+300114207+295913816+292488603+289697650+287231510
2278+284836940+282502084+280359747+278496539+276899407+275483296+274145634
2268+272857333+271682830+270684695+269849325+269114630+268439990+267843730
2258+267359180+266941666+266473148+265881474+265201633+264515683+263891585
2248+263373381+262969777+262644708+262357639+262114526+261934103+261759891
2238+261486750+261118444+260807696+260672904+260651329+260591599+260417335
2228+260148540+259823693+259471727+259151346+258948783+258897248+258932409
2218+258959220+258926711+258832077+258708031+258603028+258518608+258393569
2208+258206405+258045675+258007914+258071220+258137487+258161765+258170081
2198+258175282+258162125+258158549+258224079+258337107+258394852+258365099
2188+258320835+258292827+258241001+258197730+258254210+258371053+258388180
2178+258250446+258072401+257972240+257948629+257916496+257813461+257666111
2168+257543519+257472223+257450083+257476962+257499068+257424161+257263244
2158+257128145+257057738+256987399+256879915+256744714+256574505+256404759
2148+256363764+256530995+256818731+257091068+257311818+257510857+257716380
2138+257976654+258349272+258838852+259424504+260129120+260967741+261859350
2128+262699117+263523399+264505640+265750618+267162383+268575500+269951265
2118+271359745+272820290+274241757+275485315+276426988+276987882+277146182
2108+276912992+276291889+275287645+273980353+272566945+271257531+270110746
2098+269024427+267895641+266738676+265663153+264796626+264195285+263772672
2088+263364603+262916702+262548722+262388694+262413075+262492687+262516281
2078+262430664+262262765+262142398+262196020+262384382+262555275+262674462
2068+262872576+263213489+263531304+263593909+263383595+263126589+263067662
2058+263269678+263594508+263824087+263836475+263721018+263719307+264016162
2048+264559262+265096082+265432872+265609702+265738470+265793786+265737820
2038+265708990+265861900+266132885+266350864+266486734+266646385+266877744
2028+267106913+267272057+267426712+267649722+267951077+268360754+268948716
2018+269597486+269955680+269839196+269499669+269319691+269424899+269675472
2008+269870541+269920673+269908850+269968854+270110575+270243501+270321094
1998+270400005+270670117+271376735+272448511+273292179+273346725+272748806
1988+272066552+271651587+271559605+271746615+272090505+272452275+272809853
1978+273184627+273502903+273666097+273683669+273709111+274001449+274710959
1968+275577879+276053583+275918655+275537945+275335946+275337178+275380517
1958+275480268+275748789+276158877+276589976+277017567+277532487+278215357
1948+279119302+280383564+282071977+283647295+284039469+282869568+281114820
1938+279955185+279669708+279897731+280284395+280647825+280920435+281133778
1928+281463484+282264805+283694210+285202714+286089858+286591569+287316546
1918+287822415+287171899+285711594+284773788+285002067+285913712+286605103
1908+286551703+285969285+285486189+285453133+285708001+285988516+286358311
1898+287076974+288061336+288790282+289106266+289634857+290728071+291594786
1888+291357439+290379989+289594409+289345667+289470603+289761880+290067017
1878+290329892+290608269+291037656+292054322+294411438+298240854+301930380
1868+302955839+300861427+297820055+295820363+295201159+295386526+295808112
1858+296169061+296429575+296702168+297072561+297642626+298633661+300292663
1848+302912894+306629487+310338553+311507666+309266555+306061031+304284690
1838+304085224+304371608+304678353+305892773+308960118+312986604+315518686
1828+315677636+314982806+314282468+312957141+311059355+309713326+309473002
1818+309836277+310232780+310853490+312288079+314453087+316270696+316796173
1808+316340470+316021988+316801888+319030851+322090531+324460719+325036020
1798+324521391+324850447+327405044+331641332+334635344+333668913+330174405
1788+327692387+327628088+329028697+330718223+332485188+334152710+335137585
1778+335698274+337340747+341362683+347198293+351827421+352358168+349559721
1768+345967447+343281959+342753745+344857602+348080201+350064529+350671140
1758+351261292+351970151+352744336+355063435+360142278+366379113+370144161
1748+370089102+368349684+367301434+367841796+369732054+371919955+373272314
1738+374562805+378271117+384816203+389636003+388231835+383371792+378977479
1728+375974228+374641270+375117984+376766309+379451421+384516986+392821132
1718+401684358+405218971+401633986+395491940+390848576+389072782+390419393
1708+394511718+399703007+403892824+407484447+412993876+420478085+425720669
1698+426252578+423737128+418842181+413027035+409800706+410551347+413958767
1688+419160698+427310239+437819018+443837942+440520897+433846119+430031041
1678+430626429+434533078+439014823+442148998+445239681+449503652+452292483
1668+450706711+447620854+447519324+450674955+453694666+454199269+454139350
1658+457015031+465026428+478651451+493544825+498690670+494850304+493675408
1648+497776664+501625482+499966652+495807975+494416297+497390701+504532987
1638+515278395+527033761+533838300+533543361+532269193+535137653+542363435
1628+551554280+560921355+570909996+581928374+592385481+601367928+610934436
1618+622933959+634971602+642537699+646577326+651296897+657992856+665089665
1608+670808518+674951282+678341010+681402435+683942216+685941121+687832714
1598+690110988+693103084+696704289+700192706+702918094+705052578+707189730
1588+709638350+712365928+715196918+717941332+720623672+723835115+728697177
1578+735605024+742235009+745157296+746221390+750392283+758819688+768148985
1568+774831736+780031066+786906611+796636482+809554734+827072993+848034910
1558+861793322+862900053+860563742+859970511+860577499+861532979+862927087
1548+865146914+868642996+873423068+878860224+883764034+884123066+874936123
1538+861724267+853768477+851356267+849256825+844000074+838440480+836680906
1528+838639775+841648227+844446093+847791198+850921404+851409445+849571508
1518+847545433+845333476+842586461+840795337+841738567+846199848+853717901
1508+860429807+858145852+846273147+835977556+832542316+834237899+838029981
1498+840678785+839494649+835240808+832064200+832853167+836803139+840051950
1488+839201661+835085724+830823943+828166516+826829007+825885230+825474389
1478+826780894+830519526+836015814+840879244+841515661+837168399+831999456
1468+829723235+830242415+830912914+829956818+829114605+831374948+837534344
1458+844177674+844315510+837112484+829746846+826067894+825335731+825539475
1448+824899978+822720872+819846150+817696473+817054034+818175206+821092839
1438+824706158+826201556+824217434+821448381+820382166+820428910+819866545
1428+818626699+818098348+818668653+819448176+820337544+822283614+824499677
1418+823882903+819804128+815348528+812667488+811371933+810155015+808738870
1408+808218458+809247305+810596516+810857681+810907162+812393389+814998050
1398+817051775+817688945+816828869+814619855+812273415+811276050+811248674
1388+810086233+806962392+804457310+805683194+810695548+817097493+822752218
1378+827068613+830296687+832625128+834073781+834988198+836139552+837848480
1368+839686416+841604905+844333852+847824733+850459097+850873976+849559395
1358+847726112+845951140+844280812+842909631+842450609+843173670+844167066
1348+844147492+843090722+842229619+842737643+845048221+848780898+852597824
1338+854826617+855049455+854486337+854520556+855483976+856848312+858139282
1328+859463376+861212820+863494380+866019172+868508239+870956928+873345389
1318+875453660+877402810+879912478+883355178+886975135+889775464+891812011
1308+893803525+896039162+898571003+901744052+905497056+908793980+910793091
1298+911988519+913328970+914796376+915578911+915285101+914419687+913797848
1288+913794289+913962170+913362300+911618331+909501163+908069961+907476114
1278+907033586+906310593+905534218+905008810+904845104+905191748+906091861
1268+907280925+908584830+910268709+912476970+914673323+916307515+917655700
1258+919330340+921249856+922885212+924215945+925564267+926738000+927071983
1248+926312581+925114005+924537267+925153700+926791588+928885692+930534736
1238+930530356+928366033+925187372+922847913+922040466+921911116+921487956
1228+920953788+921105723+921900782+922259677+921434368+919992695+919217758
1218+919864166+921558654+923267719+924389438+925191478+925982225+926541237
1208+926800143+927291194+928419005+929871833+931116880+932032734+932861807
1198+933855477+935041598+936271930+937529022+939063567+941018261+943000809
1188+944254411+944443167+944433174+946014190+950275355+956178103+961362993
1178+964691399+966960845+968957286+970451794+971233439+971541689+971426369
1168+970981377+971129206+972851959+975514178+977323643+977900586+979063985
1158+982180914+985768705+987105871+986096666+985441976+986522563+987319949
1148+985724835+983193952+982804601+985103749+988007490+989876360+990960917
1138+992687366+996644524+1003051464+1009537179+1012738904+1011477021+1007614515
1128+1004314374+1004027477+1007150018+1012112548+1017051741+1021105466
1120+1024187559+1026518737+1028193788+1028530167+1026710778+1023402630
1111+1020584164+1019661603+1020479657+1021292237+1019978545+1017043665
1103+1016412655+1020940185+1028231635+1033351302+1035027242+1035948503
1094+1037623622+1038667526+1038365435+1038689632+1041466966+1045905183
1085+1049599739+1050904260+1049869321+1048150127+1048031043+1049582766
1077+1050038640+1048053559+1046193517+1046821105+1048495472+1049040590
1068+1049047845+1049730869+1050561379+1050622701+1050269554+1050847524
1060+1053240844+1056199268+1057095685+1055996756+1056229723+1059028478
1051+1061308806+1060685735+1058837943+1057438771+1055745242+1053908059
1043+1053993129+1056506629+1058949773+1058986525+1057336660+1056605592
1034+1058394594+1062415195+1067593719+1072245057+1073741823+1070612370
1025+1064666230+1059388606+1056861965+1056564391+1056740554+1056830346
1017+1057816693+1060280985+1063552929+1066410473+1067635057+1066977150
1008+1065908129+1066005792+1066704214+1065467859+1060808173+1054589166
1000+1050256345+1049742161+1052347028+1056135414+1059545058+1061185136
991+1060306787+1058444760+1058067181+1059231264+1059469501+1057523568
983+1054989467+1053513917+1052619142+1051137843+1049358148+1048326495
974+1048016192+1047406124+1046127337+1044550701+1042698256+1040134385
965+1036687100+1032957502+1029751055+1027133322+1024372824+1021288952
957+1018676078+1016593198+1014088800+1011327687+1010014337+1010628374
948+1011146939+1009600554+1006236217+1002368509+998668546+995024498+991002049
938+987115589+985562634+987754675+991301882+991685963+987855075+983254041
928+980859420+980443446+980438245+980521604+981287234+982374392+982551512
918+981611841+980635966+979923582+978359266+975596784+973369839+973680964
908+976526120+979862329+981554147+981146865+979633057+978047593+976515238
898+974492653+971983396+970035410+969511781+969575087+968481223+965886691
888+963193743+961881762+962365491+964101590+966354541+968682640+970396495
878+970301707+968138479+965610196+964448850+964053819+962632678+960545965
868+960041910+961840836+964096799+964990547+964882481+964927583+964972958
858+964230598+963120376+963016554+964507571+966953453+969411791+970673811
848+969042767+964292535+958880770+955380307+953891274+952731366+951054672
838+949771642+949876559+950993145+952306426+953725651+955322681+956935521
828+959057890+962190902+964866672+964933948+962401422+959498092+958668129
818+961029831+966003174+971346022+974046087+972904452+969582753+966336542
808+964293835+963951023+965395092+967326584+967613618+966036778+964890147
798+965637503+966783450+966285965+964634800+963985038+965290995+967766922
788+969825780+969910098+967970118+966087765+966596474+969614851+972781124
778+973455456+971268685+968320527+966832726+966690715+965693418+962857569
768+960022268+959172937+960091665+961746937+963824342+965704095+966142722
758+965150626+964441527+965403510+967753645+969836115+970232310+969341504
748+968570810+968770721+970513116+974228957+978926696+982192959+982444336
738+980275154+977485707+975900928+976739103+979800733+983225981+984562942
728+982516950+978408953+975410150+975752688+979087323+982092832+980802752
718+975358410+970297395+969905307+974818424+981781776+986126231+985638328
708+982135402+978497718+975206406+971211812+966468082+962152782+959253832
698+958232581+959245345+961710048+964512294+966933195+968653279+969094507
688+967752071+964876048+960992189+956162978+950439677+944965358+942237848
678+944226899+948979936+950901505+947558111+942208077+936996154+929899757
668+921331915+918592976+922788781+926601258+926911836+926354398+927574943
658+930025206+932347486+933565089+931891270+927430468+924762638+926715278
648+929060828+927032015+922130601+917618811+913487818+908707199+904543013
638+903535518+906925931+913428960+918555471+918119855+915129265+914308473
628+914047446+910090836+901758630+892000630+885146507+883237394+883365375
618+882519740+882090489+883564191+886537055+889616753+890094733+884834081
608+874930237+866611993+865096611+870497563+878928800+887230619+895750006
##END=
