##TITLE=<SNM>
##JCAMP-DX=4.24
##DATA TYPE=INFRARED SPECTRUM
##DATE=2/5/2025
##SAMPLING PROCEDURE=Instrument type and / or accessory
##ORIGIN=Admin
##XUNITS=1/CM
##YUNITS=ABSORBANCE
##RESOLUTION=4
##FIRSTX=4497.3318
##LASTX=599.83466
##DELTAX=-1.4281778
##MAXY=1.8223588
##MINY=0.32346329
##XFACTOR=1
##YFACTOR=1.6972039e-09
##NPOINTS=2730
##FIRSTY=0.33783236
##XYDATA=(X++(Y..Y))
4497+199052309+198274065+197671259+197052544+196807921+197283261+198195345
4487+198930164+199206307+199404959+200248262+201882311+203254440+203037438
4477+201329322+199623753+198956486+199002773+199083899+199080773+199149695
4467+199316125+199565542+199931222+200372163+200674821+200562404+200051963
4457+199628810+199757891+200376447+201100625+201600602+201621217+201107368
4447+200458135+200183748+200232335+200113562+199669777+199338531+199558589
4437+200175337+200642002+200721846+200795403+201407849+202515337+203304872
4427+202967919+201552541+199820386+198498670+197946805+198140962+198584800
4417+198672107+198453911+198549242+199251049+200290054+201245879+201609013
4407+200908119+199400060+198118995+197777565+198142631+198646242+198990727
4397+199073134+198910690+198682116+198422356+197903731+197215533+197005169
4387+197611451+198430223+198682502+198381337+197986718+197482616+196432548
4377+194878272+193669571+193578770+194357014+195054431+195123598+194793003
4367+194454927+194166737+193827573+193501525+193266928+192998669+192733202
4357+192913030+193699650+194480107+194661446+194482091+194558722+195043667
4347+195496337+195406713+194867473+194593683+194941575+195284304+194868983
4337+193823780+192894733+192670637+193192861+193847801+193754050+192681541
4327+191345269+190585989+190640547+191274275+192225289+193293812+194139625
4317+194349217+193914423+193352391+193071454+193006729+193174599+193940938
4307+195262478+196337884+196584544+196314143+195945952+195345956+194431923
4297+193666041+193537153+194097359+195134591+196332774+197228457+197430639
4287+197025151+196498783+196092927+195509525+194552716+193715138+193627182
4277+194175412+194626994+194505481+194039272+193805922+194067139+194484620
4267+194600057+194465462+194434417+194525446+194511785+194465620+194665081
4257+195073852+195379706+195464484+195536180+195950816+197015792+198601429
4247+199910467+200118443+199269346+198110110+197232478+196817631+196852329
4237+197109174+197248159+197256781+197400472+197612030+197473695+196942603
4227+196549601+196691377+197174988+197594962+197820727+198020679+198410942
4217+199049183+199868622+200797142+201602287+201762800+200955091+199604279
4207+198538636+198172640+198290448+198531682+198858064+199462028+200270282
4197+200829258+200906257+200833402+200925889+200981817+200694102+200133580
4187+199523276+198940348+198499987+198427764+198675636+198847686+198809388
4177+198978014+199634376+200443824+201069211+201705679+202549438+203228944
4167+203267013+202746510+202094836+201496929+200914054+200461155+200329774
4157+200432112+200527829+200674909+201204754+202167603+203091698+203497800
4147+203430248+203215528+202923388+202446450+201934498+201650664+201492223
4137+201147422+200651045+200364068+200493307+200931719+201410237+201621129
4127+201483303+201373783+201668470+202024263+201683606+200626321+199772220
4117+199803897+200398713+200843025+200891033+200690449+200310528+199822721
4107+199558694+199822194+200466195+201043556+201243017+201052687+200745973
4097+200665128+200757369+200585197+200018564+199441238+199129554+199049306
4087+199309452+200120410+201283878+202254822+202642521+202436406+202007757
4077+201922119+202340601+202654304+202175557+201075638+200163361+199936631
4067+200291880+200899936+201450168+201749226+201850107+201930653+202005246
4057+202000804+202072974+202520605+203341132+204085434+204258923+203800967
4047+203095245+202573740+202441762+202707475+203223553+203689481+203865639
4037+203829221+203857264+204100114+204534856+205120663+205728386+206029516
4027+205828564+205459530+205439617+205765085+205986495+205927214+205887704
4017+206137262+206532636+206659610+206250750+205497388+204923960+204928894
4007+205472313+206206447+206853503+207408406+207978164+208530574+208945596
3997+209242864+209489875+209547524+209249571+208781975+208537773+208651911
3987+208996783+209516057+210164359+210587775+210317848+209476091+208953112
3977+209481376+210674678+211468357+211489569+211357767+211525338+211592118
3967+211155005+210740018+211278520+212858187+214478803+215136991+214817230
3957+214211826+213890326+214077354+214914598+216454054+218235692+219246689
3947+218967719+218253129+218253006+218751630+218567780+217455920+216418267
3937+216366326+217650376+220342658+223783350+226121436+225844134+223874133
3927+222587625+223010251+223962810+224108151+224080881+225414203+227967360
3917+229459826+227988607+224407912+221116968+219506871+219496756+220922864
3907+224501470+230856486+238659858+244579430+246223892+243885279+238928872
3897+233147231+229190250+229175289+232484899+235299449+234545647+232533890
3887+233160032+236126403+238247101+239140589+240622571+241314176+238767745
3878+235361645+235297693+239028962+244205181+249132210+252347999+251970308
3868+249336657+248055874+248573690+247872270+244396704+240473016+239175849
3858+242225083+250461793+262630268+270823675+266637522+255440465+245530637
3848+239824924+238579944+241074908+246058796+252438975+259440942+265334648
3838+267142591+264087737+259155264+254994784+251895398+249628815+248768374
3828+249612063+251664225+255361429+262009551+269766215+272811340+269939019
3818+265997139+262536622+257579636+251942792+248831501+249952457+254711037
3808+260112283+262951732+264636265+268809547+274345001+276021351+273467018
3798+270874703+269203375+266972859+264521460+263680265+265316035+269070325
3788+274292901+280196459+285726768+290688057+296371293+303428520+310090830
3778+314661574+318646704+324848108+334763099+348396313+363833922+377552301
3768+387824069+395682684+402003143+407632523+414489114+422918452+429751267
3758+432403092+433705246+438810822+449813880+463169721+471481586+473444686
3748+476030907+483367087+492215083+496063879+496010814+498899624+508022534
3738+522587850+538395827+549444084+552791622+551350817+550500930+553460821
3728+560054297+567082235+570385909+569383323+567179375+566040666+566059139
3718+566990327+568994446+572141629+576306710+580408119+581834877+579123420
3708+573920317+569418477+567897354+568914866+569768406+568594227+566431017
3698+565563078+567534923+572883841+581197180+590954942+598898721+600708911
3688+596234781+590927409+589079044+591246222+596147404+602262379+608992856
3678+616165766+620761269+618271591+611573002+607351169+605971752+602415359
3668+595195951+587920949+583122913+580869517+580607035+582419016+586460934
3658+590964073+592248949+589860905+588800126+593405919+602157583+606898340
3648+601170309+589632278+579951393+574793278+572433997+569776167+565970638
3638+563495709+565129109+570833715+578359785+586104613+592893950+595177478
3628+590387765+582826717+578179623+578557050+583840295+592095828+599275622
3618+602619964+603971777+605987204+608452932+609897460+609842392+608163197
3608+604705771+600902770+599249282+600691071+603815777+606749926+609216707
3598+611850023+614321089+615741455+616798686+619625651+625136294+631856586
3588+637203010+639485345+638811194+635904438+631719972+627886768+625677623
3578+624957115+624796058+624809122+625618341+628328640+634058918+642840714
3568+651462296+654104604+648791753+640047675+633304485+630949665+632425027
3558+635399001+637493588+637777211+636539044+634638598+633799386+635574528
3548+638590715+638576176+633536343+626726426+622123618+620323051+619644405
3538+618642732+617050071+615662506+615614885+617261419+619827096+622260162
3528+624012686+624656142+623572641+620905891+617967738+615831641+614583711
3518+614336120+615496532+617345565+617737145+615385415+611733217+609772224
3508+610976044+613764588+615192680+614083963+612133577+611581431+612860828
3498+615008866+617030474+618253610+618166724+616827765+614883700+612884919
3488+611056467+609658789+609110225+609502367+610324300+610828964+610332307
3478+608211943+604586857+601063897+599671136+600737569+602430460+602816843
3468+601917016+601067409+600905509+600884859+600355049+599292620+598115912
3458+597392805+597469365+597828355+597345886+595815948+594386521+593807965
3448+593271623+591760439+589729910+588364015+587716414+586697252+584773380
3438+582696213+581429424+581078933+580881493+580032799+578754491+578200273
3428+578661355+578729837+577390738+575938343+576170763+577607108+578229457
3418+577341781+576014166+575273254+575074865+574625021+573265061+571085696
3408+568784960+567145555+566830078+568052652+570010975+571029681+570021827
3398+567861005+566447874+566427084+566715308+566130923+564523792+562390996
3388+560451742+559432053+559365397+559298705+558263352+556246626+553964607
3378+552211767+551495403+551803435+552592285+553221764+553552236+554037550
3368+555087969+556274897+556522207+555419811+553819389+552786635+552511862
3358+552377636+551687611+550518559+549858843+550443896+551790932+552925040
3348+553645513+554395557+555043719+554603849+552699891+550690012+550256007
3338+551432294+553043077+554344072+555072446+554771790+553478100+552196490
3328+551667839+551394786+550519016+549165798+548406870+548990729+550283260
3318+550880604+550200273+548918699+548106530+548238192+548764736+548765544
3308+548212098+547878219+547977501+548030250+548081841+548750513+549978038
3298+550898550+550957059+550521439+550363016+550689661+550973600+550927454
3288+550999589+551432786+551783944+551862681+552089130+552635763+553145695
3278+553345208+553214950+552672252+551581691+550031138+548499936+547655878
3268+547793195+548585908+549440291+549903409+549907624+549835805+550050946
3258+550200975+549473409+547804995+546308069+546103675+547061870+548121034
3248+548636234+548728914+548547031+548058381+547456050+546927188+546088503
3238+544377771+542049079+540348251+540463723+542239707+544031530+544161471
3228+542593042+540765293+539771908+539225275+538167868+536796810+536407196
3218+537393206+538366081+537848423+535945834+533745117+532105466+531433071
3208+531602803+531887199+531643471+530815323+529442789+527539322+525758949
3198+525146924+525886010+527063175+527727070+527577005+526816883+525813910
3188+524717274+523356893+521837245+520777484+520340635+519752176+518398150
3178+516692300+515390356+514599575+513931219+513203511+512578493+512194990
3168+511894439+511366490+510498200+509435665+508414430+507590918+506831181
3158+505802958+504580455+503692322+503292208+502945861+502256574+501125416
3148+499676393+498302139+497355779+496791130+496483415+496454055+496427575
3138+495914693+494947823+493904287+492827740+491676563+490727920+490118951
3128+489558342+488847457+488142858+487536874+486912066+486319884+486045216
3118+486122900+486047604+485246778+483786798+482265324+481059502+480151141
3108+479607248+479585333+479876473+480083396+480190053+480340504+480256253
3098+479554885+478386360+477186965+476154633+475352648+474936870+474939399
3088+475049287+474871478+474335733+473677492+473061499+472414741+471643170
3078+470825522+470159625+469864622+470021851+470361806+470422177+470012791
3068+469243291+468070060+466329687+464419934+463352447+463666695+464666753
3058+465196106+464903562+464283390+463836707+463728645+463885067+463922223
3048+463227282+461473704+459002428+456571363+454793307+453857448+453660218
3038+453969022+454452580+454783369+454791481+454426416+453677672+452683128
3028+451724757+450982300+450425869+449908245+449268020+448454973+447563820
3018+446678532+445854493+445296658+445206998+445328265+445019988+444014486
3008+442816356+442138026+442137991+442342772+442175569+441437887+440348065
2998+439248865+438330811+437675168+437417077+437573849+437811150+437687109
2988+437040001+435966824+434678683+433501694+432672878+432097940+431560474
2978+430996633+430336285+429454965+428563286+428164365+428269583+428120466
2968+427098424+425537651+424283049+423782774+423849641+423979899+423743967
2958+423133769+422560938+422320722+422210623+421875444+421306827+420754611
2948+420308631+419818330+419169887+418402811+417532448+416517676+415516213
2938+414886770+414733614+414666045+414182522+413142112+411819554+410710591
2928+410267245+410499559+410766220+410307351+409129098+408054903+407778550
2918+408127811+408332838+407801763+406577258+405268607+404584061+404715583
2908+405151273+405237316+404836569+404191462+403328546+402050870+400467340
2898+399092629+398323867+398043264+397816358+397372906+396792700+396266156
2888+395845848+395452442+394994170+394492525+394142807+394103544+394162088
2878+393871756+393124487+392319061+391884494+391850358+391919754+391803615
2868+391394720+390689841+389763779+388904620+388466577+388411334+388299760
2858+387852340+387176328+386419964+385575590+384668985+383878695+383376664
2848+383129248+382944345+382717088+382504125+382349178+382199640+381974209
2838+381598257+381084777+380610070+380334172+380171499+379879658+379261207
2828+378226486+376880538+375582002+374720665+374413196+374485577+374675958
2818+374769622+374596308+374036681+373139242+372147157+371257760+370461429
2808+369764171+369349657+369287531+369275204+368916496+368168770+367356144
2798+366773761+366388993+365969528+365424301+364882445+364485842+364240920
2788+364033119+363697940+363149342+362483831+361843781+361186663+360381974
2778+359505818+358797953+358335396+357957477+357497976+356928692+356314525
2768+355779869+355452662+355288514+355046964+354562528+353904146+353194069
2758+352464605+351752631+351121678+350566617+350086501+349793044+349736326
2748+349702471+349366484+348595299+347523352+346445962+345676884+345308166
2738+345070970+344633313+344021008+343498889+343130101+342797205+342510737
2728+342277615+341838378+340992564+340020005+339372791+339138966+339112732
2718+339126499+339038736+338651440+337905260+337005854+336231684+335719644
2708+335435845+335217719+334864664+334326671+333776282+333358853+332962286
2698+332403222+331754006+331290852+331138434+331122280+330982048+330634542
2688+330216342+329913999+329770572+329667673+329467492+329092594+328508349
2678+327791247+327162155+326748976+326393850+325893154+325291244+324770143
2668+324437177+324328623+324406518+324527644+324600833+324660395+324624152
2658+324228568+323397083+322421433+321623066+321062878+320664379+320381071
2648+320157431+319913036+319632327+319343682+319016510+318611830+318191803
2638+317854798+317638814+317562149+317608085+317618937+317381846+316862080
2628+316239520+315730255+315419098+315209717+314940738+314591546+314294507
2618+314110096+313923752+313626151+313278154+312991510+312716526+312306508
2608+311807884+311483908+311447911+311453425+311195719+310698570+310253959
2598+310060944+310063297+310095009+310043840+309874074+309602426+309292006
2588+309024608+308839915+308686057+308458695+308132155+307782613+307428364
2578+307013359+306610646+306378121+306265072+306088914+305884695+305773121
2568+305558436+304950064+304137930+303646260+303624521+303742135+303778203
2558+303838257+303936275+303855184+303561517+303358387+303458090+303669473
2548+303650509+303335138+302985209+302835636+302810244+302678055+302386635
2538+302070526+301803970+301543947+301278129+301050240+300858032+300668774
2528+300503256+300388838+300317510+300362849+300646754+301044164+301177442
2518+300879876+300423465+300174504+300247447+300524855+300814905+300961704
2508+300899718+300667509+300398460+300219211+300091623+299891759+299649084
2498+299468360+299290059+299046086+298887171+298920815+298944099+298737949
2488+298424474+298285436+298360381+298420610+298316201+298178709+298192791
2478+298318062+298380013+298307491+298142290+297917526+297623086+297256546
2468+296908724+296752302+296842805+297016716+297106937+297118843+297100335
2458+297052397+297048112+297197089+297427858+297503118+297275826+296805824
2448+296276190+295902274+295835267+296040328+296311660+296460391+296444517
2438+296314786+296131920+295966929+295890685+295920677+296010161+296078117
2428+296034990+295843976+295581811+295360945+295212988+295157885+295289126
2418+295613488+295912073+295965068+295836250+295762921+295835583+295926015
2408+295898833+295799410+295801447+296008194+296363532+296734918+296999016
2398+297062757+296913711+296684171+296593212+296771126+297151223+297545367
2388+297794679+297792115+297394740+296435596+294869837+292839255+290537974
2378+288038164+285296398+282328395+279324622+276571776+274256079+272315104
2368+270556557+269051361+268204142+268190499+268720537+269681946+271483110
2358+274459946+278513910+283535200+289620939+296480198+302923434+307435669
2348+309167649+308477027+306879906+305906504+305610694+305000285+303572720
2338+301683336+299890354+298344261+296815131+295218888+293813869+292777129
2328+291953915+291147189+290344309+289665329+289306199+289425535+289944475
2318+290575780+291117338+291606234+292154358+292739850+293249677+293688107
2308+294206661+294869064+295477541+295741568+295608291+295331480+295179870
2298+295173549+295177622+295153671+295180291+295280698+295367337+295337415
2288+295153671+294882796+294666952+294560049+294427368+294150646+293843633
2278+293669265+293556322+293319898+292953955+292619356+292443180+292422073
2268+292414540+292243983+291936250+291745534+291812191+291965504+291987015
2258+291870928+291723427+291597910+291516416+291507601+291564494+291634382
2248+291656876+291602528+291514818+291485599+291529656+291547760+291481929
2238+291413762+291431216+291511815+291612801+291748291+291890735+291918831
2228+291766290+291530920+291364086+291340679+291473623+291741531+292051160
2218+292263579+292295239+292163542+291959200+291791628+291712171+291691767
2208+291702285+291747062+291775035+291681933+291459926+291261327+291267139
2198+291507741+291810523+291959060+291937075+291936180+292087140+292305143
2188+292440072+292463321+292458246+292493681+292540039+292502584+292340614
2178+292137062+292027314+292051213+292081416+291960535+291741829+291670467
2168+291859988+292166720+292458527+292757515+293016661+293028039+292709349
2158+292298909+292148880+292405356+292918362+293401638+293653848+293655551
2148+293530158+293468910+293608649+293879700+294044972+293979158+293822930
2138+293791270+293928428+294110610+294218830+294254248+294297883+294388474
2128+294483472+294553991+294655363+294858388+295142011+295402597+295576192
2118+295717793+295914952+296153729+296359106+296532947+296730283+296944546
2108+297154102+297421677+297786320+298114194+298224434+298137795+298048732
2098+298050031+298037318+297938176+297894067+298089751+298488777+298872701
2088+299084436+299121768+299063189+299016936+299074813+299237135+299436437
2078+299643254+299861310+300039049+300097663+300046986+300008741+300132747
2068+300486399+300958543+301293581+301318692+301127537+300975962+301041881
2058+301309947+301613273+301771204+301756243+301728183+301858862+302154356
2048+302494627+302802799+303098188+303380968+303557021+303548066+303413875
2038+303280211+303210183+303227392+303368993+303639657+303997769+304411088
2028+304829781+305137672+305260133+305300696+305493957+306035883+306904244
2018+307734710+308017807+307638237+307057891+306772792+306813530+306917097
2008+306943718+306954464+307042122+307231731+307499411+307807653+308077896
1998+308233475+308448405+309152020+310407958+311511582+311718891+311152698
1988+310460566+310007668+309829788+309875970+309991653+310011952+309974655
1978+310021434+310180806+310400828+310650175+310960314+311501187+312431357
1968+313456841+313859484+313350324+312537101+312146223+312229491+312474975
1958+312802779+313192849+313346531+313039308+312567234+312469778+312959025
1948+313892215+315229032+317075992+318977212+319700599+318578116+316560686
1938+315051047+314488401+314555549+314931782+315400801+315730466+315833962
1928+315993650+316815442+318614991+320749578+322249138+323182715+324172237
1918+324748158+323892090+322069187+320897009+321179544+322360045+323347460
1908+323519614+323152337+322909170+323010419+323189458+323334325+323781745
1898+324915748+326575487+328061104+329112331+330440227+332404170+333852561
1888+333606234+332357566+331549366+331559199+331976838+332530108+333132755
1878+333690239+334149178+334610752+335679573+338467731+343324276+348256644
1868+349840771+347192563+343064709+340249123+339378901+339626317+340012173
1858+340068329+339888026+339824320+340103764+340813561+342110693+344237589
1848+347525108+352068424+356434388+357484174+354220536+349794800+347252617
1838+346847095+347284436+347914020+349617447+353447735+358407812+361539788
1828+361657965+360608599+359461181+357350826+354345666+352109127+351540159
1818+351921134+352329501+352931517+354508549+356985269+358974779+359220544
1808+358110211+357146081+357638910+360076015+363691654+366549313+367164955
1798+366303583+366338703+369065121+373939120+377324622+375606374+370450859
1788+366462217+365664271+366971272+368734613+370447066+371873577+372457436
1778+372676545+374455023+379356977+386518333+391924566+391905039+387698342
1768+382603618+378569883+377059296+378818598+382114476+383912585+383922102
1758+383963543+384314701+384761384+386946929+392421785+399429002+403563670
1748+402925657+399881128+397323985+396573942+397646029+399407790+400307231
1738+400999046+404537282+411813127+417496943+415677762+409380763+403512571
1728+399286312+397032846+397032706+398676816+401801733+407985543+418446639
1718+430139862+435384125+431031577+422574318+415529594+412159263+413216214
1708+418368078+425261824+430603718+434520857+440574760+449560002+456223471
1698+456621303+452689976+445902993+438350864+434139777+434786605+438588517
1688+444406067+453707699+465991488+472916772+468356669+459643110+454372789
1678+454418058+458593674+463747715+467368447+470655509+474946493+477151811
1668+473990089+469129083+468063774+471218823+474474911+474608259+473674858
1658+475972679+484404231+499646506+516067035+519971461+513408327+511047782
1648+515279695+518264275+513205654+504747061+499944002+500696434+506696534
1638+517177052+528526175+532681949+527069426+519954954+517731480+520445536
1628+525109768+529567990+533957272+537726278+538801245+538155190+540010192
1618+545930396+551513700+551438089+548064246+546572728+548192923+551124262
1608+553417765+554807506+556228083+558149425+560023076+561339980+562575478
1598+564578649+567414463+570230471+572185317+573255895+573991188+574825166
1588+575961663+577558538+579569224+581616470+583569806+586356032+591603526
1578+599614523+606811525+608024827+605421502+605646758+610171180+614626557
1568+615101932+613663936+613852035+617141732+625314068+640903322+660424676
1558+667717062+658763954+648150545+642277190+640636766+641696948+643898227
1548+647016963+653026581+663773935+678673797+695268307+708429061+709492615
1538+700132965+693010908+693345103+697549588+699928992+700401066+703303186
1528+710185027+718921449+727776223+737456442+747368869+753859411+756120674
1518+757418543+758425625+757610435+756229192+757880643+765110938+778323809
1508+794110504+801366366+792776040+780244274+774194690+774991477+779429646
1498+783521538+784160429+782098784+781611820+785621814+792840660+798296306
1488+797865040+792950864+787891716+785599548+786317317+788488534+791266050
1478+795813300+803325041+812756755+820357559+821369697+815541717+808793751
1468+806124331+807919350+811129045+812639527+813630313+818242392+828489648
1458+840318607+843321589+834599636+823711524+817012654+815172402+816623462
1448+818240777+817071585+813172849+808906132+806297891+806536000+810212360
1438+816320242+821072377+820924033+817605679+814824721+813468553+812408793
1428+811409157+811750235+813968652+816985683+820158713+824212887+828421376
1418+829326822+825868131+821316316+818108728+816040833+814253189+812841954
1408+812541403+813432591+814517216+815012820+815700948+817954414+821904354
1398+826145293+828920632+829205941+827134323+824225390+822448001+822535870
1388+823246474+822567969+820667873+820273343+823344527+829158952+835623856
1378+841513085+846893996+851688907+855005716+856543661+857238321+857552850
1368+857231157+857314881+859771759+864168135+866837906+865145998+860936175
1358+857634748+856590370+857021214+857629340+857684899+857151155+856424466
1348+855842469+855246494+854581194+854875142+857363135+861450743+864628760
1338+864850644+862440195+859361284+857387719+856980265+857410055+857928275
1328+858422334+858913372+859377931+860274035+862304072+865346880+868219359
1318+869919907+870889341+872368496+874635659+876763538+878073489+878939672
1308+880063560+881808709+884188675+886724360+888571988+889347141+889444632
1298+889425036+889547672+889730644+889625216+889091262+888516921+887986759
1288+886647730+883977749+880919699+878519574+876471205+874042283+871378553
1278+869085332+867491898+866796746+867060562+867762949+868040040+867607511
1268+866985126+866783822+867250558+868363840+869785892+870833712+871208154
1258+871614414+872788032+874152558+874461046+873593247+872780656+873326059
1248+875732716+879528904+883411906+886020288+886940555+886754282+886344299
1238+886621180+888348980+891306448+893991460+895319041+896298729+898653760
1228+902272666+905347151+906876457+907845750+909750201+912945778+916715626
1218+920328420+923375864+925314521+925703924+925035743+924602652+925420089
1208+927504561+930010676+932081873+933789233+935853406+938493396+941338622
1198+944300867+947598149+950966794+953513998+954357143+953511540+952478189
1188+953258681+956287722+960259436+963935445+966812841+968369821+968457549
1178+968410138+969918794+972707408+974953008+975981090+976884500+978584977
1168+980979202+983566863+985542606+986245343+986426910+987594838+989793448
1158+991941135+993773239+995266723+995576757+994603530+993802880+994097812
1148+995038026+996493160+998913865+1001699178+1003457742+1004343803+1006252468
1138+1009867580+1013003384+1013304567+1011753206+1011614836+1014468351
1130+1018723267+1021918704+1023345742+1023589119+1022987806+1021891170
1121+1021313738+1022348705+1025083657+1028128010+1029505881+1028638574
1113+1027116784+1026710735+1027227480+1027316824+1026931143+1027445922
1104+1029180957+1030539513+1030455156+1029766256+1029540509+1029957656
1095+1031403799+1035308154+1042603420+1051719552+1058956239+1061120291
1087+1058439985+1053714891+1048698729+1043784974+1040286248+1040316099
1078+1044350606+1050188701+1054680041+1055846985+1053806553+1051143104
1070+1051509117+1055999333+1061226000+1062787124+1060871787+1059792079
1061+1061917570+1064920201+1065493911+1064142730+1063979566+1065231569
1053+1064883748+1062303391+1061075128+1063498150+1066687195+1067036773
1044+1065949268+1067087977+1070654624+1073586666+1073741823+1072005805
1035+1070775294+1071045924+1070947449+1068092810+1063514024+1060736929
1027+1061150986+1063149626+1065151778+1066839683+1067724479+1066963443
1018+1064653154+1061846769+1059545471+1058179119+1057568043+1057404106
1010+1057609273+1057557296+1056179214+1053985942+1053172157+1054806400
1001+1057478699+1059251944+1059409489+1058066456+1055592300+1052819419
993+1050584145+1049001247+1048128532+1048546803+1050919745+1054948141
984+1058578706+1059124882+1056010360+1051794848+1049300744+1048401620
975+1047181434+1045351507+1044083278+1043033210+1040613419+1037281228
967+1035529757+1036116109+1036447495+1033168615+1025628076+1016774918
958+1010642172+1008820954+1009385321+1009129723+1006690546+1003318530
950+1001036546+1000572339+1000928519+1000330859+997637348+993470722+989598325
940+986921952+984385986+980629835+976666198+975351331+977817339+981482391
930+982694570+980830015+978035571+975890202+974404163+973570852+973861921
920+975125303+976305101+976534149+976024990+975804300+976413269+977040640
910+976628410+975372262+974304564+973513326+971821418+968807829+965885902
900+964443130+964102192+963746293+963470887+964516951+967494718+971227901
890+973296289+971972010+967883208+963098271+959053930+956151459+954423097
880+953838150+954090868+954350541+953734477+952485775+952212687+954138841
870+957462182+960248619+961212855+959733489+955588426+950112411+946357314
860+946914095+951775171+958157053+962425806+962829117+960422811+957656954
850+956625640+958010395+960300315+960583096+957636163+953284037+949851194
840+947980107+947010744+946023399+944934419+945019127+947416231+951624087
830+956340261+960685925+964053376+965974262+966305718+965071204+962892893
820+961134539+960352151+959600949+958217810+956882995+956396241+957165143
810+959658334+963488447+966659862+967236521+965299550+962570849+960361563
800+958727250+957283214+955594607+953429782+951744757+952345438+955299254
790+957859031+957573932+955393584+954378776+956711121+962005639+967155536
780+968693200+966462912+963513522+962310053+962917968+964029565+964116591
770+962100391+958127693+954301584+954014940+958835277+965599258+968408874
760+965026181+959228263+956224999+958410123+964329414+969727534+971073306
750+968748548+965519397+963038428+961567982+961616376+963741727+967070406
740+969231087+968478059+965985290+964685453+965411932+966415150+966758055
730+967320596+967982876+966978956+964202844+962437817+963801641+966813895
720+967640674+963737162+956335695+949490097+947094819+950069496+955680369
710+959869893+960018096+956833617+954163214+954962881+957954204+959752173
700+960144736+961808549+964088776+962535238+956129123+948959866+943890954
690+939581743+934764778+931332005+930799315+930753660+927633871+922140577
680+918426639+918483532+920268155+920961411+919602082+915842630+908807739
670+899705725+895394898+901987216+912670302+918006752+917509112+915401882
660+913644231+909986413+902215983+891759768+882642934+878964536+882690766
650+891738275+899592711+899760370+892998988+886732508+886746696+891737081
640+895046234+890884876+880630316+872541986+873579410+881278267+886051755
630+883775532+878041460+871544808+864614432+858512731+855740201+857737788
620+863441095+870151343+874925183+876024206+873878416+869779851+864523473
610+859504501+857554817+860897403+869057517+877134188+878287998+870804984
600+861605830
##END=
