##TITLE=<SNM>
##JCAMP-DX=4.24
##DATA TYPE=INFRARED SPECTRUM
##DATE=2/5/2025
##SAMPLING PROCEDURE=Instrument type and / or accessory
##ORIGIN=Admin
##XUNITS=1/CM
##YUNITS=ABSORBANCE
##RESOLUTION=4
##FIRSTX=4497.3318
##LASTX=599.83466
##DELTAX=-1.4281778
##MAXY=1.7351308
##MINY=0.19224483
##XFACTOR=1
##YFACTOR=1.6159665e-09
##NPOINTS=2730
##FIRSTY=0.21350926
##XYDATA=(X++(Y..Y))
4497+132124809+132362984+132794591+133202999+133457476+133541297+133453714
4487+133061324+132308329+131636334+131727449+132686860+133872735+134595087
4477+134636426+134105819+133189904+132184479+131466608+131186680+131098692
4467+130847718+130424990+130263269+130813461+131946591+132830019+132668122
4457+131598186+130533127+130104498+130120358+130119814+130037211+130048774
4447+130038225+129685772+129065498+128668424+128758515+129124874+129549732
4437+130124075+130879725+131366752+130975155+129774572+128689080+128490280
4427+128832552+128700228+127723047+126599960+126113135+126093319+125713184
4417+124740218+123958213+124117048+125020081+125946868+126477290+126602136
4407+126442876+126152510+125888064+125705641+125547599+125382604+125292254
4397+125361607+125515094+125562556+125392876+125028196+124554751+124117076
4387+123886905+123916672+124052712+124051412+123780216+123302991+122776663
4377+122358205+122208028+122378786+122679951+122880171+122938200+122822096
4367+122451514+122041355+121993506+122206036+122058110+121338099+120607863
4357+120413904+120702380+121216555+121888154+122565285+122897756+122772163
4347+122410489+121891381+121078200+120082060+119293868+118965852+119089600
4337+119510890+119944932+120135156+120126737+120120430+120159924+120278085
4327+120636375+121153887+121394662+121191252+120995458+121224347+121588178
4317+121504229+120962372+120522548+120533909+120737596+120701421+120437298
4307+120444491+121168899+122482894+123709794+124193732+123846470+123097063
4297+122416778+122031340+121961481+122082481+122182909+122108061+121841264
4287+121478400+121230386+121379014+121991413+122652398+122718717+121987604
4277+120994932+120539700+120956646+121862390+122582723+122827610+122884597
4267+123112592+123466409+123656043+123490320+122950022+122225069+121655632
4257+121364869+121181671+121116431+121461590+122274974+123277467+124227731
4247+124916850+125074468+124783714+124600387+124854265+125199535+125124991
4237+124625598+124193501+124284856+124863597+125421508+125479353+125093168
4227+124802728+125047763+125663814+126045940+125871245+125509451+125515278
4217+125851419+126033575+125967145+126082309+126570480+127012332+126888039
4207+126194061+125560462+125691302+126467986+126922232+126493630+125875191
4197+126146618+127470746+129013740+129829807+129599747+128677341+127625413
4187+126874245+126702481+127125449+127770020+128234160+128537105+128950888
4177+129570489+130255209+130797361+131049542+131044923+131020486+131178722
4167+131432545+131515527+131324362+131014382+130762413+130656904+130835989
4157+131380648+131994670+132189975+131869022+131351629+130845920+130325567
4147+129872216+129667035+129696367+129817552+129956295+130027519+129973446
4137+130001764+130376247+130922539+131200826+131179847+131292226+131809296
4127+132504990+132973879+133026532+132664978+131926618+131027919+130439154
4117+130432515+130768379+131133575+131514974+131872139+131968233+131772909
4107+131555713+131494539+131588255+131794542+131950307+131910868+131927060
4097+132393755+133178572+133715172+133756880+133586343+133573940+133882519
4087+134445916+134988658+135188905+134930398+134342565+133678794+133231031
4077+133200214+133514860+133906088+134241389+134577244+134827102+134720321
4067+134235931+133714859+133390078+133194395+133098467+133197420+133405625
4057+133478639+133390134+133382157+133606887+133899605+133967501+133777148
4047+133677891+134022248+134689254+135141490+135019023+134526896+134093076
4037+133786498+133372549+132896301+132799451+133322884+134081208+134449355
4027+134300793+134167223+134543808+135222683+135662848+135829844+136093948
4017+136387893+136127145+135107906+133967344+133502596+133819547+134377448
4007+134723871+134922514+135282989+135951803+136797112+137453809+137518763
3997+136956279+136231344+135822301+135763968+135865106+136065907+136346997
3987+136599575+136798522+137067099+137420179+137665288+137720588+137893762
3977+138598225+139721931+140526961+140406661+139556134+138675047+138266907
3967+138447403+139131626+140118212+141134537+141974561+142516676+142617307
3957+142226254+141646351+141449183+142078226+143550161+145238711+146033008
3947+145501765+144758139+145083380+146034474+146023215+144579598+142796069
3937+141945357+142780651+145331680+148445146+150162984+149637836+148243294
3927+147904396+148982448+150227412+150632371+150800492+151812473+153340639
3917+153598252+151379205+147725404+144768707+143593455+143984913+145895363
3907+150199481+157287380+165172858+170257192+170951088+168444709+163896902
3897+158250517+153836989+153152803+156040599+158894157+158637660+157438866
3887+158903028+162292541+164203433+164586390+165575383+165816499+163069224
3878+159899066+160226382+164106057+169180764+173801234+176320634+175183253
3868+172543830+172028236+173250451+172623446+168891808+164803106+163476119
3858+166736535+175605271+188442445+196017427+189518634+176324949+166108590
3848+161601743+162167040+165984915+171129242+176738428+182737801+187646212
3838+188345401+184441972+179573543+176297654+174132091+172179556+170857714
3828+170609995+171392802+174382779+181186296+189429649+192814588+190653838
3818+187986991+185108739+178954247+171290797+166821334+167561796+172579756
3808+178732403+182955292+186351979+191413960+195869666+195248987+191405956
3798+188735587+186743253+183482893+180167131+179070084+180503428+183599947
3788+187809003+192559013+196866405+200745453+205640143+211777299+216754630
3778+219020612+220815022+225374411+234195658+246972857+261451682+274245646
3768+283930790+291298774+297071471+302785263+311038501+322333853+334070789
3758+344495290+355671171+370735820+390896919+413773406+432762637+444327100
3748+454052228+467834908+484243492+495334317+499139282+502551645+510720602
3738+524565875+541196580+553500436+554770786+546999116+539000383+537017861
3728+540982943+546550560+549201657+548095333+545039979+540959779+536203075
3718+532599243+532825236+538229675+547264503+554921203+555911782+550967370
3708+545744663+544231390+546670878+550687747+553335008+553881899+554080229
3698+555529950+558832802+564431955+572815250+583763404+594520569+598953646
3688+594310621+586583766+582159099+582479075+586032559+590982577+597070454
3678+604769756+611088607+610382152+604902394+601283808+598331030+590365604
3668+578480022+568577699+562743442+559982834+559597535+561633983+565465395
3658+569156017+570861719+571718369+575487371+584294804+595907328+603240954
3648+600424650+590662195+580999255+575189821+573200364+573368928+574732855
3638+577179758+579963197+582325892+585989736+594516918+608485534+620511979
3628+620833615+612982606+606610530+605234911+608229737+613759474+619140749
3618+622626882+624986035+626801506+627528064+628500495+632731185+640022430
3608+645659096+646358211+644177654+642719449+643522136+646169656+649912064
3598+654357055+658873749+662542314+665153022+667698961+671509901+676405698
3588+679364599+677304876+672036911+667915032+666714505+667939228+670713705
3578+673674745+675057041+674276706+672755059+672474882+674110134+676557885
3568+677466727+675210261+671097897+667861254+666691046+666838954+667059083
3558+666932715+666576703+665877588+665014630+664816559+665814662+667516454
3548+669149051+670400110+671054742+670566977+668553066+665560526+662911015
3538+661854338+662787082+664857944+666581350+667565954+669143666+672030125
3528+674370393+674201977+672382153+670530166+668033727+663993290+660382339
3518+659791813+661422933+662435938+662490380+663310699+664137435+661952895
3508+656793961+652446789+651549603+653493802+656452629+659095501+660516747
3498+660397978+659251081+657535937+655331552+653364336+652954915+654309473
3488+656251828+657606091+657464896+654899557+649985317+644755344+642029407
3478+643214222+647202283+651088985+652567550+651924353+651016101+650698670
3468+650456041+649973145+649429315+648656947+647600492+647207890+648637767
3458+651904656+655633860+657782180+657072147+654405669+652256906+651999819
3448+652413298+651255336+647843563+643638988+640856470+641009985+643555702
3438+645685063+645066283+642626425+640891953+640604915+640622178+639967841
3428+638711691+637651695+637656416+638704240+639779212+640021619+639519911
3418+638932484+638803239+639150325+639538649+639697401+639709130+639514231
3408+638820944+637512713+635989001+635148395+635456605+636139786+636183531
3398+635520563+634501583+632994248+630921099+629195037+629118169+630948984
3388+633402932+634637836+633832345+631783540+630123354+630002445+631254980
3378+632860134+634310593+635788273+636741672+635848838+633150639+630555202
3368+629403805+629233618+629419223+630246033+631640132+632390000+631541133
3358+629522721+627568342+626937759+628153999+630016167+630291918+628286416
3348+625648634+624398681+625322277+627842544+630397408+631618296+631872064
3338+632809012+635065331+637237109+637457090+635457195+632607621+630586627
3328+630495964+632272928+634371896+634954602+633769567+632025209+630442408
3318+628599125+626447486+625170090+625826714+627725914+628893540+628480799
3308+627846749+628468110+629825767+630514186+630450596+630640774+631399348
3298+631918243+631330594+629816251+628647740+628828106+629742924+629757014
3288+628327432+626748392+626546263+627973116+630072158+631731532+632667596
3278+633288220+633734969+633740501+633431923+633239974+633045518+632462295
3268+631751893+631506314+631770852+632102299+631990169+631166014+630028707
3258+629570082+630187829+630918960+630628160+629460239+628374939+627931362
3248+628152155+628652461+628617273+627706513+626809621+626976562+628153557
3238+629594204+630548193+630113321+627925903+625453587+624897512+626639656
3228+629026989+630379704+630188419+628860344+627351385+626584402+626663926
3218+626680229+625436842+622711717+619653005+617711462+617496128+618558042
3208+619620252+619335648+617625041+615905839+615522052+616402973+617392740
3198+617512173+616854259+616323781+616546713+617260360+617650860+616952151
3188+615025066+612654700+610829417+609759388+609187268+609218620+610030713
3178+611104984+611305526+609797527+607039833+604622032+603707879+604049100
3168+604674741+604762637+603835058+602034082+600145247+598716181+597577731
3158+596488596+595478763+594561696+593741230+593120790+592633025+591937340
3148+590814455+589492540+588400528+587555681+586607409+585593629+584979829
3138+584847486+584714184+584099167+582760690+580895166+579477166+579472223
3128+580406369+580709377+579676787+578089374+576967301+576797631+577604007
3118+578680048+578722834+577292588+575645459+575127670+575341344+574780436
3108+572803188+570290668+568631219+568558704+569756207+571144404+571678865
3098+571173801+570274992+569535119+568799451+567701906+566381872+565257180
3088+564407316+563699349+563220436+563138884+563397299+563713660+563657780
3078+562911600+561840907+561431781+562087150+562802900+562227386+560313101
3068+558181711+556691379+555863167+555351354+554810770+554023647+553157223
3058+552693064+552837321+553237152+553369310+552948381+551994097+550785049
3048+549644754+548629426+547577765+546511019+545693799+545198768+544688761
3038+543789804+542645121+542015091+542634608+544249906+545606898+545537002
3028+543745579+540835514+538024226+536339770+535706162+535327945+534890934
3018+534643658+534565352+534318961+533811647+533167453+532313127+531023634
3008+529398341+528078564+527713737+528143371+528464859+528050938+527124981
2998+526265454+525743239+525363731+524649493+523214046+521224921+519515494
2988+518925668+519364044+519827170+519529030+518667253+517882123+517431427
2978+517167627+516888556+516413111+515590358+514436453+513168537+512079475
2968+511382131+511060495+510838227+510445146+509889070+509198881+508116902
2958+506584853+505209123+504618929+504671564+504817185+504864139+504847836
2948+504545934+503661694+502278181+500813152+499691964+499171630+499184023
2938+499172847+498430466+496869021+495206364+494247247+494203244+494629559
2928+494756000+494082520+492838431+491583831+490426754+489050175+487324924
2918+485497724+483971245+483090140+482887347+483022530+483112013+482884987
2908+482062455+480652348+479347363+478970216+479457206+479853829+479340502
2898+477975469+476487203+475606135+475576553+476071732+476435417+476117064
2888+475109887+473933297+472970050+471967262+470523369+468891658+467794666
2878+467495641+467559820+467487084+467110490+466379727+465247363+463930649
2868+462913586+462448837+462300376+462131591+461874061+461607273+461358448
2858+461090996+460678993+459973497+459088851+458372916+457862836+457135135
2848+455967140+454723163+453797464+453114283+452434754+451751131+451163629
2838+450653844+450116801+449490017+448843721+448332239+447919646+447269956
2828+446135822+444694584+443321325+442241337+441460338+440805411+440059932
2818+439219585+438500035+438060147+437885792+437843928+437699745+437230460
2808+436432309+435486324+434541851+433669820+432928730+432309913+431684899
2798+430936949+430112757+429370672+428779961+428224144+427550221+426789103
2788+426108393+425534170+424831035+423734449+422336809+421117286+420401683
2778+419909418+419151288+418171700+417390443+416743077+415667700+414114074
2768+412871055+412572362+412918379+413164105+412946411+412304726+411243955
2758+409717661+407969025+406560725+405912991+405880422+405927634+405702821
2748+405222654+404508970+403424962+401991175+400520318+399305812+398390257
2738+397655253+396994129+396443512+396139803+396031509+395806733+395295288
2728+394694212+394219910+393791862+393143095+392093685+390753069+389493194
2718+388604011+388023739+387539662+387071483+386553030+385805412+384802402
2708+383854979+383270649+382959194+382581604+382005905+381401437+380889734
2698+380319236+379492758+378502363+377659176+377078830+376545808+375884315
2688+375223634+374720783+374263006+373663922+372963221+372330241+371791390
2678+371230815+370603404+370009595+369547575+369150879+368644746+367971597
2668+367287421+366790361+366486836+366183569+365740028+365258460+364917939
2658+364668045+364250619+363544717+362716063+361967116+361305661+360661984
2648+360071273+359563037+359008474+358306777+357599547+357084303+356742307
2638+356422515+356068347+355693007+355230398+354597602+353866802+353213425
2628+352694234+352209530+351684253+351154846+350661548+350158181+349588458
2618+349021464+348630485+348483388+348408364+348149691+347615230+346908111
2608+346200623+345631416+345199458+344735004+344144847+343617726+343323385
2598+343033618+342428301+341659289+341187864+341167356+341336473+341402903
2588+341279154+341032727+340739861+340369611+339847875+339218878+338608176
2578+338084818+337677388+337385112+337085571+336610125+335964051+335317755
2568+334776101+334293020+333825063+333458390+333287171+333232618+333157410
2558+333094337+333110972+333056752+332728735+332181585+331670767+331412832
2548+331468528+331670140+331660845+331207936+330455117+329740142+329243229
2538+328903262+328599847+328307166+328071361+327912314+327787496+327627895
2528+327398361+327146253+326977726+326959247+327055332+327156987+327159347
2518+327049947+326911887+326780171+326560928+326199936+325828063+325608525
2508+325532025+325457629+325262582+324925344+324537168+324191557+323826360
2498+323315801+322739770+322363582+322323931+322486261+322581940+322403639
2488+321982082+321602722+321507633+321607480+321629094+321455551+321168919
2478+320851599+320487324+320031244+319501725+318992604+318617337+318432618
2468+318376332+318308058+318196482+318201609+318419082+318618186+318440917
2458+317832207+317100523+316562484+316272126+316108542+315978929+315845553
2448+315674076+315474012+315295195+315120139+314911408+314778254+314874155
2438+315120582+315242892+315091517+314777479+314491253+314275182+314017578
2428+313673590+313371504+313192944+313018331+312761945+312589435+312707282
2418+313074913+313481937+313788081+313965202+314005074+313920608+313792654
2408+313688197+313552129+313303193+313027884+312937443+313113863+313409716
2398+313621103+313682627+313663041+313623501+313553309+313444941+313309943
2388+313069085+312580213+311843918+310979707+309893707+308179060+305520623
2378+302133711+298718618+295976213+294142742+292941698+291884966+290546416
2368+288790827+287055249+286111237+286164646+286608112+287054751+288054145
2358+290345929+293966580+298588931+304283064+311088886+317974066+323210310
2348+325734117+325843628+324962229+324429354+324145635+322988411+320371248
2338+316811309+313156649+309668009+306147297+302770638+300228093+298902969
2328+298361795+297842051+296981196+296021526+295472532+295601666+296211962
2318+296858867+297212297+297267274+297307903+297646137+298357664+299284837
2308+300214575+300964204+301423383+301666749+301934643+302363005+302808390
2298+303054817+303126392+303271848+303637450+304068541+304324577+304409486
2288+304520233+304705819+304799488+304694532+304484824+304326827+304301082
2278+304378466+304429146+304304088+303968473+303549461+303233746+303114312
2268+303158666+303331251+303646690+304036157+304291695+304257650+303994311
2258+303705207+303590293+303754578+304140946+304543470+304765923+304777560
2248+304689331+304623289+304654881+304823297+305112032+305459542+305840083
2238+306251865+306631613+306935156+307251647+307657952+308077203+308449721
2228+308866649+309393272+309966333+310567998+311301453+312219037+313231710
2218+314249510+315305633+316494579+317869756+319440349+321172423+322958350
2208+324678400+326311734+327924375+329589799+331376685+333333978+335424721
2198+337523098+339539186+341547049+343699057+345963417+348097241+349973535
2188+351721175+353436984+354994482+356217362+357070655+357666087+358192618
2178+358815677+359558426+360232238+360521342+360287234+359775051+359327343
2168+358969634+358475709+357703525+356673295+355431162+353971371+352270427
2158+350331281+348152826+345728018+343127453+340438438+337637183+334712253
2148+331723697+328674318+325893902+324512492+325627742+329007978+333428145
2138+338049113+342704568+347328967+351901026+356512182+361090954+365488621
2128+369863937+374574277+379766369+385287180+390888030+396447053+402015334
2118+407669705+413455053+419440206+425617788+431863385+438219674+445058785
2108+452907913+462471706+474780505+490779520+510638865+533606604+558171346
2098+582027420+602601850+618500982+630078502+638396695+644357504+648419630
2088+650332477+649547642+645722611+638220680+626260701+610110163+590802357
2078+569092538+545900686+522676929+500578085+480166464+461784652+445572922
2068+431491070+419442272+409054730+399824449+391734648+385041084+379556089
2058+374877654+370909437+367606475+364795924+362467828+360697541+359414317
2048+358568807+358179930+358235847+358921573+360667959+363820948+368739281
2038+376178213+387091290+402125325+421410705+444502525+470444472+498012635
2028+525687358+551538421+573833197+591815510+605730311+616485964+625096468
2018+631951440+636802827+639348176+639464363+637236003+632951904+626731204
2008+618304459+607376739+594046415+578902427+562737171+546026611+528866424
1998+511587395+495060816+479991188+466091140+452417935+438617809+425361733
1988+413414664+402947451+393854861+386078470+379432377+373529698+368060342
1978+362989084+358455939+354548840+351206853+348400102+346301466+344985895
1968+343962525+342429703+340179728+337815448+335912522+334477850+333329736
1958+332476811+331896023+331345332+330612578+329735199+328928565+328435267
1948+328454447+329151939+330477617+331685337+331522195+329666667+327354652
1938+325868157+325325544+325217140+325228574+325281319+325315143+325272983
1928+325285819+325829243+327196048+328730936+329529013+329896201+330620103
1918+331082565+329994426+327796938+326290119+326350906+327322194+328031452
1908+327872146+327105495+326364959+325985045+325866239+325863399+326112224
1898+326856928+327924634+328724518+329212209+330212341+331928260+332969150
1888+332102762+330139715+328665576+328159701+328184598+328307830+328354563
1878+328343313+328408489+328730899+329830657+332668613+337494218+342241479
1868+343421167+340262092+335769188+332785353+331751213+331737676+331929514
1858+332025821+332015272+331976911+332005018+332327170+333327929+335347890
1848+338700425+343392987+347767048+348485970+344761488+340113335+337614905
1838+337292679+337686056+338208529+339939903+343979345+349073804+351973910
1828+351592152+350101194+348717164+346584299+343739741+341704252+341179159
1818+341404231+341652134+342330630+344283719+347303774+349772439+350241393
1808+349097963+347993631+348344775+350670548+354274822+357277948+358080230
1798+357302218+357388013+360246328+365235628+368578906+366853692+362018386
1788+358565266+358183840+359654253+361477360+363260630+364705151+365259050
1778+365526244+367477931+372657889+380206479+386017352+386195100+381941800
1768+376811563+373022827+372069502+374449975+378117359+380019694+380167123
1758+380522361+381239144+382060679+384775329+390978582+398657672+403071679
1748+402379830+399335615+397112382+397073948+399073511+401677248+403119113
1738+404161257+408077540+415762789+421767934+420271849+414465845+409202859
1728+405575900+403913612+404590264+407070916+411220275+418611662+430356640
1718+443151286+449211832+445771768+438631198+433200460+431498078+434103733
1708+440696010+449164988+456515397+462879542+471538402+482838217+491089427
1698+492738215+490498200+485694689+479736867+476775310+478936466+484842096
1688+493206247+505349580+520708054+530245290+527226525+519894116+516776980
1678+519795265+527263373+535341851+541226309+546572248+553234054+558023364
1668+557215107+554560801+555973785+561793547+567213588+568600863+568489213
1658+571779893+581603724+598617957+616560766+620286613+612162398+608386092
1648+611696838+614131642+608718056+599830693+594322239+594069800+599042612
1638+608872788+619810135+622915026+615502688+606844823+603713670+605825548
1628+609863883+613689024+617591476+620997826+621733236+620775189+622304508
1618+627627948+632130552+630826674+626502370+624164610+624729686+626442322
1608+627600284+627858183+627829265+628142860+628926072+629836021+630577332
1598+631372422+632576047+633864803+634481444+634382224+634270168+634467575
1588+634684384+634869915+635427466+636525011+638046805+640554457+645437197
1578+652962365+659521742+659953073+656595742+656260385+660344200+664200508
1568+663876291+661886871+662120868+665845350+674339557+689841808+709040582
1558+716609644+708855863+699773195+695369811+694920922+697135487+701143171
1548+706940139+715763653+728493492+744168954+760621505+772922226+772400454
1538+761622707+753898434+753890836+756883449+756526920+753653445+753804820
1528+758583987+765201568+771600127+778834348+786674808+791562490+792426776
1518+791724120+789463744+784721535+780312618+780725728+788139947+801670113
1508+816092376+819571132+807436319+793476296+787216720+788310281+793624278
1498+799099905+800475856+797310769+794568309+796870586+803838867+809752243
1488+808967998+803054770+797612709+795678763+796736178+799014480+802048035
1478+806700909+813058673+819637524+823912181+823022150+817279846+811832031
1468+811042548+814708384+818681175+819134489+818032075+820590850+829016008
1458+839062107+840886283+832652926+823617840+818902852+818024034+818940106
1448+819248906+817554269+814948061+813380456+813325129+814520566+817493557
1438+822174463+825507523+824515543+821768656+821150466+822307322+822280322
1428+820390417+819059982+819851235+822032825+824840056+828390442+831237950
1418+830109643+824876867+819055187+815010175+812970666+812354025+812687759
1408+814024981+816173892+817668686+817356567+816664238+817589384+819846661
1398+822023161+823601684+823866222+821699903+818428145+817102873+818471816
1388+820161289+819618123+817469508+816789721+819500460+824835556+830703710
1378+835979421+840982995+845762089+849207427+850744196+851483368+852557085
1368+854085593+856358583+860099148+864582425+867015938+865455636+861206946
1358+856773759+853394961+851113930+849640381+848677834+847945523+847315014
1348+846882945+846758053+847042804+848134964+850422487+853312044+855204088
1338+855109516+853716744+852316523+851655030+851985297+853151079+854499072
1328+855496290+856426747+857838403+859622669+861369682+863244095+865695314
1318+868523347+870918058+872375894+873084230+873521020+874110218+875140928
1308+876676074+878566495+880528547+882101611+882871324+883052797+883376203
1298+883989967+884134777+883313942+881932162+880277509+877853733+874362658
1288+870465186+866918636+863753401+860920130+858904964+857913205+857160902
1278+855783401+853894382+852185655+851121012+850806753+850985497+851108618
1268+850922793+850799302+851181208+852052649+853072293+853881988+854369680
1258+854885330+855950785+857505849+858720024+858888514+858322553+857990885
1248+858562599+860097008+862146772+863909572+864897937+865488316+866280971
1238+867351147+868679812+870627405+873365292+876402389+879078604+881197269
1228+883015470+884684729+885887691+886422300+886956245+888468154+891092067
1218+894073393+896673479+898843265+901138387+903981470+907029632+909514267
1208+910964062+911427336+911658751+913069743+916399927+920450102+923250030
1198+924449819+925508488+927654447+930573660+933117237+934670900+935489153
1188+936131687+937184749+939124374+941761123+944154948+945645686+946691223
1178+948282729+950943527+954377947+957558009+959424308+960028629+960527828
1168+961699733+963226839+964715658+966378426+968399198+970733565+973529287
1158+976791824+980221007+983826425+987594800+990557242+991570468+990799206
1148+989494074+988560592+987945058+987341770+987089109+988097540+990625331
1138+993805836+996939350+1000064454+1002703342+1003584742+1002306830+1000404679
1128+1000421277+1003674667+1008398507+1011144656+1011000067+1010420533
1120+1011486726+1013892428+1016414539+1018092577+1018626153+1019080427
1111+1020871628+1023558171+1025428379+1026412983+1028156160+1030856055
1103+1032500160+1031768070+1029892107+1029080198+1029960639+1031098536
1094+1031184625+1030940226+1031877027+1034219361+1037346900+1041165512
1085+1045673502+1050047895+1053164368+1054369912+1053616428+1051408945
1077+1048573387+1046282987+1045718428+1047038683+1049147020+1051146989
1068+1053366275+1055602750+1055978090+1053371070+1049480975+1047307647
1060+1048875253+1054489050+1062509139+1069843908+1073741602+1073741823
1051+1071749452+1069756491+1068006822+1065968862+1064263676+1064079990
1043+1065234633+1066351431+1066683911+1066793754+1067613261+1069254857
1034+1070578580+1070284829+1068407539+1066149598+1064527550+1063637520
1025+1062975289+1061767606+1059926463+1058901213+1060014249+1062154012
1017+1062609613+1060185173+1056667689+1055123395+1056624681+1058718485
1008+1058442218+1056304742+1054943323+1055360122+1056598345+1057366878
1000+1056730541+1054744366+1052395024+1050055051+1047556325+1045693420
991+1045413907+1045787919+1044555154+1040666755+1035584395+1032194089
983+1032209728+1034012142+1034019593+1031020045+1027544093+1026310000
974+1027081557+1027609010+1026485277+1023878184+1019854344+1013881658
965+1006625453+1000540563+997541679+996698418+995220443+991761163+987528334
955+984027078+981464910+979585850+978031007+975728877+972005870+967937474
945+964996720+963277223+962357168+962609239+964053059+965005794+963632424
935+960497583+958020840+957562214+958559211+960147103+961929747+963094865
925+962388446+959675862+956574365+955101849+956069264+958441991+960102989
915+959902409+958751824+958203789+958488245+958406287+956985114+954632452
905+952574943+951650388+951698486+952033474+952152022+951855246+951275859
895+950938658+950965510+950279010+947978651+945463548+945170019+947168586
885+948957279+948537677+946386628+944210349+942654621+940927083+938275212
875+935373482+934036481+935296541+938160647+940544514+941067541+939829096
865+937978141+936830064+936882810+937480491+937923478+938590725+939891874
855+940732258+939669827+937186298+935182124+934574705+934654007+934706752
845+935123108+936600198+939041162+941440741+942789915+942638908+940920370
835+938254261+936221096+936021696+937072471+937934396+938242974+938784370
825+939997438+941263916+941765328+941660944+942013710+943609569+946305039
815+949297210+951479021+951980286+951101099+950138184+950048701+950753865
805+951432325+951338416+950713956+950797094+952423346+954502028+954960064
795+953906854+953460031+954199646+954526224+953328500+951508086+950351009
785+949763877+949502068+950757775+954350136+958168011+958876863+956217025
776+953414811+953300468+955695178+958197740+958480868+956060854+952131514
766+948303164+946122164+946652420+949566100+953174543+955589909+955837849
756+954500331+953370032+953727594+955014432+955775661+955713252+955830619
746+956812493+958177011+958939863+958983461+959574503+961799027+964734395
736+966318894+966079142+965677245+966251911+966580333+965086129+962643689
726+961230410+961100576+961279098+961434900+961623160+961501145+960900070
716+960442403+960736744+961380310+961556767+960859644+959427185+957972226
706+956761371+954516560+949774573+943245737+937606047+934936692+935403359
696+937941699+940795183+941945031+940145715+935463629+929325108+923670295
686+919423671+915926400+912411866+909350941+907318292+906171174+905369224
676+904417669+903074472+901107404+897358135+890287313+882406575+881021033
666+887154242+895164151+901214517+903506098+901381606+896464268+891465562
656+886707641+880849740+874855439+871435478+871307266+872783250+873561962
646+871991480+867781224+863322734+862668250+866346478+869438755+867902944
636+864691604+864655973+867020807+866866849+861991929+855089819+849732888
626+847373661+847162311+847382661+847606404+848432255+849419736+849443711
616+848371690+846423803+843499278+841291869+843445869+850272587+856259880
606+855720992+848191914+838620375+832986070+833738004
##END=
