##TITLE=<SNM>
##JCAMP-DX=4.24
##DATA TYPE=INFRARED SPECTRUM
##DATE=2/5/2025
##SAMPLING PROCEDURE=Instrument type and / or accessory
##ORIGIN=Admin
##XUNITS=1/CM
##YUNITS=ABSORBANCE
##RESOLUTION=4
##FIRSTX=4497.3318
##LASTX=599.83466
##DELTAX=-1.4281778
##MAXY=1.8434573
##MINY=0.39422357
##XFACTOR=1
##YFACTOR=1.7168534e-09
##NPOINTS=2730
##FIRSTY=0.41119334
##XYDATA=(X++(Y..Y))
4497+239504044+239906991+240831584+242102153+243099497+243179017+242435961
4487+241529629+240832174+240284959+239979741+240248957+241072974+241873817
4477+242093752+241759215+241420721+241682142+242658291+243766383+244247583
4467+243892806+243037144+242179278+241958215+242881541+244493607+245409157
4457+244792472+243333370+242320751+242197713+242342363+242010569+241294072
4447+241009372+241599237+242492446+242759093+242084534+240904265+239933150
4437+239713442+240207626+240676033+240362101+239365435+238454312+238190824
4427+238644580+239619167+240684504+241239687+240965801+240111789+239104759
4417+238195667+237706638+238085839+239235262+240233143+240276939+239554210
4407+238755624+238257864+238209259+238792754+239874808+240743732+240661226
4397+239612640+238364116+237754149+237873438+238135433+238200389+238326066
4387+238633992+238765067+238557040+238301555+238098320+237680149+236950251
4377+236128109+235451589+235073690+235028297+235243979+235793503+236686503
4367+237235767+236510226+234690601+233092300+232604694+232792949+232727906
4357+232246047+232085756+232907534+234457231+235802356+236243214+235737278
4347+234598027+233207492+231979087+231271165+231205202+231632539+232319821
4337+233075896+233703135+233978843+233782447+233242592+232717613+232531701
4327+232675744+232833291+232707927+232249327+231699595+231525626+232027848
4317+232914790+233543018+233577076+233147605+232564092+232219401+232497209
4307+233356933+234129777+234128058+233553364+233416317+234286178+235496982
4297+235942978+235283296+234000958+232729608+231900730+231673123+231940239
4287+232566905+233533662+234676471+235410987+234941747+233027830+230664011
4277+229619816+230905123+233679163+235895693+236181469+234884151+233181263
4267+231800727+230975668+230854939+231328293+231945724+232448397+232926004
4257+233296386+233328118+233255992+233577319+234255419+234847263+235210858
4247+235451294+235413313+234914945+234368806+234514914+235557737+236850230
4237+237364360+236521596+234816000+233593862+233815341+234958376+235592159
4227+235196225+234830217+235620940+237148418+237931850+237318134+236181626
4217+235607799+235646318+235604866+234980509+233902204+232942512+232515835
4207+232500699+232683086+233241585+234221517+234979207+234865160+234064630
4197+233245091+232758006+232573674+232635454+232910121+233287655+233660276
4187+234053832+234550898+235134185+235674196+235943030+235793537+235495142
4177+235582716+236159163+236706361+236803622+236647741+236635955+236784996
4167+236872796+236926018+237118196+237211725+236712836+235762014+235174579
4157+235292340+235484449+235197510+234881061+235268003+236179091+236752987
4147+236637777+236199036+235708167+235171853+234791559+234839330+235290986
4137+236013055+236883889+237548310+237619793+237243925+237021803+237322716
4127+237907131+238248490+238108614+237684055+237310444+237257309+237554246
4117+237709277+237102712+235938899+235111549+234929682+234804248+234362175
4107+234068049+234452301+235309352+236022551+236368232+236577230+236763194
4097+236770675+236502466+235970388+235176054+234373388+234198882+235016719
4087+236291836+237010902+236715787+235860091+235123596+234727089+234637692
4077+235050117+236049387+237061763+237419803+237223581+236916072+236459573
4067+235651474+234729832+234106395+233958394+234292150+234923971+235388177
4057+235292236+234714053+234063935+233749240+234008839+234791733+235726030
4047+236356792+236483215+236287375+236095561+236034598+236016840+235921367
4037+235646995+235226742+234974989+235232314+235902481+236493006+236626772
4027+236349935+236036056+236140885+236900553+238056572+238958582+239126076
4017+238693115+238135276+237703184+237419925+237381423+237640953+237976809
4007+238144824+238283433+238795670+239802891+240846495+241275723+240945717
3997+240302561+239835733+239764007+240135067+240814972+241430285+241726147
3987+241930320+242401799+242969983+242978229+242142165+241127602+240994842
3977+242097449+243709984+244744736+244689830+243801083+242627375+241614322
3967+241108212+241447002+242738714+244464289+245657629+245871696+245648741
3957+245665996+245944933+246316183+247149313+248968104+251331802+252730878
3947+252414637+251725167+252204823+253152173+252626101+250432691+248267473
3937+247585138+248909849+252014866+255497019+257024479+255540607+252828190
3927+251619574+252695657+254328606+254649099+254119191+254610233+256692651
3917+258618545+258108061+255104018+251755666+249937882+250049464+252084839
3907+256629760+263829640+271714442+276821611+277362647+274120808+268516278
3897+262413345+258458429+258548971+261957298+264962486+264482726+262723632
3887+263749773+267511505+270420074+271382631+272306009+272330763+269240291
3878+265335368+264736910+267925475+272594563+276989140+279664878+279106570
3868+276963102+276503340+277407936+276335204+272256433+268055544+266866057
3858+270303129+279155869+291969375+300145594+294934690+282556262+272130374
3848+266999076+267370952+271705728+277487716+283064299+288267860+292099496
3838+291867653+287387810+282425950+279609555+278232959+276914584+275913873
3828+275962756+277044966+279954195+286387672+294863033+299226903+297242180
3818+293475831+289781087+284297217+277841313+273846280+274446179+279541822
3808+286294941+290631471+292711216+295965275+300011551+300832825+298539256
3798+296490688+294647716+291357863+287798117+286477763+287889372+290868088
3788+294681461+299237805+303944300+308294839+313087989+318937971+324369226
3778+327874952+330850092+335981251+344819218+357397983+371819893+384743193
3768+394657191+402687979+409716859+416490670+424644809+433948753+440570190
3758+441887471+441195276+443927291+452685269+465296043+475125817+478851304
3748+481802662+489345498+500171452+507655963+510423042+514292918+523206743
3738+536982007+551723282+561771220+564845652+563656165+562269622+563403943
3728+568258508+576083562+583521933+586717806+584794186+580303459+576896990
3718+576900357+580839078+588193017+596854030+601939084+599229254+590737592
3708+581550229+575543429+574901609+578850050+583367163+585205101+585301893
3698+585708919+586942914+589362854+594112260+601574204+609163700+611581349
3688+606737025+599134475+593354102+591064838+592551575+597217729+604386103
3678+613595165+621405741+621994409+617321450+614603357+614592664+611561768
3668+602819794+592230786+584042555+579869630+579167333+580431601+582371121
3658+583640458+582960553+581733085+584062066+592607192+604830555+611447201
3648+605772924+593587958+582899173+576417682+573566691+572786140+572551520
3638+572062491+571556347+571856166+573964656+578951217+586470896+592306123
3628+591701971+587282241+584594839+585431319+589107889+594658086+600497757
3618+604147595+604665231+603702310+603446721+605001365+608080865+611330064
3608+613062878+612656268+611372767+611304721+613766669+618119602+622290409
3598+624978159+626495794+627251730+627192641+627570783+630994541+638218185
3588+645336983+646783448+642394824+636250266+631290541+628969338+629751520
3578+631978084+632924202+632164239+632119523+635402814+642976618+653457585
3568+661943414+662275174+654313091+643975437+636326505+633036339+633143824
3558+634433991+635519048+636435170+636797897+635755057+634767903+636604938
3548+640461275+641824557+638715894+634480374+632735201+633799080+636149307
3538+638361221+639518073+639152013+637101466+633756308+630371850+628033843
3528+626474617+625145913+624842206+626687226+630125773+633086679+633739436
3518+631951421+629305055+627257841+625859841+624910738+624803669+625195073
3508+624645427+622839360+621463233+621971148+623753538+624945663+624317071
3498+622095853+619465040+617420881+616150155+615732644+616730144+619142793
3488+621244652+621018226+618671609+616035518+614099747+612623564+611404637
3478+610677725+610687515+611326245+611972683+611994277+611266045+609845063
3468+607733622+605248899+603182452+602368260+603176272+605110377+606710015
3458+606559966+604731958+602775078+602102255+602756539+603857774+604718418
3448+604966369+604224667+602698700+601218907+599959291+598423186+596957349
3438+596411939+596442004+595647740+593360559+590399445+588044357+586870632
3428+586593449+586750510+587013112+586974923+586569285+586512002+587175520
3418+587510473+586592754+585253497+584511170+583814462+582440903+581078350
3408+580589912+580565505+580252806+579823769+579856959+580470796+581590154
3398+583140181+584497144+584563593+582965830+580626886+578606682+576856440
3388+574794644+572685321+571472122+571471914+571996112+572119601+571537634
3378+570861201+570910951+571446813+571327767+570277011+569293399+568995315
3368+568841552+568129290+566922931+565963412+565914461+566640713+567471952
3358+568164494+568844677+569137379+568546281+567502781+566827667+566487540
3348+565806142+564493270+562944910+561927552+562080795+563335585+564768128
3338+565276702+564566559+563399465+562594646+561922587+560671061+559152141
3328+558450017+558658495+558702238+558018688+557146657+556811461+557382770
3318+558621694+559408563+558675680+556965988+556049137+556829201+558476680
3308+559728172+560214250+560186823+559761049+559048753+558547538+558745705
3298+559475082+560039343+559876380+558859057+557384228+556427313+556966647
3288+558999732+561316005+562487578+562021289+560507021+559001641+558372042
3278+558828887+559944322+561127768+561940849+562183002+561989314+561668422
3268+561374713+561298404+561850236+562901756+563420364+562761915+561622699
3258+560923526+560620512+560079130+558796566+556726785+554731439+554145826
3248+555055942+555783896+555006470+553642389+553594965+555440298+558000357
3238+559484560+558745045+556117912+553425232+552551465+553655999+554979807
3228+554621801+552414575+549856147+548464397+548514043+549138227+549387706
3218+549131804+548892601+548986095+549222659+549429609+549561813+549233213
3208+548164717+546944922+546048276+544676350+542122713+539432464+538133930
3198+538297553+538983151+539634102+540163646+540379623+539989573+538969369
3188+537733777+536742075+535825745+534437154+532685454+531324151+530626158
3178+530097899+529380603+528743748+528561620+528655704+528338110+527187368
3168+525602867+524267220+523214450+521909320+520337907+519331555+519345997
3158+519618841+519220077+518379292+517971918+518210635+518463725+517930917
3148+516213587+513680503+511394260+510153982+509756017+509422695+508700504
3138+507752616+506945715+506462657+506379301+506826356+507718454+508392735
3128+507982723+506346458+504283621+502639996+501548482+500769112+500264599
3118+500034145+499813446+499389825+498859691+498289319+497584313+496814317
3108+496284564+496256547+496703152+497242660+497331779+496626391+495209749
3098+493599800+492506203+492290608+492595878+492688990+492123131+491029708
3088+490027486+489773286+490214544+490491449+489997595+489119453+488495791
3078+488096332+487500131+486682398+485998466+485494682+484714617+483414174
3068+482144455+481672056+482010411+482487671+482610362+482375013+481889768
3058+481201080+480370953+479368627+478046173+476468720+475116790+474540933
3048+474748265+475078289+474822665+473883039+472795587+472222924+472353982
3038+472669528+472490595+471834887+471339679+471339852+471482749+471209836
3028+470321627+469104887+468003443+467197861+466577774+465967964+465217617
3018+464288476+463447795+463092046+463208036+463205224+462423667+460833403
3008+459147145+458099375+457766400+457752826+457679850+457291849+456556639
2998+455726268+454919610+453970090+452971236+452332090+452057163+451633333
2988+450741444+449562823+448465442+447736030+447419373+447258145+446954403
2978+446516165+446248252+446354973+446628615+446659652+446216485+445244329
2968+443839282+442483534+441785125+441706802+441560955+440921634+440055540
2958+439363865+438834946+438163616+437192537+436135601+435373659+435028429
2948+434783567+434198719+433202122+432131785+431220002+430356373+429589675
2938+429402166+430027183+430767323+430559713+429310582+428121720+427857104
2928+428055861+427782080+426902758+425813431+424561106+423041214+421598394
2918+420832147+420991153+421730911+422361795+422333361+421541840+420286321
2908+419070345+418309548+418018130+417853119+417520665+417023339+416553786
2898+416255876+416030561+415613258+414958696+414395025+414192449+414116349
2888+413643186+412623641+411547645+411052124+411285598+411830175+412096735
2878+411740465+410873989+409891140+408989391+408041884+407051398+406400586
2868+406367604+406613403+406471826+405703253+404684714+403873612+403402324
2858+403179612+403009809+402630452+401958602+401223253+400681870+400374309
2848+400163123+399846223+399318554+398669651+398067930+397710167+397815673
2838+398282865+398513284+398059042+397165174+396254433+395370181+394456594
2828+393622682+392884695+392112581+391355082+390864942+390721317+390668893
2818+390399452+389859354+389209236+388600536+388109390+387781831+387579255
2808+387321409+386833075+386132478+385406746+384799817+384253227+383620988
2798+382919975+382372170+382146194+382051312+381595473+380526386+379248856
2788+378447613+378347176+378568638+378601307+378206224+377505939+376856343
2778+376474833+376113807+375330306+374144325+373089646+372464491+371906582
2768+370998653+369989072+369472131+369552223+369783198+369804341+369572360
2758+369046739+368164015+367151968+366390929+365880618+365276084+364519176
2748+363955748+363727377+363556741+363251332+362886904+362393535+361526920
2738+360374720+359378158+358741163+358240088+357692178+357262689+357189401
2728+357426903+357687040+357722764+357458079+356913919+356168294+355394061
2718+354785743+354394861+354098062+353721482+353150451+352386703+351573727
2708+350900973+350434233+350128269+350011861+350160868+350405591+350322061
2698+349712528+348873027+348199510+347769431+347457531+347178924+346863447
2688+346445623+346000477+345708226+345640319+345667572+345541513+345041861
2678+344145042+343087585+342211631+341695002+341395009+340998675+340397891
2668+339845364+339636574+339770548+340049398+340313597+340411118+340147614
2658+339492462+338701809+338032319+337435458+336756698+336144457+335923932
2648+336058566+336105400+335792145+335311344+334963580+334793847+334643799
2638+334365643+333944903+333501979+333179489+333017915+332920463+332702681
2628+332257014+331731914+331386823+331206397+330877137+330222194+329463237
2618+328977368+328948031+329276354+329685949+329863494+329621201+329042359
2608+328437998+328086346+328017571+328035138+327882312+327418662+326731917
2598+326069475+325604922+325296840+325001985+324683002+324444008+324344230
2588+324274066+324116692+323926684+323811526+323729767+323529344+323143599
2578+322692794+322374713+322213312+322001224+321611347+321214111+321017715
2568+320975533+320892524+320653078+320266500+319841872+319547434+319465848
2558+319481020+319414710+319238623+319001503+318623605+318034243+317449637
2548+317174293+317175856+317172384+317046429+316888882+316758344+316632459
2538+316506262+316395826+316280113+316104061+315854616+315608574+315470503
2528+315497027+315662039+315808928+315730537+315413081+315058721+314810943
2518+314666414+314636835+314744077+314907422+315031954+315127947+315244528
2508+315360172+315363504+315133780+314707520+314314415+314134093+314080211
2498+313938912+313665096+313441551+313461895+313715853+313975990+313964984
2488+313597293+313077851+312675338+312417110+312143815+311811223+311556675
2478+311503418+311622881+311779283+311876700+311923290+311902911+311718180
2468+311408883+311229325+311319694+311474603+311371701+310920653+310361876
2458+310058690+310125416+310298969+310285151+310108197+310003038+310107190
2448+310346670+310524354+310491511+310275014+310030152+309872535+309788380
2438+309705510+309617397+309595768+309650448+309641144+309440894+309147254
2428+308982208+308987381+308989637+308901733+308870453+309058794+309431694
2418+309811675+310053169+310159196+310260085+310437873+310616077+310701933
2408+310732207+310784005+310840525+310809835+310645865+310460439+310450822
2398+310629617+310771264+310764667+310804801+311059279+311357744+311400169
2388+311125763+310686831+310106357+309101080+307267065+304392675+300614939
2378+296329044+291915875+287532980+283242815+279258459+275808610+272806755
2368+269976890+267319344+265158083+263747742+263111390+263285810+264581115
2358+267533186+272495462+279347404+287736008+297000686+305527586+311141594
2348+312543759+310309210+306791854+304370456+303346571+302527935+301212147
2338+299601643+298051373+296598937+295213818+294187086+293856229+294025130
2328+294145460+294003466+293823144+293871158+294268464+295071997+296300749
2318+297780543+299083764+299865147+300272035+300809911+301772416+302970929
2308+304039356+304843688+305497729+306079766+306519635+306755366+306817163
2298+306761025+306681036+306733216+306995610+307356011+307611497+307647741
2288+307546263+307519704+307663087+307830424+307848512+307721308+307517551
2278+307216968+306788348+306313622+305940306+305738876+305650451+305564525
2268+305413678+305210304+305038522+304980197+305005610+304998354+304928989
2258+304917185+305056957+305240890+305240022+304976031+304644098+304486724
2248+304510784+304549007+304549945+304643647+304899028+305145764+305128996
2238+304805881+304400556+304177358+304258041+304645140+305261963+305916351
2228+306348860+306412115+306174267+305816296+305467733+305184613+305025955
2218+305041335+305173191+305271337+305239293+305126982+305076607+305188988
2208+305416733+305594938+305612123+305519289+305428676+305365734+305298521
2198+305254256+305297965+305400486+305430100+305336397+305271823+305418400
2188+305712769+305889758+305820774+305638091+305498354+305430690+305443188
2178+305561123+305732245+305867191+305960651+306053554+306147222+306242660
2168+306376287+306557928+306736133+306830182+306771753+306573586+306386737
2158+306405832+306678016+307045707+307278071+307242937+307005817+306788278
2148+306757102+306858025+306945756+307018072+307169753+307378578+307514080
2138+307535431+307562823+307749290+308115176+308520259+308820494+309006892
2128+309110315+309084346+308940096+308876285+309075737+309462176+309828861
2118+310112293+310373125+310598441+310710925+310739844+310826811+311057127
2108+311377672+311688150+311963910+312269978+312650237+313028344+313275428
2098+313381247+313489356+313732343+314077295+314376524+314547611+314632426
2088+314687141+314719740+314743730+314775531+314785287+314768761+314817018
2078+314989425+315198840+315348472+315488626+315721510+316048721+316428668
2068+316872460+317341284+317643325+317606941+317296290+316927071+316674988
2058+316651623+316897978+317295006+317613190+317729181+317730223+317794832
2048+318012579+318328577+318661863+319008551+319343713+319525458+319446858
2038+319207273+319017578+318993900+319081319+319148150+319160301+319225812
2028+319409988+319612078+319716890+319767022+319956613+320532574+321558612
2018+322621033+323020734+322501605+321519589+320661098+320176652+320111175
2008+320437032+320949669+321346454+321504730+321538510+321595412+321698037
1998+321832115+322208590+323219665+324834439+326226293+326484834+325601207
1988+324296632+323211575+322640475+322619957+322949563+323342425+323656756
1978+323889189+324045834+324122386+324136620+324230669+324742507+325846902
1968+327011427+327292256+326481049+325432828+324985703+325141514+325465046
1958+325741118+325995944+326257886+326521773+326769967+326980494+327196505
1948+327617835+328650295+330584435+332797320+333703652+332473477+330261216
1938+328726569+328299441+328418904+328569820+328654218+328777569+328987088
1928+329343948+330246982+332053570+334160915+335502047+336180355+337017946
1918+337557177+336557073+334422128+332959798+333086169+334167615+335025516
1908+335007012+334318080+333589120+333205284+333121095+333206361+333577767
1898+334483890+335784160+336846026+337499858+338534992+340267736+341413027
1888+340731699+338960627+337601476+337121717+337215905+337564224+337876958
1878+337992359+338075438+338457086+339697017+342714096+347746900+352715060
1868+354068448+351021026+346659274+343913616+343214234+343456561+343600569
1858+343346854+342974059+342852479+343112200+343850291+345352824+347825847
1848+351312860+355732278+359865243+360921727+357903572+353700062+351245543
1838+350816957+351129205+351551889+353027760+356609169+361245848+364085417
1828+364192555+363438945+362622705+360640204+357616355+355436382+355076154
1818+355659024+356084659+356592644+358178256+360795425+362894125+363159470
1808+362133016+361490294+362605902+365885340+370278823+373462268+373803192
1798+372311283+371722302+374114711+379156334+383132862+381885883+376790831
1788+372857977+372481780+374352977+376316106+377779964+378845093+379186365
1778+379288191+381047563+386019265+393350984+399135072+399777830+396287345
1768+391587897+387545232+385941220+387847655+391479648+393522974+393603761
1758+393584528+393699616+393902157+396244747+402374446+410061221+414376417
1748+413603365+410597222+408265846+407599273+408401175+409614998+409945160
1738+410296708+413846282+421492680+427682337+426051002+419512748+413199567
1728+408558722+406111147+406148642+407828442+410772232+416687899+427174595
1718+439403999+445332997+441287729+432883902+425951016+422695082+423555135
1708+428060999+434261592+439539917+444079770+450844381+460188215+466980496
1698+467695986+464245357+457653187+449816191+445137052+445437045+449114483
1688+455051432+464773096+477816101+485518012+481142998+472005107+466069998
1678+465547050+469450776+474518193+477969448+481064641+485487704+488290403
1668+485790196+481186325+479971633+482713230+485380184+484953056+483735830
1658+486015477+494453848+509543928+525814886+529902857+523454590+520643837
1648+523940425+526012393+520621271+512264069+507573405+508279070+514006708
1638+523900292+534222184+537017905+530318632+522650987+520048816+522238545
1628+526260136+530094253+533749195+536563906+536789881+535643340+536996380
1618+541971449+546231271+544982418+540713847+538343241+539200378+541897779
1608+544440966+545767933+546180792+546495123+547037096+547692144+548593823
1598+550095385+552095036+553958908+555256956+556199428+557161342+558161064
1588+559060070+559955848+561047154+562281565+563606588+565745422+570174352
1578+577402857+584337027+585782242+583088730+582635946+586323070+590062131
1568+589777032+587458189+586867646+589560465+597204398+612309303+631494055
1558+638583065+629392890+618482121+612294096+610320483+610935744+612461642
1548+614736811+619911505+629792070+643479326+658283925+669461948+669420982
1538+660029862+652981124+653171861+657362179+659943833+660388146+662958759
1528+669619634+678245444+686502972+695139127+704717512+712182650+715352138
1518+716253748+716150291+714747014+713823810+716646333+725051131+738588408
1508+753064998+757720945+747400928+734600701+728647504+729468917+734259984
1498+739484325+741497932+739925791+739024944+742686100+750298648+756603809
1488+756786909+752449737+748361835+747019731+748219216+750934531+755077495
1478+761407375+769928060+779151286+786283763+787911036+783909441+779440482
1468+779092753+782845632+786756266+787354447+786867292+790398327+800081420
1458+812059608+816408932+809694175+800484072+794904087+793601144+795116557
1448+797019000+797282366+796000948+794612530+794195297+795627597+799774310
1438+805667168+809052112+806912480+802727370+800763061+800898111+800822080
1428+800027122+800129052+801918455+804666057+808120714+812743263+816852967
1418+816513014+811508366+806064404+802696957+800770421+799084753+797894850
1408+798310972+800205014+801778197+802121899+803056074+806561348+811860539
1398+816352273+818484822+818120568+815653551+812974620+812937333+816461147
1388+821027037+822707358+821032592+819745480+821892055+827064666+833045012
1378+838647285+844276013+849903977+853927305+855201155+854821971+854318222
1368+854187615+855044232+857818983+861773779+864202051+863670319+861897372
1358+861033604+861366474+861940283+861910704+861194762+860239826+859427578
1348+858848979+858493125+858420497+858901888+860410080+862908620+865053807
1338+865132407+863182262+860943270+859825995+860012774+860986944+862111023
1328+862874667+863103176+863077555+863373139+864476943+866375358+868478329
1318+870208087+871644623+873045191+873979852+873931040+873617819+874388059
1308+876282586+878048104+879049006+879889305+881071570+882367570+883544072
1298+884656070+885678219+886290217+885856874+883818409+880555184+877350284
1288+875038593+873223638+871153927+868892090+867221212+866666429+866831753
1278+866670248+865542350+864003051+863152336+863308703+863887720+864436601
1268+865002703+865574776+865992356+866389662+867122129+868290091+869601644
1258+870665940+871499226+872477215+873516306+873992628+874037622+874866048
1248+877124413+880048033+882617327+884422491+885451931+886205784+887651832
1238+890040943+892423597+894099196+895628566+897779446+900405885+902825894
1228+904709659+906347833+908387409+911219028+914364075+916824842+918189027
1218+919010579+920045573+921553002+923406285+925474121+927624932+929539595
1208+931041538+932686517+935386556+939116314+942562221+944509033+945054373
1198+945253026+946329612+949224694+953769268+958209898+960644697+961039989
1188+960881886+961043669+961218297+961483746+963146847+967251135+972841327
1178+977445198+979305911+978825422+977980193+978740781+981599063+985079271
1168+987058995+986598434+984378189+981994494+981146626+982605658+985639679
1158+989116485+992695777+996385123+999715908+1002086619+1003219864+1002965038
1148+1001733335+1001098285+1002510588+1005294504+1007115431+1006901363
1140+1006243747+1007301169+1010418928+1013922397+1015832686+1016046198
1131+1016355321+1017877123+1019776094+1020861637+1021204436+1021754220
1123+1023167426+1025329207+1027093544+1026833303+1024282340+1021396284
1114+1020741862+1022805254+1025748940+1027788933+1028674712+1028761436
1105+1028093821+1027198252+1028014666+1032040840+1037415367+1040059998
1097+1038438766+1035159918+1033544866+1035003273+1039054583+1043497851
1088+1045901404+1046533122+1047842383+1050385431+1051649144+1050273294
1080+1048792181+1049391959+1049752117+1046439038+1041745735+1041965010
1071+1049287529+1059223989+1066039218+1068148715+1067085738+1064545885
1063+1062464231+1061989644+1062010822+1061301824+1060225307+1059605255
1054+1059753707+1060888687+1063077479+1065550883+1067303139+1067892084
1045+1067101361+1065684476+1065613999+1067684335+1070173988+1071283277
1037+1071009704+1069551158+1067666352+1067763422+1070995123+1073741823
1028+1070980958+1063632818+1057301757+1054938893+1055773012+1058803909
1020+1062889519+1065368409+1064784740+1063001795+1062109142+1061836332
1011+1061455969+1061827931+1063223222+1063418750+1060907573+1057968261
1003+1057692119+1059916392+1061796616+1061468189+1059563178+1057340363
994+1055723991+1055623311+1056911603+1058010339+1058059915+1057769678
985+1057827934+1058191841+1058405492+1057250167+1053258502+1046917096
977+1040882869+1037477372+1036657626+1036572290+1035647350+1034006121
968+1032664989+1031763378+1030309970+1027401418+1023172217+1018614867
960+1014941699+1013102164+1013301650+1014345116+1014004191+1010953437
951+1006188824+1001809852+998722783+996426229+993927758+990393668+986248830
941+983428599+983353123+984989700+986092949+985747025+984413809+982582189
931+980620449+979051641+978474499+979214049+980750431+981864859+981774455
921+980721130+979446308+978698982+979056223+980723421+982928113+983904921
911+982562400+979753626+977104551+975179403+973726551+972761338+972004361
901+970508875+968104975+965939374+965075814+965664482+967026792+967664897
891+965988326+961767248+956623175+952908069+951911610+952822039+953816344
881+954387376+955689139+958344948+961209201+962721143+962774538+962405562
871+961639002+959370569+956087625+954243576+954804470+955617898+954151089
861+950478616+946728306+944692618+944660817+945806074+947289478+948894046
851+950488198+951574713+952047703+952733579+954131370+955387653+955710872
841+955746006+956062142+955602067+953324955+949921680+946482993+943269692
831+940953765+941077012+944290036+949460078+954717885+958700871+960806410
821+960617270+958063599+954194625+950963062+949981047+951243926+953561241
811+956305927+959343142+961945140+963266067+963369594+962971733+962580051
801+962098660+960744127+958097066+955338632+954231842+955001179+956049991
791+955876960+954813775+954579780+956323425+959492982+962836960+965731209
781+967547691+967207808+965001797+963252874+963826336+966230653+968345427
771+968079006+965127196+961544432+959797384+960381400+961935350+963521587
761+965346332+967019362+966872230+964361817+961750862+961189621+961859874
751+962186912+962915352+965599213+970097613+974922703+977819243+976303483
741+970725442+965139347+963013255+964332237+967359037+970579421+972433259
731+971787516+969274533+966674202+964929029+963653096+962667053+962886884
721+964914795+967388894+967875632+965511309+961760305+958989719+959240448
711+962775719+966894102+968119834+965989228+962861262+960405911+958424382
701+956816967+956592346+957955558+958370778+955385570+951231705+950026804
691+951374533+951034511+947789339+945365163+946142069+947142137+944375718
681+938025910+930848232+924680343+920057863+917168267+916257699+917493985
671+920098274+922198328+922463916+921525367+920704787+920063488+919639866
661+920108273+921770402+923601119+922620214+916514539+907608768+901506842
651+901310550+903851862+903936503+901335130+900296803+904317283+911961771
641+916528148+912378172+901929630+892089268+887141973+887287439+890304309
631+892816875+892117389+888332223+883724186+879985958+877099833+874848550
621+874262104+876579489+881188707+886731613+893991850+903751598+911837553
611+912729234+906052249+895716678+884817436+874577408+866907228+862692747
601+862041241+865192746
##END=
