##TITLE=<SNM>
##JCAMP-DX=4.24
##DATA TYPE=INFRARED SPECTRUM
##DATE=3/5/2025
##SAMPLING PROCEDURE=Instrument type and / or accessory
##ORIGIN=Admin
##XUNITS=1/CM
##YUNITS=ABSORBANCE
##RESOLUTION=4
##FIRSTX=4497.3318
##LASTX=599.83466
##DELTAX=-1.4281778
##MAXY=1.7343153
##MINY=0.18048216
##XFACTOR=1
##YFACTOR=1.615207e-09
##NPOINTS=2730
##FIRSTY=0.20255482
##XYDATA=(X++(Y..Y))
4497+125404871+125638194+126624220+127530501+127755807+127295563+126566838
4487+125973552+125698400+125864626+126494685+127244850+127640746+127633273
4477+127625782+127968170+128610886+129219984+129409956+128893778+127691302
4467+126247375+125124322+124539681+124409269+124733870+125547277+126598500
4457+127544616+128339922+128975682+128993109+127908850+126121530+124709274
4447+124195504+124097031+123713377+122836600+121777941+121138925+121368678
4437+122280595+123218048+123703395+123709816+123512057+123383813+123154743
4427+122276600+120734781+119434543+119203812+119835439+120443254+120436787
4417+119985160+119755010+120247534+121325641+122361798+122732683+122206606
4407+121015856+119626701+118458194+117809998+117819491+118273342+118678786
4397+118723143+118415028+117759784+116833595+116184430+116468032+117547366
4387+118497809+118676148+118285335+117768031+117209093+116507066+115694812
4377+114945550+114464826+114377534+114576141+114747939+114663627+114439926
4367+114474319+114960468+115482957+115460428+115010683+114836947+115186891
4357+115528051+115385194+114935817+114625599+114648082+114911979+115176558
4347+115169131+114805876+114298572+113879456+113503838+112991903+112369225
4337+111880640+111739342+112024005+112667201+113326191+113487776+113043612
4327+112593720+112814911+113659436+114489504+114840656+114734996+114386898
4317+113949035+113561747+113409793+113572485+113864603+114023079+114070083
4307+114230626+114515308+114745827+114953410+115348171+115915487+116323957
4297+116184089+115360654+114208346+113485304+113785014+114954250+116189716
4287+116800678+116797532+116602938+116403094+116098162+115713807+115492680
4277+115593589+115884683+116075928+116072663+116099490+116322675+116528912
4267+116413297+116046065+115851000+116123680+116635504+116865515+116651012
4257+116319686+116210806+116499593+117303276+118402481+119159280+119192455
4247+118756345+118287798+118119017+118473758+119184641+119752732+120033566
4237+120299769+120490996+120168185+119292884+118326767+117618864+117308636
4227+117605736+118590738+119869223+120807156+121095602+120977026+120923269
4217+121053791+121033984+120708793+120465156+120614324+120858422+120749192
4207+120311883+119976322+120114973+120686246+121268848+121569555+121761298
4197+122100309+122437983+122370138+121741666+120914172+120491947+120645451
4187+120894826+120813807+120622257+120755797+121273479+121980562+122729113
4177+123435301+124110232+124840166+125479414+125581430+124983144+124214223
4167+123934181+124154985+124356582+124204988+123815891+123422182+123162649
4157+123161533+123469011+123871245+124010781+123841169+123757687+124088469
4147+124669014+125070501+125033525+124584029+123918175+123273328+122859120
4137+122835539+123231020+123858061+124485057+125102864+125805103+126448640
4127+126660975+126150304+124947349+123502592+122557103+122667828+123701365
4117+124853986+125361742+125251414+125185303+125548273+126067404+126332859
4107+126235558+125914518+125701362+125991754+126809128+127647010+127929662
4097+127471513+126521937+125570663+125045850+125027943+125240352+125372656
4087+125400757+125498787+125648545+125613461+125412233+125397694+125619836
4077+125600988+125058277+124383816+124118498+124308609+124548907+124456190
4067+124042378+123692454+123778888+124284106+124789288+124815949+124250571
4057+123515259+123241011+123696291+124560291+125264735+125557554+125727738
4047+126244986+127165160+127944100+127954913+127176895+126156347+125305245
4037+124579720+123977052+123910850+124707439+126044026+127271346+128034834
4027+128283490+127999924+127285830+126503126+126066942+126146383+126585695
4017+127063808+127279760+127024683+126244423+125140356+124109900+123552604
4007+123782061+124910013+126620115+128255831+129270853+129468289+128972195
3997+128256450+127882649+127889088+127866836+127801787+128156509+129011164
3987+129869444+130385760+130612238+130522695+129915350+128911924+128156924
3977+128278868+129194401+130088993+130233151+129750729+129337065+129344768
3967+129565130+129823417+130218658+130727982+131154073+131520567+131990857
3957+132438600+132601044+132564677+132738938+133407808+134341387+134821927
3947+134393105+133536532+133059507+133083982+133217227+133346855+133605013
3937+133970557+134467270+135305272+136400279+137085838+136808509+135951106
3927+135414724+135567305+136008028+136363654+136864924+137758113+138615701
3917+138610682+137399987+135602436+134304061+134114531+134779729+135879608
3907+137667168+140592716+144074778+146560960+147152594+146038112+143466510
3897+140013878+137390208+137406989+140041389+142807465+143315497+142604881
3887+143021590+144471356+145274043+145462825+146070991+146245040+144828541
3878+143222854+143377087+145165929+147369394+149348947+150468632+149943395
3868+148715050+148550873+149328448+149409595+148214694+146881105+146670947
3858+148400266+152619383+158422038+161411021+158241660+152605047+148558890
3848+147075284+147677675+149433868+151476145+153565536+155938872+158173944
3838+158847114+157423003+155252695+153627311+152743208+152518419+152996846
3828+153827385+154605560+156031699+159077014+162425407+163057301+161255386
3818+160012318+159609734+158113941+155628377+154180899+154974747+157688736
3808+160646039+162290824+163585297+166322497+169526897+170470246+169401024
3798+168578142+168261596+167752789+167588168+168698831+171019461+173894435
3788+177038500+180600446+184618391+189024879+194090717+200022594+206134091
3778+211566220+216790645+223148982+231441638+241217706+250536759+257227491
3768+261413305+265047098+269501430+275545010+283971528+294679007+306076132
3758+316842636+327790957+340770557+357028178+376325099+395566740+410621460
3748+421851271+432927937+445382457+456569756+464745654+472478430+482416960
3738+494700106+507672511+519295846+528230858+534592571+539484065+543544411
3728+546288050+546757594+544816429+541437998+537559727+533818844+531024021
3718+529490108+528750699+528727377+530011536+532103963+533125083+533154752
3708+533932023+536001164+538978431+542362065+545575654+548601005+552087079
3698+555836783+558807260+561138591+564760392+571222110+579031495+583794015
3688+583523080+581613245+581138388+581840673+582518935+583388424+586034162
3678+590996065+595119845+593862552+588816401+584878939+582625139+579254864
3668+573950398+569085954+566546162+565854947+565512274+565668481+568023540
3658+572521878+576341031+578129495+580575740+585970063+592249816+594300802
3648+590532684+584951046+580840292+578601363+577362631+576287339+575776908
3638+577338350+581610846+587130931+592156453+597463798+604941248+612267030
3628+613365423+608621686+604364799+604699538+610121501+618500323+626076782
3618+630531538+633124137+635383731+636797896+636833101+636438764+636719885
3608+638070800+640784216+644840798+649067425+651651906+652005945+651492341
3598+651713163+653395976+656324533+658947318+659687427+659354644+659921978
3588+660859514+659957773+658067422+658041369+660222657+662467194+662997257
3578+661673576+659542328+658113624+658024320+658298430+657848002+656875851
3568+656131313+655988354+656486016+657014603+656489338+655076132+654660761
3558+656191759+658102996+658748415+658658300+659108359+660122356+660671166
3548+659549930+656469853+653376123+653081717+655629738+657839957+657115272
3538+654294692+652007864+651604154+652711810+654239191+654658400+652720371
3528+648871991+645220005+643371870+642961813+642852657+642680693+642296467
3518+640795435+637954779+635987082+637235187+640501324+642283182+641558645
3508+640397408+639699071+638242616+636088046+635595992+637900164+640620666
3498+640814107+638535398+636178235+635646327+636972591+638727806+639201630
3488+637591219+634710119+632411261+631831380+632740798+633955543+634178580
3478+633223773+632092795+631824443+632253836+632252803+631274822+629754821
3468+628226481+627107533+626579611+625943196+624171744+621676050+620388386
3458+621483273+623998378+626024898+626739988+626811061+626767222+625866440
3448+623446395+620917858+620668843+622711747+624043989+622295712+618969608
3438+617329602+617986055+618536746+617166605+614863393+613728762+614491530
3428+616129543+617186200+617133910+616382471+615239020+613820870+612833515
3418+612833958+612888573+611875276+610738062+610966708+611724383+611355915
3408+610558164+610872275+611317611+609757645+606681148+604629867+604659721
3398+605728556+606830934+607953351+609133187+609604280+608323406+605407986
3388+602370753+600491510+599813396+599798635+600018092+600258694+600707240
3378+601821575+603441359+604409709+603752038+601950031+600533542+600366744
3368+600779790+600530257+599471239+598690610+599010810+600145700+601289446
3358+601899328+601880951+601521487+601336090+601812497+602911739+603726022
3348+603290318+601966416+601311292+602054022+602930301+602460499+601090580
3338+600383239+600788462+601443254+601766849+601887150+601759321+601310111
3328+600995114+600802005+599718262+597407263+595222802+594624212+595604371
3318+596996063+597725286+597574799+596895947+595922357+594729974+593675605
3308+593384299+594266298+596037676+597521623+597316558+595265203+592724193
3298+591167328+591384054+593446996+596239236+597749900+597164189+595850730
3288+595319412+595374433+595030173+594125147+593157499+592332883+591623549
3278+591370511+592248414+594489150+597206774+598771684+598275387+596613904
3268+595616106+595990331+596702137+596771513+596598626+596471277+595380080
3258+592827372+590387991+589765451+590332564+590279830+589471820+589342552
3248+590439727+591615431+591612921+590475338+589116748+588252573+588012413
3238+588273644+589049069+590161780+590705718+589646921+587194034+584718526
3228+583035750+581652988+579980545+578336701+577258013+576713005+576355202
3218+575923225+575257621+574360713+573584439+573296824+573257966+572959833
3208+572364011+571607811+570589680+569546825+569270760+570111354+571409019
3198+572314894+572608377+572372240+571518065+570035225+568313739+566928727
3188+566096251+565418247+564376388+562986541+561552966+560047911+558447759
3178+557338369+557323571+558032056+558388863+557711819+556113733+554065405
3168+551972240+550058973+548473766+547396112+546803057+546321115+545696213
3158+545135448+544832592+544556711+544093774+543597661+543231296+542841351
3148+542042456+540554966+538606273+536834046+535602768+534747708+534046678
3138+533386203+532590961+531678075+531071219+531169157+531784021+532112782
3128+531274070+529112968+526439406+524248967+522987060+522592391+522597188
3118+522209384+521053054+519703652+518955645+518830584+518629984+517728906
3108+516215438+514854449+514356454+514667059+515137783+515303880+515117340
3098+514541481+513522797+512437984+511942092+512078778+512039920+511108362
3088+509435438+507732809+506632497+506403372+506865497+507476893+507724137
3078+507428256+506639988+505491039+504211825+503005604+501863851+500741324
3068+499819987+499250402+498839460+498421210+498192675+498180461+497875649
3058+496985900+496012384+495531106+495394015+494995434+493912282+492179614
3048+490370374+489369846+489587605+490344617+490464586+489583583+488433970
3038+487682199+487042500+485898864+484341777+483115592+482727270+482897131
3028+482823068+481961587+480586612+479382125+478580721+477889100+477107918
3018+476301274+475462192+474549306+473763401+473401427+473495934+473741887
3008+473655757+472808188+471166300+469239785+467714102+466879005+466427323
2998+465901541+465364577+465319224+465826592+466135390+465525914+464171862
2988+462732714+461425750+460018264+458568194+457573901+457234660+457032547
2978+456362661+455283900+454364926+453989114+453979003+453815858+453219261
2968+452396084+451519473+450287420+448482830+446628533+445492463+445208869
2958+445330351+445466483+445484233+445313893+444892138+444209153+443266819
2948+442089898+440835556+439755651+438956608+438303366+437633075+436963042
2938+436399177+435904467+435335583+434709242+434225750+434021127+434075964
2928+434238666+434135192+433327809+431839434+430226477+428940953+428032385
2918+427482321+427252236+427038498+426584085+426166574+426235507+426685271
2908+426955985+426719922+426041512+424971940+423455002+421683071+420172665
2898+419279780+418824629+418389072+417834728+417290753+416789548+416227823
2888+415571259+414836943+413984281+412998403+412007026+411228464+410831175
2878+410801801+410921881+410907046+410562085+409855408+408956545+408136099
2868+407518135+407050991+406749426+406714000+406874082+406963422+406791753
2858+406372950+405788088+405047719+404122028+403080686+402151010+401557549
2848+401246943+400820982+399917174+398716377+397854047+397709833+397958812
2838+397924752+397273059+396269136+395412267+394943573+394735149+394468088
2828+393807761+392625304+391185972+389945690+389175874+388887151+388880177
2818+388779471+388366167+387862747+387537196+387213306+386524305+385444917
2808+384303164+383382344+382656958+381962680+381300951+380714981+380024800
2798+379102836+378199471+377564126+377061039+376504148+375979362+375569195
2788+375072270+374195032+372977887+371949424+371645387+371933777+372112015
2778+371682953+370728700+369613258+368596603+367667074+366651932+365526047
2768+364483266+363654148+362970129+362320466+361622572+360800576+359902747
2758+359139647+358682207+358511978+358452122+358195172+357395244+355966318
2748+354265534+352842254+352016863+351693748+351463035+350917917+350024294
2738+349130966+348510345+348028403+347396601+346571911+345747332+345061173
2728+344448449+343765095+343000593+342304544+341786696+341350364+340785798
2718+340007015+339152951+338427196+337847204+337239758+336515589+335803820
2708+335228073+334679965+333961037+333107120+332397750+331989058+331699856
2698+331267178+330674898+330116679+329733229+329447311+329024855+328351353
2688+327636447+327188750+327016454+326836371+326419524+325762444+325004474
2678+324304329+323721348+323179809+322613730+322083704+321644051+321201668
2668+320656180+320068993+319532693+318987058+318329756+317627693+317066263
2658+316709604+316389403+315869489+315144509+314492484+314118001+313864963
2648+313460995+312899676+312361937+311893723+311379454+310766915+310154449
2638+309634756+309142905+308561733+307952571+307521516+307329810+307209287
2628+307010661+306763269+306499806+306085561+305393608+304582517+304009168
2618+303846687+303927835+303958556+303764340+303340187+302778905+302197382
2608+301710568+301419613+301333151+301294164+301105945+300766906+300478183
2598+300382275+300368141+300174681+299666908+298985878+298420278+298130928
2588+298007509+297810987+297453977+297073017+296804886+296605300+296351524
2578+296028150+295720220+295486094+295319703+295198534+295090190+294921823
2568+294627824+294267548+294052759+294198947+294734434+295455484+296061141
2558+296357336+296369920+296262719+296152382+296029959+295825594+295484083
2548+294993764+294415692+293884374+293503876+293229933+292917851+292505377
2538+292091390+291812225+291693898+291665022+291667255+291696131+291760746
2528+291853002+291942803+291986366+291958192+291844957+291620813+291315356
2518+291050490+290866256+290616170+290237702+289969515+290034721+290251282
2508+290229731+289871023+289434175+289168701+289090708+289088273+289033565
2498+288783756+288284377+287701950+287273479+287029205+286821114+286551193
2488+286205992+285765878+285242956+284743079+284370976+284090519+283742606
2478+283256217+282811970+282663697+282780603+282827875+282561441+282092064
2468+281701473+281522331+281463712+281391642+281286305+281166317+280966787
2458+280654337+280383752+280333509+280441503+280475306+280300279+279945206
2448+279487379+278989661+278503162+278055963+277669984+277425987+277433109
2438+277634503+277744933+277566677+277261975+277093148+277030839+276860591
2428+276544782+276247258+276075331+275963370+275827201+275744042+275851741
2418+276085294+276220559+276216371+276283773+276556941+276873765+276955964
2408+276754608+276547845+276607331+276836604+276935262+276847509+276790569
2398+276890186+277014011+276960780+276691486+276361673+276162623+276147641
2388+276172845+275932501+275075024+273348426+270606060+266735723+261775979
2378+256087048+250200303+244459248+238927003+233628516+228735066+224449875
2368+220826636+217828463+215458624+213729057+212746536+212946915+214953102
2358+219113840+225350897+233499746+243618044+255323911+266673193+274728937
2348+277551288+275599034+271652956+268568414+266642084+264461645+261397658
2338+257844957+254187048+250503178+246922910+243853831+241798029+240922931
2328+240853850+240968597+240924167+240943836+241578646+243128297+245325895
2318+247609291+249615773+251377593+253139856+255088180+257216993+259358370
2308+261312433+262983861+264395535+265598509+266624703+267498749+268250613
2298+268936329+269619997+270309182+270966114+271571476+272095930+272498532
2288+272841999+273254824+273710308+274015046+274039715+273825830+273506608
2278+273215966+273014849+272858993+272669519+272433640+272225364+272108015
2268+271993249+271691094+271197399+270794076+270734719+270962885+271236958
2258+271391412+271367610+271118281+270674680+270274125+270187829+270400017
2248+270672281+270880594+271035195+271082375+270971318+270806162+270735199
2238+270806254+271012943+271343476+271740839+272119141+272457184+272821113
2228+273278737+273848285+274546843+275389818+276316376+277245646+278211967
2218+279292536+280442075+281558348+282651630+283817831+285111086+286552448
2208+288204872+290107935+292147832+294144129+296075883+298067641+300162522
2198+302259377+304259309+306193296+308206402+310366895+312495634+314341702
2188+315898752+317358639+318834246+320282804+321594012+322656425+323422736
2178+323956083+324392451+324810553+325107652+325089017+324710843+324111330
2168+323438050+322761375+322046691+321167164+320064491+318816644+317493369
2158+316120202+314743124+313385493+312060373+310840276+309828603+309161726
2148+308898429+308852098+309170195+311076856+315905874+323379413+331946067
2138+340565418+349040076+357180916+364848892+372308888+379863205+387548304
2128+395309605+403166410+411195510+419300150+427011117+433787832+439342568
2118+443468268+446033153+447304175+447858630+448303190+449441069+452465202
2108+458599524+468460042+481735635+497285288+513231454+527150695+536910618
2098+541440913+540664713+535520513+527794158+518837558+508937185+498053443
2088+485965251+472077820+456253468+439193077+421735287+404676041+388829879
2078+374579294+361968530+351223540+342503410+335560524+330044203+325620482
2068+321886277+318648517+315940304+313657683+311640389+309829821+308104921
2058+306483218+305311611+304733410+304484375+304460131+304836976+305763866
2048+307464281+310287629+314539682+320677362+329391551+341203752+356392095
2038+375145336+397126963+421097212+445290829+467820749+486990689+501830012
2028+511937111+516992929+517287667+514061569+508695439+502140839+494896352
2018+486973862+478272366+469058189+459691200+450145679+440125116+429454963
2008+418246593+406751050+395192035+383869674+373252181+363699168+355173844
1998+347407155+340306697+334058717+328762702+324133509+319810419+315805869
1988+312316954+309350148+306817183+304685234+302884629+301346824+300097390
1978+299107231+298218719+297313066+296383684+295516336+294898188+294615720
1968+294406097+293913896+293208197+292711143+292609496+292643852+292513680
1958+292235733+291982695+291813627+291712017+291668768+291623839+291506398
1948+291388348+291482873+291912341+292424672+292455135+291741963+290706045
1938+289915730+289514530+289352271+289315609+289358415+289420651+289456593
1928+289546616+289924236+290667981+291416375+291821284+292151190+292770224
1918+293299954+293122326+292458308+292073529+292282672+292797218+293181425
1908+293227110+293061068+292957668+293004792+293054371+293044315+293201020
1898+293751674+294497301+294964999+295128180+295523606+296327833+296874631
1888+296578897+295795132+295192169+294957434+294937968+294994945+295054284
1878+295107091+295195195+295373543+295875578+297160531+299329493+301434854
1868+302011155+300810967+299068871+297879329+297404749+297329192+297358086
1858+297367256+297411355+297576935+297821614+298116500+298596911+299451473
1848+300908444+303115010+305404808+306163147+304812067+302878005+301880835
1838+301930616+302339953+302764420+303666752+305577731+307975634+309469121
1828+309589440+309191506+308737000+307944526+306968925+306452054+306585936
1818+307032784+307547938+308246072+309302286+310572772+311580460+311988229
1808+312006865+312166725+312905322+314404140+316425088+318220231+319082229
1798+319253196+319880054+321903400+324969011+327166830+326837958+324962442
1788+323753601+324081661+325404825+327023982+328710559+330232183+331248432
1778+332042013+333620061+336745674+340918166+344160871+344833413+343614239
1768+342064200+341142531+341589417+343681733+346420833+348311848+349315920
1758+350357114+351550309+352782657+354856854+358521277+362920459+365968689
1748+366773119+366431516+366351438+367228603+369014409+370943138+372150614
1738+373167970+375694477+380002990+383205878+382576474+379863537+377486299
1728+375975672+375426346+375896517+377088641+379126158+383014466+389326841
1718+396343678+400213683+399379989+396423387+394115340+393642033+395248975
1708+398634048+402821411+406681821+410473962+415520113+421539448+425836189
1698+427246811+427069644+425547171+423282891+422507428+424373239+428198813
1688+433350578+440371696+448778638+454306140+453980811+451483825+450803866
1678+453032314+457476443+462285054+466113138+469900887+474715698+478899888
1668+480157551+480037545+481719472+485690072+489700748+491957426+493586214
1658+496901062+503380641+513302306+523979876+528961780+528685013+529950758
1648+534260157+538058940+538122190+536533773+536675256+539477238+544774951
1638+552239707+560140794+564539200+564073606+562738817+563941422+567995162
1628+573559272+579517017+585996780+593259275+600602180+607666289+615639962
1618+625410993+634691742+639254695+638985014+636910669+634574688+632043642
1608+629470675+627664978+627675236+630071959+634532619+640199243+646479402
1598+653122605+659507566+664581246+667896980+670144396+672172834+674035066
1588+675335129+676031768+676512013+677177359+678414246+680913188+685470163
1578+691982953+698371457+701986099+703945235+707743059+714648415+723056944
1568+730846918+738543161+748042740+759776892+773523615+790682461+812197165
1558+831423270+841633954+848007918+855338239+862912705+868259239+870198449
1548+869844335+869607866+870900033+873399048+875842193+875402245+869094040
1538+860467494+855204580+853244189+851189992+847069348+842816373+841024699
1528+841882600+844085586+846855168+850225443+853164923+853646865+851848770
1518+849814648+848237745+847046764+847029346+849162366+853583172+859492686
1508+864606958+864820031+859527964+854148808+851682194+851597909+853000856
1498+855046564+856096800+855021102+853292383+853147579+854809431+856205071
1488+855370639+852874798+850455344+848887887+847991238+847652329+848389265
1478+850700153+854128734+857395904+859146101+858526734+856172007+854110873
1468+853698307+854595325+855307684+854969513+854863087+856715576+860278628
1458+862836318+861505330+857840280+855272775+854241950+853653581+852611833
1448+850565534+847536530+844477414+842522189+842053384+842861098+844540442
1438+846125095+845986122+843756345+841211940+839491487+838066473+836422112
1428+835179838+834989127+835295415+835338738+835728425+837466887+839329339
1418+838389810+834594643+830721612+828061556+826079467+824399901+823456313
1408+823684590+824794312+825832296+826093416+825847205+825533019+825004359
1398+824346984+824174503+824076048+822443939+819166657+816451395+815983771
1388+816991864+817479711+817173497+817815668+820501039+824645670+829121756
1378+833268379+837069155+840915911+844993896+848848623+851968554+854394946
1368+856479328+858587180+860920062+863061790+864090401+863762193+862886357
1358+862042552+861037042+859883332+859359100+860016549+861200444+861824460
1348+861816046+862037681+863140908+865202264+868042476+871290162+874513641
1338+877546852+880229713+882127740+883167791+884210129+886371932+889889816
1328+893843589+897038284+899274555+901558357+904825749+908857311+912890349
1318+916708248+920395661+923664307+926324511+928858436+931641155+934140982
1308+935687994+936577558+937707134+939384337+941066265+942106758+942394743
1298+942178644+941548650+940421510+938925201+937372579+935801210+933970272
1288+931801974+929555665+927463903+925437162+923377135+921573652+920518471
1278+920359275+920658035+920720695+920196979+919330000+918521990+917797084
1268+917077196+916988409+918612622+922008950+925589494+927617416+927988873
1258+927759784+927370393+926260375+924016576+921063221+918120199+915440806
1248+912640817+909170463+904975646+900644069+896936507+894145449+891838472
1238+889384773+886743832+884494571+883105131+882352991+881501362+880191409
1228+879169366+879429674+880516148+880865169+880182331+879916709+881039642
1218+883107640+885682452+888946006+892598362+895646777+897635877+899070560
1208+900522956+901945165+902947502+903544579+904326463+905840411+908158163
1198+911028044+914184509+917710659+921979354+926738185+930803918+933469510
1188+935200000+936242560+936297102+936167132+937377893+939817421+942088750
1178+944023309+946522103+949287035+951147421+952242825+953674039+955295447
1168+956041904+956361329+958216992+962307155+966901844+969812244+970550288
1158+970199127+969986792+970663430+972646700+975999041+979948311+982881887
1148+983818906+983884445+985180744+988088488+990851206+991974286+991646374
1138+990725812+989780378+989406855+990251841+992354748+995303231+998678451
1128+1001970716+1004673800+1006603931+1007915582+1009089071+1010740960
1120+1012794934+1014224672+1014546828+1014606831+1015229075+1016671655
1111+1019246984+1022928861+1026749269+1029810452+1032209462+1033975452
1103+1034444258+1033381918+1031344180+1029148058+1028381895+1030969475
1094+1036682670+1042394388+1045108690+1044823436+1043520494+1042633440
1085+1042520667+1042974268+1042859355+1040664340+1036891462+1034762797
1077+1037052208+1042906885+1049199148+1054351577+1058717251+1062016601
1068+1063024990+1061796442+1060259910+1060139461+1061435539+1063083369
1060+1063936695+1063187211+1061382548+1060716537+1062917161+1067229697
1051+1071368866+1073741823+1073693924+1071020509+1066916914+1064078473
1043+1064453915+1067365128+1070135595+1070548235+1068967494+1067740644
1034+1068432339+1069994555+1069722365+1066291496+1061418564+1058021793
1025+1057419107+1058636067+1059735013+1059650212+1058513994+1056691986
1017+1054783554+1053846460+1054868503+1057753367+1060742664+1061974828
1008+1061687360+1061472220+1061580565+1060624134+1058249258+1055841170
1000+1054130828+1052345649+1049834530+1046893058+1044130413+1042071420
991+1040839773+1039994713+1039131645+1038444896+1038241417+1038449767
983+1039036954+1039498674+1038035503+1033256524+1026611772+1021445320
974+1019628183+1019958310+1019721177+1017505054+1013751808+1009252769
965+1004663836+1000637809+997079185+993025260+987954164+982583643+978215533
955+975631569+974456383+973397290+971375863+968509893+965839947+964098386
945+962733744+960491494+957300637+954896387+954834096+956459932+957720731
935+957698516+957355916+957585226+957644270+956459563+954551499+953269665
925+952786911+952278842+951469651+950667398+950215346+950574626+951799704
915+952969798+952762260+950700905+948039889+946775252+947447240+948592831
905+948836386+948460574+948244032+947925419+946761451+944804455+942663686
895+940384312+937569046+934732892+933345297+933932632+935321408+936392826
885+937281504+938272254+938697883+937509633+934548234+931157146+929402669
875+930111707+931690677+931694515+929898339+928663961+929795529+932366430
865+934334128+935076378+935248416+935121546+934264751+932446655+930295997
855+929043094+929285099+930300056+931209621+932116676+933340943+934332282
845+934237739+933125508+931904193+931219880+931168881+931932387+933744136
835+936090154+937498784+936616084+933761701+931113823+930526119+931407638
825+931882052+931895853+933095543+935504517+937134338+937138840+936681918
815+936599330+936612763+936869159+938251736+941148261+945053249+948763984
805+950383177+948232445+942993222+937936296+935858261+936985696+940055957
795+943895480+947762237+951054133+953123311+953093199+950277342+945695052
785+941994502+941015561+942489950+945075538+947679503+949875034+951461311
776+951948051+951180338+950265385+950629905+951898823+951785312+949052337
766+945440869+943681669+944691239+947172614+949172638+949469553+948327505
756+947539201+948560579+950457720+951072657+949915922+948456367+948280934
746+950146191+953622893+956659203+956911909+954608845+952716575+953484805
736+956108475+958244152+958640850+957497473+955144369+951584269+947613964
726+945087051+945012878+946423427+947839806+948973588+950176451+950900398
716+950061981+947774489+945247281+942994329+940767209+939198055+939440429
706+940979249+941589980+939730406+936055835+932591533+930828421+930306403
696+929053205+926321411+924155623+924038348+923756415+921173411+917620544
686+914163327+910242619+907015081+907069253+910045709+911844763+909482877
676+904223432+898809957+893600403+885414911+872100313+859263449+856565827
666+862633134+869868248+876399047+882357197+885697582+885134455+882097185
656+878043850+873574112+869167697+865338211+863389924+865020705+870011576
646+875340619+877289865+873831615+866032193+857802197+853027868+852497141
636+853767314+854212575+853678232+853697938+855116383+856986364+857161502
626+854171466+848345721+841586055+835642296+831528294+830682127+834223259
616+841211350+850242345+860751050+869317225+868365518+855784313+841663771
606+837169086+843070850+850524941+850410914+841283752
##END=
