##TITLE=<SNM>
##JCAMP-DX=4.24
##DATA TYPE=INFRARED SPECTRUM
##DATE=2/5/2025
##SAMPLING PROCEDURE=Instrument type and / or accessory
##ORIGIN=Admin
##XUNITS=1/CM
##YUNITS=ABSORBANCE
##RESOLUTION=4
##FIRSTX=4497.3318
##LASTX=599.83466
##DELTAX=-1.4281778
##MAXY=1.760812
##MINY=0.30219382
##XFACTOR=1
##YFACTOR=1.639884e-09
##NPOINTS=2730
##FIRSTY=0.32671666
##XYDATA=(X++(Y..Y))
4497+199231568+199067843+198907335+198564512+198115283+197705399+197399667
4487+197217370+197192999+197399758+197851150+198362114+198651999+198642458
4477+198498524+198399860+198493472+198952969+199732809+200341365+200277903
4467+199641996+198972614+198609618+198473899+198310120+197956011+197473215
4457+197032400+196745533+196721907+196962742+197109892+196824642+196445762
4447+196663153+197552542+198490927+198861538+198417652+197329263+196200112
4437+195726039+196091380+196708841+196686560+195812654+194927681+194921629
4427+195707902+196628641+197360649+197824035+197717975+196874292+195754172
4417+195020220+194746073+194463567+194066532+194098536+194738459+195157556
4407+194600450+193628262+193414397+194081162+194574553+194114510+193019179
4397+192050408+191674636+192024765+192917717+193805453+194184896+194047214
4387+193626317+193027739+192413513+192092134+192105528+192098368+191760342
4377+191147552+190516171+190032993+189790160+190029904+190944300+192075796
4367+192471323+191809556+190800621+190179617+189925879+189615586+189009266
4357+188213179+187596318+187552701+188162784+189072182+189751596+189899182
4347+189610607+189197615+188942424+189049447+189562829+190177272+190372673
4337+189880609+188917145+187974089+187457600+187429758+187646858+187873245
4327+188064502+188233606+188294178+188100612+187592883+186854115+186028895
4317+185301413+184993028+185416033+186472527+187667612+188641872+189345165
4307+189664527+189373534+188542681+187653073+187176802+187133949+187071505
4297+186559523+185864517+185911313+187265634+189297678+190671971+190641622
4287+189575350+188284128+187185689+186180553+185135580+184326535+184277558
4277+185152954+186481468+187582779+188158840+188359184+188434931+188542154
4267+188675329+188604834+188102066+187292785+186540750+186085124+186064134
4257+186626456+187675608+188700099+189154562+188979080+188655683+188677819
4247+188952056+188970229+188635129+188427371+188599600+188804215+188665643
4237+188158840+187475646+187011733+187167079+187690402+187724713+186960557
4227+186187077+186286958+187159683+187958060+188084347+187663287+187164953
4217+186877395+186884192+187302471+188152261+189004323+189171391+188421882
4207+187385597+187151850+188288635+190134183+191277892+190899557+189445119
4197+188021213+187385070+187443824+187620125+187672192+187808529+188025302
4187+188071916+188053416+188195641+188175941+187618598+186979820+187086807
4177+188110680+189548617+190826918+191582533+191750765+191561270+191203799
4167+190635279+189940927+189513451+189557776+189771569+189801373+189694023
4157+189680520+189798193+189916920+189937074+189851277+189739020+189682900
4147+189628635+189449390+189221550+189287083+189841936+190566347+190963710
4137+190958385+190814924+190672607+190538033+190517897+190771362+191334956
4127+191962067+192143183+191635781+190853179+190306885+190028123+189943471
4117+190173292+190596479+190852034+190937213+191140392+191444906+191545223
4107+191280182+190728672+190123225+189789070+189851604+189936656+189502438
4097+188609450+188008836+188188681+188724579+188935445+188755238+188566270
4087+188626097+188996653+189628925+190312010+190799440+191024990+191100755
4077+191185971+191293630+191167525+190607401+189876484+189363539+188976663
4067+188347880+187468758+186693661+186296208+186307821+186622694+187115540
4057+187720824+188368834+188900734+189201414+189284775+189147856+188851957
4047+188794801+189359759+190185432+190414290+189825362+189059879+188618701
4037+188307608+187854017+187497454+187663850+188398275+189309000+189859328
4027+189716957+189068966+188557838+188687142+189398759+190357335+191314620
4017+191994688+191988491+191133577+189856039+188843706+188421682+188434604
4007+188628332+188901061+189235216+189594051+189917901+190178799+190419197
3997+190658905+190782139+190698032+190565802+190603730+190781412+190988425
3987+191322562+191864676+192314504+192225291+191591274+190961456+190924982
3977+191601542+192616202+193434878+193760128+193705444+193543937+193338341
3967+193060924+192995881+193527072+194461241+195078829+195008134+194598142
3957+194300188+194139935+193970395+193996419+194771480+196434894+198097291
3947+198641567+198224723+198079008+198774197+199546622+199533555+198844492
3937+198137127+198014456+198808454+200141784+200823524+200100694+198820412
3927+198398152+199070078+199834926+199917506+199649338+199740551+200325517
3917+200814037+200448897+199129851+197575314+196548787+196258012+196769176
3907+198584121+202100262+206483403+209858519+211195775+210881193+209287964
3897+206615906+203878605+202526538+203059674+204300901+204673293+204570959
3887+205519266+207475437+208953464+209807179+210983109+211560788+209972139
3878+207590238+207093140+208935327+211690964+214200407+215694117+215433201
3868+214222687+213722536+213869814+213127411+211055439+208926531+208002121
3858+209020033+212794619+219459671+225284747+224670903+219159100+213663709
3848+210702493+210623729+212413940+214649545+216781852+219225761+221834012
3838+223154221+222332673+220454794+218623911+216850620+215188133+214281951
3828+214308647+214826536+216253350+219726202+224309560+226347366+224855927
3818+222883637+221693840+219766893+216751284+214524948+214823992+217917546
3808+222044351+224588250+225698447+227751300+230803110+232253223+231691336
3798+231085598+230674442+229553305+228333522+228544370+230705355+234304095
3788+238674242+243182798+247238745+250982672+255410502+261034361+266978546
3778+272256093+277370551+283741485+292623659+304636062+318873275+332806083
3768+344643458+354467398+362408243+368568346+374060758+379671442+384645365
3758+388361069+392245277+398700080+409358908+424217507+440512098+454217810
3748+465169412+476114580+487869847+498019637+505282541+511743341+519041283
3738+527322045+536470151+545701710+552460773+554416234+552251888+549078370
3728+547942749+549811704+552762852+553856893+552004547+548384581+545065167
3718+543460998+543665776+544941188+546056928+545398432+542549819+539089197
3708+536305863+534870998+535926838+539569884+542988707+543330258+542189040
3698+543070197+547016303+553053191+560377738+568318002+574541676+575755734
3688+572444680+568770957+566989997+566783837+567633772+569755775+573297959
3678+576875581+577493151+574601249+572307216+572600172+572349669+568610522
3668+563323507+559038938+555541388+552280129+549723345+548353614+547596145
3658+546102252+543354684+540948994+541039206+544520873+550525739+555288923
3648+554637914+549887160+545322830+542852006+542036746+542114638+542931352
3638+544660808+547235439+550006342+552245236+554094928+556121811+557758256
3628+557705844+556426289+555580206+556308489+558888062+562181234+564191542
3618+565105811+567831063+573964306+581972066+589140213+593809695+595551146
3608+594582866+592103573+590126231+589999998+591447985+593561337+596584306
3598+601171208+605961143+608334375+607960075+607386231+609096569+613616956
3588+619281833+623418179+625266999+626229028+626993693+626858265+625603717
3578+624462134+624819206+626570616+628173585+628397700+627372646+625911356
3568+624896770+624801687+624903240+624258228+623633353+624561870+626669043
3558+627672435+626187375+623042644+620064672+618896993+620151469+622504419
3548+623526348+622026167+618966415+615714170+612971072+611670436+612406315
3538+613709568+613184937+610608744+607805020+606033982+605493904+606118925
3528+607365840+608066099+607402369+605518584+603188713+601725098+602265575
3518+604379000+606009194+605429679+603296918+602023251+602733723+603700840
3508+602852287+600705095+599297309+599423069+599905610+599177328+596941050
3498+594138380+591704666+589892557+588629794+587920158+587733844+588063910
3488+589157551+591118718+593555958+595661532+596398137+595346441+593168791
3478+590712978+588415566+586494270+584942695+583512846+582220533+581659119
3468+582146313+583147451+583877223+583861630+583176856+582321105+581406073
3458+579889500+577855602+576552930+576738771+577698801+578307720+577934074
3448+576432585+574474071+573574631+574568064+576455738+577721482+578010730
3438+577627016+576297848+573488925+569623872+566163760+564366080+564301165
3428+565005349+565508971+565696630+565953457+566202651+565874039+564804896
3418+563538716+562507919+561554396+560612503+560295049+561187692+562732325
3408+563371957+562039045+559285224+556635247+555011160+554264595+553998754
3398+553987996+553894366+553580184+553624563+554666664+556324481+557365674
3388+556949102+555356273+553450098+551749610+550305258+549084694+548046955
3378+547291522+547317401+548336640+549320731+548958534+547556127+546659850
3368+547058720+548312178+549751114+550865473+551121900+550414517+549514787
3358+549413379+550321506+551576454+552368488+552487524+552462918+552888103
3348+553580802+553780855+553184512+552261629+551746339+552164946+553270690
3338+553847224+553080051+551647585+550227331+548314977+545860691+544373995
3328+545161741+547730156+550462968+551916515+551508085+549820900+548195105
3318+547639979+548102275+548640681+548437429+547939986+548399411+549859101
3308+550648736+549674204+548126845+547809828+548685933+549078334+547920722
3298+546054238+545217351+546147359+547749311+548244900+547246815+546108068
3288+546107086+547146607+548464762+549722873+550898839+551841313+552513767
3278+553307546+554596151+556042139+556837299+556722407+556220457+555742204
3268+555022682+553738438+552230661+551158356+550643139+550218898+549691033
3258+549419812+549573124+549742972+549641201+549508426+549505482+549486654
3248+549503483+549756021+549951022+549369799+547790310+546019890+545241522
3238+545681792+546165823+545486427+543976869+542976494+542988852+543217801
3228+542756232+541405401+539433184+537450971+536462663+537081324+538706101
3218+540042793+540127518+538709772+536336540+534119854+532868358+532467852
3208+532241120+531654591+530756569+530089858+529894385+529656822+529066658
3198+528742953+529204885+529955193+530162988+529475306+528012635+526205505
3188+524457512+522735579+520999216+519842986+519892309+520801053+521513997
3178+521231073+519872173+518074275+516743362+516191107+515808738+514904828
3168+513678122+512940934+513041252+513391745+513049066+511696381+509982336
3158+508723171+508022331+507535828+507148807+506767528+505956884+504473823
3148+502687084+501004006+499492521+498320189+497849497+498044971+498260072
3138+497821874+496615848+495041448+493639222+492840790+492719828+492751777
3128+492294679+491552839+491372195+491883704+492199450+491659662+490581142
3118+489616169+488904897+488012654+486696970+485551244+485364094+485922964
3108+486217301+485723819+484677429+483386316+482106179+481223096+480876456
3098+480689669+480254743+479644188+479253496+479274904+479422799+479112833
3088+478004690+476533551+475638509+475721671+476220713+476430253+476248809
3078+475832710+475125727+474123935+473149221+472540520+472224375+471769967
3068+470932353+469984899+469282351+468762045+468227092+467683343+467072134
3058+466210532+465191983+464339395+463733747+463261383+463010263+463187490
3048+463741634+464286038+464299268+463407752+461698177+459760053+458237883
3038+457329284+456804944+456421630+456130891+455940943+455787886+455541418
3028+455047173+454271131+453423522+452761646+452323012+452007557+451757237
3018+451487688+451066719+450515373+449995213+449508383+448846870+447912102
3008+446885848+446025263+445465085+445209385+445108450+444857075+444224748
2998+443300484+442371967+441547220+440628299+439437430+438198547+437454781
2988+437489565+437884001+437811744+436822055+435246055+433832780+433096792
2978+433004216+433159708+433209649+433010105+432474388+431558774+430519690
2968+429843784+429653035+429449129+428716231+427526744+426360336+425620205
2958+425446213+425671454+425864165+425670436+425143589+424585119+424148411
2948+423740491+423246537+422697881+422153732+421506830+420614297+419655284
2938+419039423+418829011+418599626+418023383+417228077+416454943+415757410
2928+415130281+414553129+413881985+413051059+412315108+411906896+411509734
2918+410565260+409187496+408217762+408159788+408567855+408704737+408306266
2908+407529679+406681489+406135922+406083510+406300755+406417138+406253650
2898+405765475+404971260+404066150+403290326+402618745+401849064+401025480
2888+400460832+400217453+399917373+399333715+398817662+398760489+398979261
2878+399013681+398689649+398096068+397336019+396508655+395738828+395168800
2868+394901179+394805913+394519318+393861731+393064281+392401932+391852949
2858+391262239+390617010+390028590+389492365+388831325+388033547+387461738
2848+387432188+387756221+387952167+387669824+386808949+385574863+384433608
2838+383710705+383298568+382877853+382246581+381434265+380677596+380199634
2828+379942662+379739374+379646217+379713095+379616885+379018398+378104783
2818+377326015+376772234+376195991+375509580+374854173+374226863+373439917
2808+372483158+371610034+371036953+370796082+370792048+370777218+370447225
2798+369756489+368919675+368010386+366904678+365725767+364939257+364792670
2788+364942347+364856241+364393146+363770633+363158115+362582890+362091626
2778+361657935+360965854+359683428+358062830+356881484+356563413+356666783
2768+356478579+355844363+355164712+354822943+354803970+354713684+354175133
2758+353302626+352610836+352380906+352358298+352131457+351585600+350912529
2748+350306954+349751101+349108089+348339970+347546918+346855310+346293387
2738+345723796+345004818+344270902+343788398+343501984+343110674+342581209
2728+342148027+341861251+341555464+341170915+340753362+340255700+339610580
2718+338894110+338228817+337632620+337108498+336734307+336482641+336103907
2708+335421022+334628188+334079023+333878570+333848475+333750993+333408242
2698+332746511+331858847+330968349+330286046+329912364+329784604+329669494
2688+329365307+328953751+328645603+328401788+328001827+327436633+326908913
2678+326519565+326229118+326003513+325772855+325376893+324705748+323842655
2668+323037245+322510906+322224711+321934481+321543352+321177776+320830954
2658+320268995+319455879+318742972+318422065+318341230+318176070+317870974
2648+317536619+317095550+316407286+315654760+315234627+315265703+315461286
2638+315450454+315061325+314370662+313617228+313025392+312637534+312326841
2628+311959483+311526738+311133864+310874057+310719328+310548680+310263066
2618+309827122+309254331+308654717+308216592+307987243+307769417+307403585
2608+307017909+306809459+306726407+306543618+306135589+305582934+305102574
2598+304878478+304903393+305004002+304968345+304617307+303923064+303129957
2588+302555967+302243602+302004295+301755173+301581272+301527769+301532113
2578+301514884+301410514+301151052+300683468+300005744+299238171+298658638
2568+298495041+298618620+298643536+298384329+297997834+297672857+297433622
2558+297232496+297028027+296806402+296615436+296488458+296347541+296108560
2548+295831379+295649590+295597923+295568537+295410973+295061462+294574759
2538+294051092+293598864+293341037+293322537+293410751+293410787+293270361
2528+293077595+292912998+292810155+292791836+292814317+292741096+292506604
2518+292242817+292122872+292154367+292208887+292170596+292026898+291887381
2508+291865155+291902465+291824174+291555425+291154719+290702982+290298477
2498+290076525+290103022+290267783+290357650+290269454+290088956+289898353
2488+289647360+289334322+289098468+288975052+288803513+288505577+288210386
2478+288034758+287949797+287894532+287874614+287907235+287914686+287733479
2468+287299425+286791132+286498631+286548044+286790678+286931449+286756366
2458+286286529+285748395+285375458+285213369+285136550+285056969+285024729
2448+285102566+285271379+285464562+285571967+285487552+285272760+285104238
2438+284983548+284764176+284493665+284385806+284451521+284497881+284458990
2428+284430258+284433620+284389440+284263371+284092704+283938357+283872788
2418+283923782+284024518+284118002+284252885+284452611+284587894+284541952
2408+284411684+284390313+284524832+284697462+284772482+284704059+284583732
2398+284588457+284784004+285015497+285088572+284993107+284856552+284740133
2388+284534573+283966999+282691333+280447968+277105019+272524969+266563992
2378+259337381+251372692+243336745+235630773+228349078+221545890+215315910
2368+209663009+204638182+200599736+197995574+197008593+197717648+200352505
2358+205127683+212072116+221309217+233195842+247214538+260642669+269607824
2348+271714288+267708882+261307036+256422889+253880680+252135649+250059552
2338+247546603+244816008+242110693+239710709+237957264+237122412+237158959
2328+237712158+238374816+238872205+239257009+240033051+241798273+244638399
2318+247976205+251007097+253292861+255037092+256811310+259021254+261659328
2308+264428995+266938219+268863876+270138415+271013793+271827800+272663069
2298+273331724+273735719+274076453+274601393+275314900+276067189+276773209
2288+277423418+278003823+278485346+278813231+278897992+278705717+278336251
2278+277926913+277521191+277116123+276760615+276499917+276289795+276061991
2268+275833915+275709972+275798531+276099374+276444997+276633092+276643396
2258+276623696+276664550+276712946+276716453+276721851+276771373+276805049
2248+276773463+276768829+276903985+277131153+277315250+277401337+277405481
2238+277358757+277326281+277368589+277471559+277590014+277707796+277813656
2228+277901852+278009166+278168892+278318896+278317278+278106194+277849185
2218+277805351+278040806+278375251+278609471+278673368+278597931+278493706
2208+278508154+278686435+278910005+279031567+279030204+278993839+278976374
2198+278931558+278815394+278687035+278645927+278728434+278899046+279081217
2188+279196109+279226059+279217009+279203760+279190603+279205305+279296608
2178+279465639+279653334+279807263+279908562+279927208+279836341+279699095
2168+279643176+279718850+279861657+279984963+280061801+280162281+280402280
2158+280780669+281137504+281338193+281381955+281311406+281172561+281049945
2148+280997423+280988282+281026755+281209253+281575157+281961197+282114835
2138+281967212+281712675+281585643+281663734+281925232+282334552+282789124
2128+283123933+283274046+283362260+283551972+283838694+284062664+284137138
2118+284153186+284222117+284344897+284491248+284675690+284899223+285088536
2108+285143674+285066419+285016078+285159903+285481863+285843915+286195443
2098+286575104+286940845+287165487+287214046+287205941+287267876+287401778
2088+287542767+287684429+287879157+288138111+288373929+288458072+288364006
2078+288252476+288340635+288658489+289000785+289149771+289099867+289038186
2068+289129835+289354640+289549823+289566924+289375049+289084728+288910863
2058+289020431+289363745+289715110+289900098+289946876+290032473+290304293
2048+290724027+291094056+291275027+291329129+291401314+291538869+291694779
2038+291823410+291902465+291920747+291891088+291856777+291888144+292059120
2028+292363016+292668402+292845048+292926719+293098876+293535166+294220741
2018+294902063+295297571+295394799+295429892+295605992+295957903+296389958
2008+296757225+297036987+297413268+298033345+298777384+299413090+299822192
1998+300021773+300205216+300720269+301686078+302691178+303174119+303018118
1988+302505500+301919679+301455530+301264581+301355539+301577964+301793283
1978+301957353+302037061+301989411+301845677+301748849+301886840+302318422
1968+302791332+302887669+302516658+302049892+301829957+301840334+301929675
1958+302031973+302096997+302084476+302042659+302012509+301950011+301867249
1948+301952700+302479312+303524084+304640369+304997168+304248114+303004306
1938+302067865+301661980+301577510+301600717+301637155+301667596+301714010
1928+301872301+302363202+303268475+304183271+304652364+304933670+305508278
1918+305991073+305547496+304308831+303286212+303107240+303544620+303968825
1908+303990778+303731461+303518014+303461150+303472417+303529028+303718231
1898+304088860+304536672+304896451+305287362+306120068+307372691+308205979
1888+307930942+306996755+306299913+306112726+306157179+306210354+306296133
1878+306491352+306764898+307082243+307706100+309175968+311624511+314036779
1868+314765280+313438219+311422749+310061196+309630449+309772638+310104412
1858+310383956+310521492+310572087+310659065+310972048+311723847+312999294
1848+314846624+317298693+319676177+320383851+318891412+316814371+315723092
1838+315720911+316128832+316630383+317690875+319858966+322614894+324393746
1828+324524522+323961764+323361822+322369844+321005746+320082608+320062072
1818+320551119+320997168+321442090+322347127+323769889+325036759+325496401
1808+325355448+325374712+326125275+327740021+329851374+331608127+332288794
1798+332163434+332387404+333972999+336740450+338843407+338381474+336132766
1788+334481492+334568434+335883863+337517328+339057453+340257954+340821040
1778+341074632+342141194+344965745+349147489+352519097+353042201+351256625
1768+348865837+346988012+346577366+348131339+350588969+352096310+352456035
1758+352752516+353152187+353515219+354849294+358145046+362407044+365095949
1748+365147961+363894466+362948394+363090692+364391873+366158149+367323830
1738+368145051+370431269+374811175+378358448+377772463+374706496+372028241
1728+370452459+369903112+370272760+371259323+373046426+376715060+382898789
1718+389798733+393369885+392094255+388741330+386020076+384947844+385846883
1708+388736532+392821665+396713615+400363531+405343670+411864406+416949515
1698+418510867+417749691+415338294+412047849+410242391+411292961+414573157
1688+419333506+426114014+434482371+439810640+438686576+435055924+433301970
1678+434684932+438594728+443090399+446443943+449217463+452384002+454517418
1668+453885273+452386873+453017310+455947994+458727148+459500573+459440455
1658+461005115+466005935+475148044+485632807+489607700+486918323+485563457
1648+487664451+489543766+487635774+483886085+481822819+482614963+486273275
1638+492413315+498840567+500899872+497273981+492789941+491209543+492610787
1628+495270215+497885917+500464618+502776642+503823287+504104684+505785945
1618+509624537+513127212+513308510+511382853+510253629+510778150+512127637
1608+513296080+514105124+514985264+516108455+517158516+517890542+518485685
1598+519237011+520222375+521351454+522478970+523423661+524059841+524450279
1588+524817782+525375306+526177191+527073250+527941431+529190164+531737971
1578+535837752+539532265+539942149+538223778+538178526+540804478+543567058
1568+543835843+542504312+541869623+543223326+547755599+556759699+568059612
1558+572985521+569507635+565297323+563712781+564114778+565464264+567195175
1548+569606171+573998254+581426827+591419525+602287892+611190439+613985441
1538+611400888+609683062+612026417+617132425+621852647+625278994+629414467
1528+635471237+642444310+649188035+656294429+664157492+670897800+674986605
1518+677500426+679419105+680791635+682445854+685790056+691616386+699956756
1508+709297101+714453704+711545737+705935162+703355043+704635252+708424995
1498+712650172+715300804+716058491+716773579+719251636+723405646+727221050
1488+728704947+728084288+727023759+726886949+728150584+730524834+733586404
1478+737231922+741463424+746171651+750714792+753202589+752304458+749987564
1468+749230894+750872973+753233629+754116640+753999821+755395832+759482528
1458+764242877+765303842+761912607+758064201+756098126+755822253+756071375
1448+755530024+753864902+752039417+750834736+750174314+750285680+751991075
1438+754952255+756609526+755176224+752638486+751307682+751097524+750960787
1428+750688040+750730057+751102758+751570106+752513961+754443689+756338379
1418+755912103+752939438+749600251+747326101+746042111+745272793+744990160
1408+745523587+746714310+747541129+747308073+746798199+747196706+748768998
1398+751160041+753825647+755687988+755759446+754793782+754670130+756022888
1388+757601723+757956614+757749364+759275278+763700582+770027699+776467419
1378+782113832+787074089+791544244+795341910+798256638+800446609+802326906
1368+804387918+807045165+810205380+812998418+814317446+813862238+812340322
1358+810585568+808967914+807490414+806066853+804582229+802853644+800977855
1348+799631204+799389279+799904242+800515450+801419688+803254550+805619277
1338+807163365+807474494+807624679+808530879+809915404+811041212+811758845
1328+812625427+814336710+817069776+820255361+823179175+825691398+827963732
1318+829937076+831616810+833525384+836199277+839441854+842558016+845255317
1308+847861605+850608193+853245594+855672184+858283052+861119125+863333594
1298+864156269+863720397+862491873+860813593+859226616+858152494+857137108
1288+855350950+852672404+849510445+846148287+842870599+840101186+837978020
1278+836185974+834337373+832324192+830479080+829439124+829600940+830697161
1268+831960433+832702927+832823162+832833485+833282369+834253920+835583852
1258+837212119+839017541+840689206+842052649+843148725+843910846+844225392
1248+844408217+845210756+847080220+849600221+852008565+854131658+856237159
1238+858146387+859305344+859736781+860090799+860817882+861976402+863620516
1228+865837384+868482055+871242890+873970941+876630368+878978230+880865578
1218+882730681+884975100+887231949+889171927+891254675+893803754+896339675
1208+898373718+899853980+900943950+902299252+904765024+908088072+911060519
1198+913232099+915341380+918043988+920998406+923183435+923997459+924103955
1188+924795636+926700212+929698974+933559593+937769650+941165974+942768289
1178+943083126+943885010+946532371+950783427+954951032+957246264+957426253
1168+957022149+957790086+959954614+962190964+963528165+964635364+966552588
1158+968924730+970748761+972164181+973678391+974632787+974524764+974487254
1148+975430237+976685804+978198924+981509469+986829051+991651190+994021296
1138+995018436+996297773+997245845+996438217+994531243+993644525+994675322
1128+996992216+1000039319+1003492563+1006399948+1007918448+1008797751
1120+1010815656+1014292307+1017125763+1017675837+1017693792+1019875913
1111+1023646246+1026124957+1026199468+1025281855+1025106227+1026226437
1103+1027794586+1028790563+1029475411+1030483455+1031074455+1030010218
1094+1027942736+1027109593+1028531628+1031023642+1033021629+1034479938
1085+1036160472+1038202657+1040713716+1043606127+1045352667+1044617443
1077+1042942215+1042879626+1044425822+1045686913+1045792973+1045536146
1068+1046160149+1048093293+1050244301+1051322640+1051889578+1053054931
1060+1054051562+1053515882+1052179917+1052225132+1054466426+1057742659
1051+1060482486+1061727148+1061385124+1060682830+1061411876+1064046369
1043+1067364911+1069967056+1071458586+1072327348+1073175466+1073741823
1034+1072957385+1070364327+1066798627+1063331717+1060354182+1057858097
1025+1056148559+1055909760+1057363852+1059575705+1060803938+1060932024
1017+1062000767+1064413472+1065340390+1062601000+1058311924+1056673843
1008+1058903651+1061650384+1060918503+1056947608+1052871743+1050066783
1000+1047837411+1045922440+1044897313+1044672835+1043874949+1041314239
991+1037818107+1035659975+1035949733+1037443153+1038207164+1037593483
983+1035908661+1033378483+1030458957+1027975085+1026187110+1024235283
974+1021205117+1016952243+1011963999+1007531499+1004912780+1003530218
965+1001244000+996980222+991648936+986249318+980751201+975123106+970191636
955+967119527+966385247+967379843+968757752+968892817+966665845+962814676
945+959649591+958389300+957834938+956306625+953584317+950527109+948212396
935+947543468+948372758+949300693+949326064+949021913+949213679+949161776
925+947157173+943115547+939550428+939118773+942059235+946496896+950030175
915+950843109+948800270+945715220+943487376+942432517+941881280+941188291
905+939852980+937844743+935799068+934120788+932505025+930758848+929316169
895+928703215+928878043+929215706+929128619+928582398+927806829+926789625
885+925605735+924915726+925521265+927614190+930493807+932598000+932183864
875+929128691+925639247+923762440+923233884+922791688+922237035+922198507
865+922953068+924111588+924599581+922992686+919119564+915156738+913599929
855+914567264+916432368+918328729+920502635+922949215+925080959+926257144
845+926144905+925202139+924646251+925159032+925884661+925409244+923618870
835+921790114+920874609+920689531+921097706+922759485+925635830+927934261
825+928092660+926849379+926149048+927176501+929795729+932824659+935083980
815+936442553+937191226+937105302+936274922+936012424+937490433+939626248
805+939896305+937935755+936384907+937202494+939402351+941209881+942350300
795+942894558+942050875+939935633+938470418+938866453+939860903+939689273
785+938872051+939416890+941633976+943871780+944875753+944682751+943590819
776+941709941+939630755+938296534+938009321+938242668+938413862+938349019
766+938131156+938044723+938433635+939585903+941749850+944489023+945792785
756+943497117+938624528+935358617+936731002+941591668+946015882+946945198
746+944610857+942089475+942489872+946217970+950733414+952911100+952003955
736+950152882+949775529+951071658+952128480+950950405+947686893+945037133
726+945556385+948509568+950450926+949361756+946530553+944046245+943348603
716+945190444+948389986+950669880+951789073+952935089+952973399+949480320
706+943472764+938950923+937332761+935679269+931473137+926522548+924074514
696+924072406+923625994+921778774+921192644+923310212+924777390+921184648
686+912796518+903879614+897398677+893427709+891842695+893607190+898181952
676+901779637+900341392+893109747+881425174+868028955+861412880+870466376
666+887421462+897801473+897481039+891049243+884705261+881068902+878705992
656+874954487+869476651+865030484+864575130+868592331+874641177+878759350
646+878610909+875418636+871349459+866805301+862138945+859576128+860658756
636+862949262+863149606+862375345+863086653+863744895+860169672+851669085
626+843061929+839706241+842844139+849357861+853812242+851956225+844195370
616+834480797+826754108+823939770+827596192+835923695+842944819+843090934
606+837719085+833907753+837265476+845727390+850789782
##END=
