##TITLE=<SNM>
##JCAMP-DX=4.24
##DATA TYPE=INFRARED SPECTRUM
##DATE=2/5/2025
##SAMPLING PROCEDURE=Instrument type and / or accessory
##ORIGIN=Admin
##XUNITS=1/CM
##YUNITS=ABSORBANCE
##RESOLUTION=4
##FIRSTX=4497.3318
##LASTX=599.83466
##DELTAX=-1.4281778
##MAXY=1.7209855
##MINY=0.211758
##XFACTOR=1
##YFACTOR=1.6027927e-09
##NPOINTS=2730
##FIRSTY=0.23293796
##XYDATA=(X++(Y..Y))
4497+145332559+145389866+145424758+144774702+143633310+143032631+143471375
4487+144244234+144520253+144528127+145106112+146480330+148006348+148837500
4477+148565237+147502163+146521729+146358334+146943999+147542028+147488245
4467+146650316+145316382+144021357+143402158+143737464+144628386+145471224
4457+146124245+146678263+146794559+145946003+144360567+143082490+142840982
4447+143280972+143595108+143481573+143170635+142952528+143019076+143455849
4437+144145351+144803309+145165250+145097754+144633564+143971293+143392861
4427+143089454+142942840+142513096+141500736+140196172+139162234+138573855
4417+138254940+138226938+138733968+139668409+140337180+140095504+139149228
4407+138381863+138294248+138498345+138479584+138372659+138521150+138780407
4397+138814936+138640877+138399174+138084461+137857270+138031608+138519589
4387+138856568+138768330+138196620+137103116+135757785+134737886+134288125
4377+134194318+134334656+134707484+135011747+134903242+134557821+134412519
4367+134528768+134632904+134522186+134122722+133461138+132855039+132782922
4357+133294861+133867250+134036790+133878099+133771686+134024601+134676256
4347+135395063+135704959+135500286+135086532+134676386+134253475+133895438
4337+133738263+133663376+133480299+133401600+133893718+134962919+135944060
4327+136164901+135549895+134410213+133087250+132118150+132122333+132967719
4317+133643675+133535998+133176157+133278750+133820644+134458939+135090419
4307+135600433+135656029+135124613+134384377+133973570+134071588+134456307
4297+134840301+135105117+135282699+135512986+135959632+136566261+137042444
4287+137244059+137304155+137303699+137202976+137089431+137078628+137102521
4277+137094359+137082998+136961737+136620212+136308260+136340605+136588909
4267+136791249+137067091+137553686+137847416+137429776+136493633+135820484
4257+135918288+136692133+137786604+138701094+138798954+138003447+137224703
4247+137245956+137634087+137627318+137452944+137782495+138485664+138829151
4237+138523121+138021158+137987800+138678567+139723494+140466417+140500156
4227+139898445+139067024+138344675+137722185+137151628+136943292+137343453
4217+137926989+138102609+138012846+138190493+138573725+138618899+138185464
4207+137697864+137544343+137786874+138397826+139327321+140285079+140859346
4197+141021011+141147255+141369165+141310984+140713262+139953939+139592081
4187+139642341+139676144+139491143+139285922+139235560+139312251+139554391
4177+140116246+140940546+141681823+142090826+142325278+142752345+143466680
4167+144131248+144337046+144000829+143374305+142832829+142690018+143014613
4157+143568119+144054138+144419148+144800055+145199668+145299592+144744915
4147+143703865+142840238+142516396+142431914+142284510+142264689+142594491
4137+143100238+143485822+143593407+143349277+142891772+142690455+143085289
4127+143748946+143985935+143569105+143003168+142896829+143316905+143869509
4117+144193352+144229136+144137923+144091168+144105950+144088444+144012757
4107+143895987+143639399+143200302+142924665+143276314+144164020+144994288
4097+145431795+145606216+145548807+145089945+144437863+144172731+144478825
4087+144906952+145039248+144980110+145048703+145265779+145340434+145141292
4077+144985409+145229939+145745653+146119318+146169670+145958545+145583829
4067+145232979+145104959+145093533+144905464+144574965+144483232+144813843
4057+145332671+145772066+146157147+146621709+147087284+147308943+147208461
4047+147052048+147207689+147690734+148040989+147831723+147215834+146677593
4037+146378936+146167393+146056953+146209006+146588779+147043904+147528222
4027+147950836+148094967+147949134+147801173+147793345+147747148+147601640
4017+147650347+148074821+148563954+148717383+148591669+148511612+148543017
4007+148490322+148294806+148177273+148443753+149189689+150061682+150436853
3997+150083158+149484766+149273027+149562024+150037017+150394877+150565226
3987+150741999+151149766+151600326+151577130+150976618+150384716+150431731
3977+151197134+152296560+153261755+153862769+154243528+154643513+154920758
3967+154673263+154004353+153698026+154251802+155139043+155491352+155181707
3957+154703934+154395273+154384256+154991462+156503405+158390696+159332333
3947+158772040+157963889+158357766+159513401+159754807+158595416+157188854
3937+156738061+157663057+159656426+161667014+162340767+161403184+160264245
3927+160511936+162105999+163407765+163287499+162671592+163073148+164398007
3917+164938702+163396497+160494551+158149494+157516666+158418903+160496113
3907+164154110+169651276+175575119+179390161+179946233+177920380+174176888
3897+169811370+166759854+166616717+168882433+170693451+169995860+168931056
3887+170407996+173450736+175009229+175277002+176225704+176464451+173894687
3878+170887554+170894025+173739575+177287403+180618629+182950019+182617410
3868+180370808+179074788+179318407+179009821+176919818+174488876+173921239
3858+176785068+184039720+194534228+201050829+196285057+185446951+176326595
3848+171939398+172515495+176589812+181883430+187000201+191793045+195512867
3838+196277266+193851475+190454352+187565514+184975798+182640894+181253521
3828+180824911+180909551+182691321+188039865+195212295+198671746+197304585
3818+195182229+192848161+188029732+182152262+178975589+180207200+185032640
3808+190483693+193541271+195219398+198436160+202153081+202497163+199764254
3798+197081289+194723515+191777854+189101136+188050743+188794856+190926026
3788+194172835+197913315+201161128+204011105+207866719+213019264+217314756
3778+219057888+219860293+222588219+228754137+238051823+248379692+257024171
3768+263257678+268117759+272479520+277798017+286328534+298481737+311290342
3758+321850524+331760418+345024892+363791776+386216880+405929492+418458760
3748+427899490+439532824+452200617+459472134+460897513+463791892+473302461
3738+489387272+507050119+519002155+522175406+519916645+517251344+517115050
3728+519656403+522685811+523765751+523014925+522329476+522489831+523083463
3718+524287424+527320737+533519790+542972718+552886851+558668022+559180882
3708+557665508+558316224+563625740+572106387+578453411+579140682+576637596
3698+574795749+574825164+576823759+581830304+590847574+601229830+605788149
3688+601382970+594320747+590906294+592071878+596093313+601428228+607723486
3678+614218109+617170241+613732434+608818375+607203077+605940991+599833979
3668+590345946+583257765+581029907+581920001+582981086+583691489+585950176
3658+590332149+594821558+598529164+603938901+613477287+625982308+635099242
3648+634450981+626821492+619132093+614443803+612076564+610445759+609317624
3638+610143904+614381922+621483342+629239084+636351585+642455176+645355022
3628+643305814+640048741+640310545+645173544+653179078+661679882+667355960
3618+668778847+668623847+669717025+671442176+671749721+670479751+668818340
3608+667073926+665273729+664580545+666557161+671527932+677624160+681856972
3598+682999907+682592550+682634796+683750361+686188332+690802395+697527546
3588+703267364+704121572+700967807+698275174+698632030+701526669+705287937
3578+708263423+708448024+704301562+697672059+693670556+695666733+701956339
3568+707403487+708377515+706141178+703572231+701242552+698168593+694207923
3558+691248948+691655413+695241972+698673680+699013727+697144064+695826121
3548+696030134+696954553+697823860+698297486+698226383+697635019+696534329
3538+695124309+694109746+694259763+695858326+698864231+702862982+706346381
3528+706965785+703687589+698235011+693647797+691776200+692066935+692711255
3518+692979083+693967763+697088356+701987800+706158508+707030492+704706019
3508+701809223+700568260+700953825+701357761+700464654+698499045+696802529
3498+696116782+695464654+693558620+691414881+691658239+694796237+698312957
3488+700045768+700253054+699482370+697275486+694274340+693015304+695126838
3478+699031875+701139318+699539268+696333440+695299911+697763987+701348464
3468+702743460+701473341+699778833+699025776+698198046+696233032+693879181
3458+692309178+691274087+689670318+687503820+686126302+686588103+688709083
3448+691787877+695326761+698447131+699542169+697684033+694127820+691377693
3438+690977476+692867965+695914703+698439173+699237004+698610089+697597385
3428+696611978+695791239+695338512+694361435+691300119+686963255+684797649
3418+686829750+691293276+694585604+695244798+694889653+695027323+695312629
3408+695215643+695433639+696591971+697762054+697547628+695462422+691719079
3398+687426915+684721860+684999506+687144584+688465799+687686562+686225148
3388+686045455+687179838+688502912+689983292+692124800+693981299+694158537
3378+693322179+693122703+693158626+691673263+688883420+687114908+687646696
3368+689598843+692113569+695518948+699768048+703424000+704917619+703996621
3358+701709634+699596612+698754378+699026074+699225327+698488038+696963553
3348+695102368+693086184+691232511+690333603+691083462+693211954+695054916
3338+694990879+693731396+693419165+694856853+696979023+698151709+697363845
3328+695051123+693165171+693168964+693963077+693360706+691248576+689487502
3318+689360765+690710912+692798423+694752578+695898414+696483753+697277271
3308+698267959+698753857+698703505+698982266+700201809+701942877+703111249
3298+702604302+699968045+696089486+693089828+692904112+695577185+699297843
3288+702215911+703544638+703043716+700883614+698057401+695799048+694786865
3278+695181802+696660396+698024601+697866998+696215033+694872398+695401285
3268+697156261+698336311+698766353+699847779+701820231+703086779+702259867
3258+699724241+697045962+695946238+697276602+699690772+700592506+699446818
3248+698400869+699017669+700257889+700166629+698235011+695447919+693026609
3238+691837709+692282775+694157868+696958049+700329438+703973267+707147931
3228+708525449+707006543+703200798+699666079+698455089+698626749+697636284
3218+695029257+692732006+691977461+691849014+691167804+690402773+690449183
3208+690766546+690185892+689006066+688614700+689273671+690005382+690289870
3198+690581275+691253039+692003865+692331788+692090215+691642992+691444557
3188+691312094+690654759+689574745+688738684+688001470+686281599+683351855
3178+680781420+680376071+682162954+684203534+684571249+683366507+681979171
3168+680906223+679681623+678584354+678644970+679746181+680315009+679367310
3158+677708800+676563484+675840326+674590140+672838511+671872218+672457706
3148+673737642+674054930+672272064+668566875+664559199+662199844+661868648
3138+662343539+662855989+663839909+665744901+668254124+670270680+670353981
3128+668018947+664452098+661422764+660133382+661045008+663568065+665914404
3118+666450655+665098276+662739739+659949450+657048191+654650533+653344044
3108+653199011+653901343+654850678+655101697+654030981+652164292+650537540
3098+649387465+648235380+646965113+646149580+646421127+647749259+649327369
3088+650391838+650829169+650602248+649439825+647730070+646584605+646365940
3078+646287994+645668368+644509367+642963685+641278697+640045468+639680431
3068+639746775+639277834+637878747+636143184+634868379+634369539+634599212
3058+635320957+636114028+636645593+636982740+637262170+637107171+635800608
3048+633239619+630496484+628887731+628560775+628585319+628437831+628523066
3038+628854485+628434261+626777238+625003966+624459162+624965960+625260638
3028+624776450+624219820+624316137+624653283+624121198+622209623+619495532
3018+616966265+615341075+614907835+615404294+616011426+615813325+614398434
3008+612069424+609776003+608677693+609136556+610206975+610490905+609491180
2998+608004367+607181583+607203152+607041161+605751407+603596846+601379623
2988+599388764+597800800+597314864+598330803+599886265+600362978+599205762
2978+597242794+595422962+593950318+592609876+591275608+589986933+588922873
2968+588283574+587959369+587596005+587167339+586929038+586721827+586118452
2958+585292878+584813785+584656554+584293079+583532213+582599909+581568835
2948+580194293+578401162+576675155+575584989+574970718+574249792+573614323
2938+573941280+575215936+576114881+575660444+574350385+573078965+571886792
2928+570386852+568694909+567239334+566091861+565159484+564562803+564191518
2918+563481041+562233049+561004655+560146394+559270579+558231509+557614821
2908+557747768+558063568+557718650+556445184+554722525+553431767+553250587
2898+553903385+554118592+552810950+550271308+547961747+547139484+547786555
2888+548851024+549319927+548861697+547667442+546186392+544910286+544019299
2878+543379852+542915671+542504037+541667196+540124973+538459174+537538176
2868+537481464+537639215+537379904+536567383+535431327+534196091+532843340
2858+531256119+529593035+528347646+527891759+528036866+528188296+527833969
2848+526742687+524978117+523028796+521628036+521086542+520971259+520585285
2838+519651755+518496956+517609650+517087717+516677608+516247677+515799934
2828+515153718+514168236+513094991+512215532+511371699+510228280+508757978
2818+507267781+506183007+505793834+505911534+505803020+504708466+502564466
2808+500179117+498505434+497701504+497139444+496366790+495628422+495289453
2798+495257434+495229432+495075027+494690466+493783860+492227989+490517006
2788+489348151+488769245+488216855+487388157+486527069+485727193+484596157
2778+482956650+481370433+480578403+480711090+481234065+481377871+480608414
2768+479036924+477352531+476112088+475257322+474459826+473557087+472513815
2758+471349868+470239844+469467932+469220558+469350009+469267824+468414471
2748+467013859+465799932+464907234+463774525+462184217+460627491+459589834
2738+459033539+458540203+457685288+456426995+455211766+454488683+454146962
2728+453670398+452809087+451857297+451184715+450722766+450115412+449184485
2718+448041698+446935466+446110897+445557465+444908758+443914500+442811653
2708+441881730+440998961+439966139+438910595+438050436+437386631+436843872
2698+436444101+436113872+435526524+434456068+433185503+432200728+431545066
2688+430864154+430023631+429267116+428788209+428468057+428024144+427249630
2678+426127333+424806267+423513501+422475324+421838479+421607579+421629074
2668+421637032+421437518+421134771+420991783+420940352+420492237+419316166
2658+417645607+416006435+414820138+414311146+414479459+415005446+415286215
2648+414742006+413265680+411411449+409955874+409186380+408773891+408306028
2638+407624298+406690582+405575760+404583436+403996572+403763106+403687912
2628+403669466+403535515+403033775+402196078+401388280+400902345+400724847
2618+400629720+400299974+399502477+398343402+397256397+396600884+396296277
2608+395949090+395341996+394664096+394212225+394041569+393953843+393671288
2598+393052592+392278263+391724013+391502075+391261581+390619827+389686483
2588+388938000+388602304+388410154+388017523+387413367+386745991+386018222
2578+385216895+384542900+384202072+384046552+383698249+383045823+382387372
2568+382002700+381785819+381427773+380835666+380224184+379820360+379605450
2558+379391136+379067823+378678725+378291152+377921169+377558995+377170901
2548+376721819+376259907+375913091+375750543+375671778+375450435+374938915
2538+374269382+373756336+373540274+373448160+373243997+372867432+372383839
2528+371862203+371373776+371011082+370837451+370796172+370664713+370207970
2518+369485295+368888019+368693303+368689844+368491446+368124512+367994875
2508+368305134+368785231+369010925+368799511+368276053+367678368+367151600
2498+366709546+366329820+366007958+365744592+365546603+365378960+365089674
2488+364545540+363892221+363470621+363422537+363552323+363588246+363425474
2478+363110529+362698747+362170752+361523420+360935404+360683790+360807960
2468+361013164+361013424+360838008+360706697+360702979+360681707+360484797
2458+360143783+359802360+359537507+359360194+359262762+359145285+358831716
2448+358292825+357760367+357531921+357688036+358003093+358119640+357823140
2438+357163425+356391105+355827595+355657200+355764971+355906694+356010002
2428+356109518+356103307+355857011+355465347+355175281+355118495+355245194
2418+355435225+355577097+355585092+355426225+355158769+354907899+354781609
2408+354802880+354880045+354836535+354567964+354202183+354009251+354130968
2398+354438624+354611994+354386486+353839005+353357532+353200375+353196879
2388+352974198+352321995+351235808+349714112+347618197+344771196+341205759
2378+337242114+333247938+329352272+325461441+321541269+317844373+314797003
2368+312603395+311068572+309854793+308743541+307724107+307174003+307901345
2358+310589219+315168957+321166154+328548491+337246465+345832764+352014785
2348+354456957+353670840+351545881+349730847+348301154+346561872+344252981
2338+341427102+338151026+334609465+331114016+328053296+325846263+324643975
2328+324068751+323539900+322898519+322567843+323079067+324515602+326431825
2318+328181743+329297941+329767290+330056390+330733955+331995632+333599439
2308+335179631+336519291+337598747+338508663+339327617+340045531+340599260
2298+340981553+341282404+341612708+342034122+342579856+343233807+343844731
2288+344228809+344418207+344596895+344768741+344781831+344659780+344561269
2278+344471386+344285818+344099618+344086118+344202442+344247142+344098725
2268+343799696+343526067+343482297+343734246+344164622+344580496+344800091
2258+344752118+344597974+344596747+344768109+344888561+344858216+344834527
2248+344967399+345217266+345480296+345730200+345985495+346240196+346480876
2238+346725648+347027094+347457433+348044185+348684823+349203335+349552344
2228+349897821+350440877+351179319+351915567+352540065+353229345+354248630
2218+355622280+357123783+358528634+359774208+360944254+362172648+363537559
2208+365052672+366745507+368663627+370804800+373093274+375419569+377711800
2198+379995627+382361043+384845610+387349738+389668298+391663471+393421571
2188+395137722+396870348+398549944+400135045+401592629+402830022+403796872
2178+404596563+405387849+406138266+406595678+406662579+406599211+406604938
2168+406475152+405915435+404899199+403575753+402065139+400351368+398335667
2158+396080661+393826957+391657261+389376149+386706126+383484902+379864464
2148+376191369+372569296+369193258+367134047+367625263+370525890+374556808
2138+378829523+383171109+387479227+391690581+395899965+400080862+404100884
2128+407970184+411801216+415755639+420049253+424736279+429603258+434429330
2118+439215053+444100737+449088093+453934433+458496656+462994879+467628391
2108+472235984+476633055+480969398+485669105+491375305+498849646+508390486
2098+519168050+529439523+537722926+543608818+547343088+549238188+549617431
2088+548567874+545720762+540672826+533203208+523119386+510664978+496816020
2078+482699086+469159384+456776897+445734852+435962368+427586367+420806512
2068+415494468+411281105+407712396+404326578+401024954+398095804+395678176
2058+393693936+392144907+390937153+389787188+388570323+387324339+386061397
2048+384945646+384228996+383884970+383739193+383757936+383957115+384455992
2038+385611646+387711317+390857050+395394468+401960864+410965714+422314485
2028+435474647+449558893+463451845+475896472+485664419+492196937+496035296
2018+498184018+499193337+498987390+497292324+494094082+489715940+484488386
2008+478479699+471565856+463661994+454942971+445895653+437047365+428648828
1998+420755528+413574675+407472236+402491871+398084797+393635439+389131787
1988+384998416+381561390+378956929+377159112+375862702+374651377+373365714
1978+372078823+370806919+369485072+368173749+367157215+366772766+367027020
1968+367386740+367155542+366170543+364946612+364076599+363706467+363612158
1958+363545108+363387506+363132024+362830690+362527013+362277741+362225083
1948+362524670+363260546+364393106+365458245+365524476+364182585+362276254
1938+360932652+360449914+360467132+360591972+360646639+360642139+360617372
1928+360619975+360978021+362050039+363455076+364414229+365000460+365746340
1918+366141239+365164534+363201119+361753911+361619105+362334379+362915255
1908+362776507+362082170+361321415+360758091+360422209+360355977+360644817
1898+361294900+362082504+362626044+362953819+363653362+364815971+365406962
1888+364609243+363107182+362022929+361599730+361494860+361462804+361440379
1878+361458230+361585264+361916014+362875985+365278292+369287009+373142065
1868+374031453+371405497+367687814+365171339+364296045+364384590+364707419
1858+364871864+364832780+364769783+364877554+365329983+366312304+367971446
1848+370530947+374075298+377410243+377995879+375194099+371698725+369916081
1838+369818909+370098674+370235563+371297615+374378157+378424954+380700116
1828+380372973+379246809+378226780+376568678+374351344+372847016+372615334
1818+373012948+373379957+373948524+375388257+377635230+379504001+379887670
1808+379131973+378599106+379373025+381705493+384914520+387508085+388253407
1798+387661448+387767211+390224817+394517538+397434713+396084863+392145205
1788+389431968+389341341+390773525+392484657+394255474+395845001+396650158
1778+397101620+398947298+403536742+410002731+414806713+414967848+411732233
1768+407876433+405040179+404581725+407086448+410710046+412611506+412781752
1758+413096549+413862212+414879824+417540663+423048651+429713409+433805315
1748+433941572+432207384+431014728+431488875+433542322+435975272+437541333
1738+439255327+443805874+451380622+456915869+455869175+451551538+448164455
1728+446488095+446559310+448397884+451365486+455462264+462373988+473352776
1718+485696066+492605559+491313499+486575823+483181191+483043707+486694750
1708+493786910+502457551+510167217+517107984+526200560+537804033+546832274
1698+549947735+549707240+547661343+544843980+544372325+548015558+554816462
1688+563859131+576223842+591324399+601778799+602107764+598613097+597989826
1678+602020670+609834240+618581005+625660334+632062694+639416768+645373021
1668+646823501+646566532+649388060+655562977+661192124+663624070+665180239
1658+669675152+679277315+694194907+709330941+713285289+708258811+706604615
1648+710259748+712868040+708923435+701864782+697365183+697357374+701931943
1638+710064065+717334095+716282642+706803868+697504936+693155279+692844983
1628+693852257+694729447+695767810+696288368+694490700+691431244+690589977
1618+692811588+694308479+691340951+686150549+682562279+681283830+680926826
1608+680304596+679629113+679584041+679910924+679559869+678025493+676088742
1598+675038181+675268970+675900422+675904215+675233790+674471436+673879180
1588+673292577+672648109+672190176+672102709+672361538+673422288+676522205
1578+682149864+687637697+688629128+686321465+685943412+688910047+691794645
1568+691371594+689303198+688658507+691004177+698221474+712465368+729680360
1558+734587093+724736514+714084534+708074582+705821808+705876995+707155443
1548+709703788+714978756+724082377+736494837+750594814+761879659+761968613
1538+752377978+745029556+744810370+748338916+750087570+749629488+750910540
1528+755534941+761777021+768227650+775487044+782932378+787462247+788271756
1518+787574853+785876328+783024009+781175394+782956029+789237528+799504984
1508+810831629+814890476+806857869+796169891+790668001+790573990+793945974
1498+798276739+800316278+798937942+797481883+799700742+805472914+810361796
1488+809979875+805327657+800405083+797579316+797013240+798052719+800534422
1478+804881550+811201947+818684841+825048153+826562448+822333355+817166455
1468+815690018+818028399+820737767+820948474+820523192+823522925+831486511
1458+840856844+843151641+836154348+827795974+823179382+822345627+823724930
1448+825363507+825681985+824473971+822531642+820753163+820355995+822671320
1438+827449828+831605289+832142953+830536655+829742989+830189170+830574215
1428+830372805+830497979+831724960+833956091+837194868+841650064+845623750
1418+845360533+840358971+834577279+830993770+829652027+829246603+829012988
1408+829317856+830518656+831792047+832043512+831740579+832265376+833997965
1398+836318644+838604293+839949308+839136602+836583646+834600261+834661398
1388+835776815+835713298+834084166+833157218+834949531+839164121+844231803
1378+849447419+855078202+860471949+863735642+864398332+864475162+865668748
1368+867863509+870604562+873805481+876433780+876496404+873513332+869364565
1358+866000539+863996181+862997981+862378875+861555607+860297165+859025633
1348+858484771+858812769+859433958+860176825+861601423+863654572+864944921
1338+864239241+862092676+860178461+859611493+860258192+861158365+861563714
1328+861739316+862596276+864563446+867084123+869221540+870474701+870980607
1318+871327645+872244701+874012841+876098493+877695866+878567999+879066987
1308+879494129+879874636+880238930+880668749+881144829+881566244+881858690
1298+881919455+881536642+880645469+879518450+878239480+876200016+872867377
1288+868891460+865513600+862996344+860465924+857211752+853529099+850277009
1278+847974775+846406036+845005834+843655761+842928066+843366662+844692414
1268+845960152+846524964+846654006+847047009+847944578+848984726+849787392
1258+850323420+850829325+851678178+853147773+855035139+856736415+857881954
1248+858567626+858941886+859168956+859761807+861277515+863770301+866940577
1238+870416167+873538099+875513228+876311580+876866499+878085670+880104532
1228+882425956+884439239+885854094+886778513+887612045+888912509+890998458
1218+893547397+895793106+897316995+898557587+900368568+903028179+905750266
1208+907529637+908487525+909788956+912201267+915384857+918736759+922235034
1198+926032449+929727150+932520266+934057097+934753852+935319184+936335680
1188+938135653+940725574+943892429+947350392+950690469+953579381+956069341
1178+958141827+959290565+959417673+959414624+960014764+960974511+962018453
1168+963719357+966670745+970272328+973006538+974043563+974170076+974665495
1158+975916424+977737818+979982411+982124067+983416350+984013664+984884681
1148+986474245+988342123+989976089+991349739+992810484+994632919+996598750
1138+998205346+999370520+1000296204+1000717469+1000348788+999834255+1000373704
1128+1002290299+1004695692+1006609535+1007818963+1008890721+1010469277
1120+1012549202+1014447351+1015877081+1017803865+1021301173+1025536960
1111+1027990178+1027265979+1024736526+1022927553+1023148970+1024880443
1103+1026632890+1027250806+1026872604+1026431926+1026608197+1028016135
1094+1031138513+1035136222+1038072884+1039182871+1039697925+1040611857
1085+1041201212+1040555629+1039232257+1039006228+1041626420+1047065982
1077+1052730458+1055961276+1056936271+1057356272+1057876012+1058447070
1068+1059509903+1061290018+1063192333+1064844224+1066381129+1067327415
1060+1066670005+1064571041+1062631538+1061757025+1061057444+1059848165
1051+1059171046+1059938086+1061269639+1062007598+1062562368+1063895409
1043+1065584190+1066555466+1066927049+1067053637+1066631330+1066338586
1034+1067946669+1071448886+1073741823+1072252518+1068482920+1065464445
1025+1064090125+1063966066+1065206806+1067406625+1068732005+1067943099
1017+1065851721+1063772317+1061679971+1058694073+1054954895+1051782833
1008+1050193121+1050270397+1051629916+1053476077+1054424519+1053671537
1000+1052243295+1051666435+1051625528+1050489658+1048007954+1045612304
991+1044223778+1043242610+1041719390+1039830463+1038483142+1037582226
983+1035986712+1033301367+1030293751+1027373154+1024166210+1020812448
974+1018210702+1016736049+1015753914+1014418345+1012344816+1009691007
965+1006773534+1003548815+999782043+995885931+992877868+991048591+989259774
955+986077969+981289569+975840263+970860345+967183493+965082892+964133855
945+963834566+963986516+964130656+963747248+963206832+962935657+961946457
935+959290267+956385067+955673288+957527556+960045555+961585956+962354186
925+963194635+963820732+963103078+960789538+958083442+956394512+956057143
915+956190053+955602036+954049363+952428115+951781416+952623650+954623174
905+956337615+956236463+954302688+951811092+949881630+948987408+949153489
895+949770512+949840575+949004068+947824911+946681455+945073966+942635847
885+940171919+939046834+939874192+941841586+943240078+942852132+941006046
875+938973053+937497731+936670372+936600087+937091489+937215697+936145724
865+934047726+931946456+931157029+932397769+935082370+938009512+940672470
855+942831679+943366219+941280047+937652284+935058942+935071586+937045153
845+938954905+938805781+935883177+931423295+927915426+927155229+928810987
835+931077298+932633764+933565621+934550880+935864657+937344665+938734008
825+939581374+939222138+937707397+936334044+936571601+939239765+944659915
815+951955233+958369195+961035500+959671147+956794209+955272774+955576823
805+955162028+951587518+946348473+943287753+943838581+946392950+949089600
795+951200242+952894527+954610604+956031111+956033640+954457018+952734470
785+951841735+951440105+951740137+953847655+957390630+959747382+958482098
776+953774321+948262242+945134955+946034160+949946263+954331620+957235259
766+957922716+956337466+952897130+948545689+944566425+942220680+942485236
756+945716352+950670239+954058065+953087235+948870563+945252617+944621314
746+946668067+950098287+953652047+956057440+956499308+955410369+954455456
736+955154813+957231912+958908123+958697714+956611393+953601843+950449788
726+947815316+946640027+947833018+951679893+956937234+960899689+961429172
716+958905148+955650083+953499501+952395018+951585658+951151080+951030219
706+949875011+946990189+944349395+944338462+946216456+946775615+944569771
696+940961941+936560073+930366412+923027138+917098554+913471981+910514717
686+906740582+902553809+899677764+899268621+900546401+901289194+899736967
676+896774869+895594373+897109784+896743110+889219087+878165699+874929377
666+880431564+886563343+889582265+889671069+887492002+884108489+881145871
656+879365904+878006311+876097600+874168733+874018048+876584168+880746471
646+884008156+883887518+879636112+873583023+869755709+869967903+871797850
636+871055726+866614439+861769215+859230762+857677346+854865041+850915006
626+847047083+844149915+843097792+843045655+840429405+833076818+824125891
616+819248537+820739701+825594073+829039689+830188426+832729780+838055026
606+841223815+837858897+831972781+831253416+836789221
##END=
