##TITLE=<SNM>
##JCAMP-DX=4.24
##DATA TYPE=INFRARED SPECTRUM
##DATE=2/5/2025
##SAMPLING PROCEDURE=Instrument type and / or accessory
##ORIGIN=Admin
##XUNITS=1/CM
##YUNITS=ABSORBANCE
##RESOLUTION=4
##FIRSTX=4497.3318
##LASTX=599.83466
##DELTAX=-1.4281778
##MAXY=1.8024905
##MINY=0.2642678
##XFACTOR=1
##YFACTOR=1.6787001e-09
##NPOINTS=2730
##FIRSTY=0.285294
##XYDATA=(X++(Y..Y))
4497+169949356+170006362+170393684+170367018+169813793+169197099+168949726
4487+169210823+169727814+170027897+169909092+169502224+168920078+168338004
4477+168123882+168354088+168620386+168724598+168944276+169244429+168907811
4467+167418068+165335544+163871384+163793962+164922125+166349732+167117701
4457+167061228+166861007+166907254+166696062+165976258+165603174+166326263
4447+167591232+168447133+168912160+169524859+170047940+169602139+168072948
4437+166573245+166082546+166174615+165744508+164707347+164154796+164852764
4427+166245326+167146443+167139058+166865268+166850249+166701512+165974642
4417+165137880+164863007+164949785+164782763+164392671+164307207+164629978
4407+164908047+164878754+164845218+165126003+165537523+165666784+165267887
4397+164328174+163243950+162714407+162990008+163617939+164193161+164702447
4387+165053144+165101948+165014478+164903786+164559125+163960753+163337402
4377+162625889+161801767+161451283+161978589+162755505+162955016+162654561
4367+162458885+162512393+162384978+161802460+161097444+160768583+160842650
4357+160982811+161056434+161149479+161152070+160866634+160423851+160154020
4347+160156470+160302437+160548532+160903188+161093130+160690203+159731014
4337+158840904+158603419+159078531+159861305+160324504+160053040+159363168
4327+159008299+159141253+159096674+158404334+157555713+157424073+158126443
4317+158909680+159213402+159260359+159396899+159574041+159751981+160069497
4307+160393777+160368071+159974873+159504306+159106172+158819458+158775749
4297+158967875+159101929+159035124+159094899+159659860+160644400+161589563
4287+162047117+161834735+161129666+160303165+159598451+159110788+158966082
4277+159202306+159560672+159742891+159853813+160241277+160917835+161481446
4267+161682181+161712344+161697254+161376595+160740302+160396369+160698369
4257+161150686+161276947+161288397+161322288+160991777+160259102+159825337
4247+160191604+161061405+161966038+162801681+163490701+163765237+163645651
4237+163553796+163606967+163368719+162574795+161592759+160939778+160833383
4227+161370275+162576127+163980726+164661295+164185402+163191258+162624895
4217+162697683+163035882+163512360+164279690+165104806+165351505+164788887
4207+163978435+163626407+163806016+164053638+164129675+164328866+164910586
4197+165558685+165707137+165224196+164498196+163977796+163794548+163713291
4187+163377898+162725130+162117313+161828628+161567993+161003902+160598667
4177+161164853+162600466+163894392+164467590+164693535+165020869+165402261
4167+165714274+166037063+166310320+166179053+165439791+164470910+164002083
4157+164354307+165035941+165343640+165248927+165307388+165762758+166231105
4147+166303592+166016007+165610648+165174310+164657833+164075812+163595268
4137+163485624+163910725+164698683+165397983+165671524+165633088+165694585
4127+166053041+166437309+166443469+166009510+165422624+164949199+164649649
4117+164527720+164631949+164923013+165183275+165119186+164548669+163646646
4107+163024271+163201342+163925549+164441226+164423846+164155755+163955072
4097+163937568+164061396+164049821+163656392+163133258+162957058+163175174
4087+163461870+163580036+163481417+163287569+163313098+163780239+164526211
4077+165196572+165534327+165424737+165007873+164696713+164700636+164715212
4067+164455624+164182633+164267493+164577482+164770690+164888501+165139922
4057+165341865+165070382+164286880+163521503+163402788+164043927+164892762
4047+165262188+164952643+164226128+163444170+163019567+163306050+164098554
4037+164627386+164446961+163920826+163603044+163672991+164087884+164719845
4027+165219776+165227729+164889317+164814949+165351061+166188018+166825021
4017+167149035+167279610+167063465+166260931+165215249+164732237+165107025
4007+165723967+165899795+165784363+166068042+167001843+168034761+168463040
3997+168240592+167908855+167799336+167734909+167598121+167616815+167895487
3987+168228360+168510210+168812813+169041208+168969290+168635050+168470585
3977+168968953+170106508+171100528+171080733+170093033+169055074+168715828
3967+169085307+169842304+170782337+171710777+172352929+172644845+172786640
3957+172832106+172618446+172246072+172233591+173027693+174441630+175619094
3947+175898654+175720855+175900252+176171041+175597133+174299142+173340327
3937+173266296+174052391+175751710+178037863+179636984+179515090+178412811
3927+178015529+178918103+180102455+180547653+180743364+181718300+183195616
3917+183606336+181994735+179218771+176836805+175604092+175548809+177097102
3907+181244324+188023318+195220649+199807458+200896849+199306232+195345294
3897+189886997+185613177+184955492+187548153+189907130+189157482+187336304
3887+188016590+190926892+192991253+193658863+194521794+194474215+191676379
3878+188477676+188428305+191702761+196280853+200727181+203534603+202948783
3868+200435318+199310563+199778858+199079505+195974415+192593723+191649821
3858+194838014+203061250+214620012+221056636+215171924+203784746+194980945
3848+191042217+191652377+195472514+200616632+205683772+210215529+213399106
3838+213639005+211013429+207719054+204992196+202410701+199892372+198369430
3828+198229499+199117178+201778722+207549919+214580583+217660783+215985288
3818+213710995+211520248+207131156+201526307+198152131+198803052+203035223
3808+208311035+211776622+214247124+218225264+222230034+222428746+219876970
3798+218171596+217217112+215439945+213632135+213684649+216044371+219919347
3788+224487231+229176903+233654139+238518378+245248586+254243003+263533438
3778+271157964+278206985+287337037+300075945+316140331+332887365+345922591
3768+353010633+355510179+355619184+355546964+357068166+359789840+361533916
3758+361628931+362565875+367693784+378599691+393112127+405039979+411340098
3748+417128959+427184238+439638260+448067806+451781494+456675771+466667920
3738+481990364+499615684+514293794+523171111+528464019+533801097+541275591
3728+551461497+562783858+571875599+577079705+579158323+578540085+575847384
3718+573160115+572477753+574624720+578936230+581992126+579462861+571616580
3708+562440866+555266331+551951273+552584317+555112197+557275285+558538213
3698+559229842+560189475+562827176+567955618+574920275+581432865+583774017
3688+580245388+574340171+570279266+569272481+570889479+575097417+582764498
3678+593260482+599939916+595419415+585761347+580974903+580937159+579015303
3668+572920731+566363013+562084204+559989609+558993512+558921007+560800753
3658+564819016+568652858+570404213+571791733+574823840+578356481+578873597
3648+574334242+566724220+559235736+553943752+551565993+551168924+550895880
3638+550069681+549890373+551657777+555707285+562413100+571575357+578727523
3628+577607864+571109441+567001383+568286290+573465435+578908890+581237153
3618+580771841+581315693+584748561+588925928+591580957+593358444+594931486
3608+594655175+592083302+589991902+590751243+593776568+597006020+599738311
3598+602929415+606872688+610116414+611548317+612645892+615781535+620396164
3588+622343550+619157345+613998687+610769732+609868011+610053851+611022325
3578+612884779+614543213+614299355+612237994+611018135+613599452+619960713
3568+625856130+626600486+622537415+616805825+610918220+605726115+602739598
3558+602641742+604326451+606109016+607053984+607359339+607947255+609288759
3548+610615847+610754819+609662215+608246006+606609302+604261475+601633715
3538+599594794+598134201+596952121+596525760+597176948+598024770+598021078
3528+597053314+595285485+592760232+590171316+588493496+587787734+587476591
3518+587226129+586823096+586014721+584952830+584140301+583807819+583835620
3508+584013294+583849397+582469759+579540620+576129305+573776755+573061975
3498+573600963+574667896+575321747+574725913+573071988+571584446+571023658
3488+570715427+569501959+567265515+565015260+563737597+563513658+563584919
3478+563005703+561334806+559021171+557131093+556336992+556284655+556349383
3468+556514737+556706933+556084008+554265902+552311095+551090881+549999520
3458+548518227+547552275+547822514+548213937+547082631+544509587+542208202
3448+541471053+541844013+541997969+541312766+540123691+539040035+538480240
3438+538333528+537872796+536383692+534017011+531925789+531321470+532229405
3428+533495599+534144195+534118702+533770916+533523862+533494996+532695355
3418+529956034+526072341+523197705+522193832+522129636+521822293+520723972
3408+519013202+517430716+516382672+515350607+513812823+512331176+512088454
3398+513454706+515281156+515858739+514593077+512295953+510040691+508361663
3388+507328923+507013946+507824096+509974579+512404248+513121797+511504444
3378+509305531+508460158+508885880+509340753+509588340+510306351+511305395
3368+511509308+510711301+509908892+509755397+509759054+509060679+507339291
3358+505057258+503210284+502731196+503711706+505116908+505608886+504832964
3348+503665335+503176234+503601246+504156815+503639734+501557531+498863658
3338+497190098+497352789+498861492+500582808+501560052+501450444+500589661
3328+499578225+498825489+498554539+498757814+498982711+498660774+497794205
3318+496902177+496257699+495599375+494740190+494113040+494221903+494737705
3308+494727053+493743276+492252681+490982048+490261019+490042050+490202468
3298+490586151+490966496+491284030+491717812+492270256+492648187+492908378
3288+493573910+494623516+495193785+494815464+494129551+493950314+494324232
3278+494859705+495430293+496075196+496438463+495950817+494780525+493715333
3268+492795538+491362890+489796737+489528166+490868924+492371166+492613994
3258+491406563+489363061+487442838+486474506+486258095+485798926+484813303
3248+484000312+483796292+483982488+484503403+485530355+486638262+486867456
3238+485738742+483742393+481796215+480429324+479465537+478430312+477268080
3228+476458782+476353257+476646575+476673667+476077585+474975678+473682002
3218+472576971+472019626+472032835+472193537+472054067+471564611+470940266
3208+470339497+469744800+468904363+467409649+465190213+462923838+461552651
3198+461245023+461242289+460942828+460535924+460264051+459773601+458683589
3188+457250834+456005978+455123927+454471426+453902329+453214782+452154276
3178+450724716+449241648+447925567+446723213+445601316+444657342+443907198
3168+443304370+442841721+442317682+441400409+440268499+439515408+439073814
3158+438098666+436293199+434434864+433253352+432665756+432314740+432040594
3148+431676476+431071944+430370940+429755933+429095123+428287813+427629915
3138+427368268+427209483+426679834+425706354+424554703+423401099+422192034
3128+420938125+420012295+419854326+420276604+420455237+419872896+418878645
3118+418033557+417293532+416208207+414787843+413711430+413431746+413426846
3108+412866910+411820180+411107602+411110407+411360514+411218062+410455278
3098+409199912+407752209+406552020+405988640+406009553+406051380+405575700
3088+404606765+403629735+403163216+403482099+404319057+404804429+404269951
3078+403072390+402056480+401415021+400660581+399525760+398393140+397855040
3068+398021672+398308777+397993551+396953603+395699658+394716343+393986082
3058+393233559+392462856+391930863+391548069+390827430+389670631+388684653
3048+388420272+388747606+389157314+389205603+388602597+387328485+385730482
3038+384298792+383421854+383281071+383596084+383569028+382612592+381033940
3028+379539652+378407210+377543268+376889452+376353554+375693276+374811119
3018+373937839+373370162+373212975+373341295+373411207+373016056+372067750
3008+370983491+370312632+370149161+370020059+369386624+368160907+366723074
2998+365560026+364894280+364547879+364155001+363534455+362798123+362074928
2988+361220359+359984806+358545731+357599200+357596111+358089793+358258235
2978+357885169+357339613+356817668+356182849+355447511+354933626+354877526
2968+355076184+355051507+354510212+353495580+352188517+350848114+349827304
2958+349296803+349052661+348831385+348593669+348329785+347910880+347303792
2948+346684346+346214738+345871533+345557479+345237175+344864464+344316813
2938+343556123+342747216+342072345+341538577+341057465+340555049+339966992
2928+339317650+338744541+338270672+337727317+337068460+336503410+336128853
2918+335696562+334960337+334072001+333408777+333085029+332843479+332443747
2908+331949036+331529741+331173114+330751298+330245189+329749307+329339562
2898+329025579+328773767+328534454+328260380+327906203+327429707+326849923
2888+326287181+325822047+325298469+324464778+323420818+322669680+322486218
2878+322505072+322241650+321720664+321253009+320940552+320749456+320733692
2868+320860272+320857325+320456493+319671765+318783288+318119779+317855292
2858+317952970+318193633+318185431+317531864+316262083+314957080+314154457
2848+313766443+313361030+312834754+312445248+312319982+312310395+312238565
2838+311945424+311221200+310096285+309100081+308785068+309024524+309155791
2828+308808183+308245086+307865416+307701128+307542450+307326748+307135226
2818+306900991+306439513+305793580+305260558+304999976+304815520+304391609
2808+303632517+302745531+302041865+301667094+301506002+301319451+300953167
2798+300442904+299940488+299520589+299085528+298497542+297759559+297018930
2788+296435932+296061446+295790248+295429786+294859234+294147419+293504841
2778+293076420+292752602+292254358+291467890+290603398+289923876+289425206
2768+288932430+288430546+288089525+287943220+287762972+287346411+286741807
2758+286066226+285302305+284438807+283647617+283141153+282926499+282782041
2748+282440043+281798744+281001110+280291816+279777292+279352866+278855368
2738+278245332+277627893+277123009+276753724+276459909+276174615+275863294
2728+275521438+275165895+274831761+274551136+274293111+273928904+273336657
2718+272557184+271763083+271070761+270478531+269962570+269524207+269172569
2708+268939665+268857006+268860042+268789899+268540803+268146345+267679648
2698+267119392+266405553+265642094+265107314+264953553+265014766+265032573
2688+264933794+264764890+264536140+264269664+264032179+263800677+263415379
2678+262765310+261958408+261237095+260748704+260453682+260230950+260001649
2668+259771497+259615215+259574010+259541947+259351278+258979011+258534541
2658+258073579+257603030+257224638+257066386+257059622+256945078+256554454
2648+255990168+255480047+255142186+254935858+254763261+254571544+254388136
2638+254246856+254078928+253773733+253361716+253025577+252908619+252986697
2628+253087145+252994225+252627319+252147272+251801510+251665485+251618812
2618+251538461+251400980+251190640+250845251+250381378+249975539+249787142
2608+249760139+249729959+249653585+249595887+249563309+249482142+249311835
2598+249098726+248920714+248801040+248685857+248532824+248405995+248407895
2588+248510171+248535132+248348777+248016117+247711738+247522489+247431450
2578+247476330+247746321+248158196+248423660+248352771+248031473+247636198
2568+247269754+247025665+247014374+247262706+247698494+248211988+248658428
2558+248881621+248825326+248584486+248313075+248097071+247901360+247621889
2548+247213867+246766646+246410907+246166835+245935120+245628807+245265949
2538+244932082+244688312+244531090+244416670+244301771+244172351+244060079
2528+244019123+244046977+244050990+243953418+243793550+243659016+243553935
2518+243399251+243153245+242900422+242801891+242932644+243187633+243389469
2508+243458263+243439125+243401435+243358881+243280660+243147653+242964848
2498+242740820+242508590+242334254+242239913+242162669+242031437+241828340
2488+241571167+241289726+241001449+240697709+240395762+240166089+240055256
2478+240032851+240027437+239954702+239757481+239480496+239230850+239024096
2468+238768858+238429008+238096561+237866924+237721844+237575434+237367881
2458+237081646+236744388+236436671+236207105+236001292+235774423+235601969
2448+235579653+235698138+235858680+235922521+235791111+235534311+235344121
2438+235298513+235289654+235206604+235043399+234801600+234433771+233979964
2428+233660566+233660406+233860627+233978295+233942078+233927343+234061664
2418+234285000+234462691+234512542+234457916+234393454+234358888+234299717
2408+234206548+234197991+234365759+234612262+234753951+234756738+234761336
2398+234894166+235173566+235616473+236350391+237632794+239834015+243360638
2388+248545837+255684493+265193009+277563804+293025025+311310392+331847275
2378+354109912+377706384+402157567+426710298+450402602+472206887+491175345
2368+506744133+518806945+527135120+530985650+529827750+524300641+515757688
2358+504848409+491061902+473411940+451895044+429689359+412494909+404548179
2348+406948592+418346297+434810273+450377428+460784185+465708500+466842824
2338+466002210+464457005+462915281+461831660+461292175+460733517+459308999
2328+456526573+452326731+446732587+439662156+431148673+421694696+412147620
2318+403079456+394453808+385958718+377438985+368871071+360170398+351280689
2308+342330229+333566319+325217337+317435393+310269450+303661029+297492248
2298+291647908+286072316+280813121+275973275+271562347+267430642+263428676
2288+259624837+256283132+253608149+251564931+249936926+248498702+247153275
2278+245940003+244898102+243967549+243085889+242297682+241666680+241147895
2268+240631578+240084957+239609508+239338825+239245123+239094541+238690016
2258+238116871+237624237+237304892+237027623+236648148+236147951+235592542
2248+235079136+234704455+234495020+234379376+234263980+234106828+233913656
2238+233708482+233533240+233467535+233587209+233841578+234034289+234017139
2228+233844880+233679295+233629444+233723004+233927397+234164189+234371831
2218+234575460+234856422+235247810+235699451+236162846+236658356+237217191
2208+237821440+238441737+239063206+239651281+240152206+240553890+240943378
2198+241474022+242201122+242981767+243632972+244119126+244510318+244897516
2188+245397624+246069708+246789760+247326742+247562984+247610190+247704601
2178+247962715+248265674+248414002+248314797+247999358+247564866+247112549
2168+246703036+246378773+246166303+246011708+245817736+245559125+245279086
2158+245039364+244927555+244992886+245153926+245278713+245369876+245620445
2148+246225315+247174526+248449828+250395314+253475461+257661705+262516428
2138+267812673+273627135+279975187+286745376+293874534+301383256+309280418
2128+317459253+325771770+334261606+343095499+352188340+361142706+369571933
2118+377314784+384334298+390402844+394999258+397767055+398877554+398694803
2108+397445012+395351695+392693506+389660192+386302065+382566859+378430183
2098+373967912+369120362+363592969+357229578+350254660+343102777+336171425
2088+329563608+323055457+316513042+310080059+303826631+297661951+291609419
2078+285799165+280360894+275491631+271330455+267775942+264649263+261905184
2068+259614736+257847527+256480601+255189694+253831946+252580113+251548012
2058+250670453+249927907+249327653+248844553+248535132+248440632+248480026
2048+248669648+249157826+249972201+251051473+252401019+254025385+255965651
2038+258400700+261443033+264969815+268752493+272547935+276157483+279571958
2028+282876932+286025838+288892769+291374278+293382308+294960445+296234344
2018+297032884+296912908+295743805+293904626+291821375+289607584+287168239
2008+284460129+281558525+278536644+275451686+272463554+269756579+267304700
1998+264960211+262869131+261484451+260895683+260410435+259250812+257486001
1988+255760193+254438733+253497262+252844814+252378011+251982114+251642690
1978+251391908+251184764+250948717+250685934+250542630+250804224+251593389
1968+252493637+252808988+252380301+251783864+251567949+251703779+251921522
1958+252183329+252564046+252964097+253225158+253370042+253574045+253989452
1948+254709895+255892561+257639371+259443879+260152161+259233539+257637099
1938+256610767+256407777+256568053+256775659+257080340+257590958+258224783
1928+258907661+259961971+261729729+263748217+265205507+266231767+267421729
1918+268306053+267916156+266676467+266079285+266856946+268432970+269709764
1908+270105856+269956906+269951634+270340482+270869049+271319803+271869726
1898+272837401+274092926+275027633+275501572+276231425+277467901+278112786
1888+277240589+275605553+274415999+273851429+273510425+273220054+272972290
1878+272744729+272578257+272605402+273245902+275282391+278941382+282573210
1868+283365341+280666728+276854279+274218672+273153337+272951945+273001938
1858+273103912+273235534+273374365+273537570+273926170+274842307+276501522
1848+279195075+283088231+286898515+287744313+284804612+281036545+279125359
1838+279065779+279463877+279754213+280992517+284302320+288707248+291421981
1828+291393220+290324530+289251899+287590801+285470375+284124184+284046017
1818+284549303+285002631+285717234+287396049+289906140+291944191+292344651
1808+291468228+290713166+291274327+293591601+297035387+299911727+300779327
1798+300184310+300315258+302937159+307602882+311034436+310053322+306157770
1788+303323931+303206476+304777564+306614880+308369891+309969918+311032377
1778+311933033+314204983+319111119+325851056+330931919+331295185+328159613
1768+324367881+321493707+320734402+322737568+326013001+327993478+328546668
1758+329280054+330306864+331317839+333811846+339271350+346128351+350429565
1748+350595238+348881697+347891849+348683252+351047163+353769867+355445700
1738+356787381+360551205+367391447+372479803+370805000+365300651+360365258
1728+357057514+355517281+355720626+357030068+359572967+365083742+374627444
1718+385191814+389883918+386290028+379466367+374124922+371984665+373444974
1708+378071390+383931478+388596774+392502268+398518797+406823751+412721475
1698+413278962+410317903+404750034+398240888+394578010+395320556+399164304
1688+405185342+414502442+426337836+433066624+429341822+421865553+417551557
1678+418116535+422349612+427232278+430637274+433997283+438657679+441727600
1668+440049993+436790502+436904762+440841502+445000938+446556617+447259857
1658+450845190+459950210+475444860+492636860+498743718+494346779+492939872
1648+497724967+502501079+501079970+496541502+494740190+497549885+504868861
1638+516125641+528382638+534925017+533379884+530575657+532120577+538255201
1628+546602265+555487039+565113080+575077178+583364201+589992577+598094860
1618+609303316+620047917+625267149+626661202+628893918+633041708+637463465
1608+640665506+642633414+644187602+645906610+647948372+650600134+654373970
1598+659401823+665226865+671255218+677129117+682680832+687718342+692124405
1588+696225327+700518125+704822357+708432224+711382524+714985575+720912592
1578+729534334+738017885+742075347+743424094+747938736+757683050+769621163
1568+779479523+787262817+795862403+807235680+822852828+844627571+869850415
1558+884197995+882719650+878133639+876209049+875590598+874765925+873947928
1548+874517949+877677098+882876659+888367018+893002524+893767901+884898750
1538+870065371+859293857+854568306+851492313+846277697+840854374+839026219
1528+840864245+843540507+845453096+847592997+850096982+851180922+850504596
1518+848963901+846109539+842210507+839625213+840136576+844092845+851751865
1508+861279874+864129691+854409593+842007836+835587280+835118666+837483962
1498+839098794+837365726+833256993+830976131+833316288+838835337+842432706
1488+840282792+834320339+828677018+825488754+824889619+826137243+828653229
1478+832452275+837484956+842787699+845976958+844081625+837675342+831906044
1468+830679155+833524640+836615617+836886531+836369060+839167109+846251422
1458+853387434+852906890+844524958+836009806+831187181+829381466+828667858
1448+827174173+824286222+821104207+818923118+818246366+819582970+823424552
1438+828231626+829652948+825747525+820906081+819146028+819721090+819689276
1428+818021397+816194804+815312043+815354580+816768872+820092274+823251565
1418+822024321+816140053+809876577+806121630+804800720+804578734+804556223
1408+804762515+805015960+804205490+802104291+800778126+802249938+806112683
1398+810337309+813216241+813491558+810528475+806125465+803512760+803869742
1388+805209186+804641225+802285516+801395654+804218628+809876790+816034173
1378+821576514+826967526+832156577+835559727+836276033+835866502+836259558
1368+837725051+839866585+842783581+845926539+847326273+845810362+842819655
1358+840558393+839872835+840287834+840888389+841006910+840633595+840359415
1348+840636081+841134946+841358353+841770369+843491224+846653710+849838353
1338+851631144+852145703+852385797+852913210+853764370+855041607+856953273
1328+859378291+861838177+864136863+866861910+870883368+876103524+880961371
1318+883927791+885475162+887505632+891007560+895308241+899275658+902319411
1308+904544599+906786759+909948110+913593910+916085822+916887770+917551172
1298+919404537+921672120+922884451+922865846+922377135+921760531+920676519
1288+918742484+916166493+913850337+912623945+912326756+911972047+910841878
1278+909205457+907862107+907259421+907247136+907477359+907781010+908192388
1268+908878656+910035171+911700565+913734799+915950543+918107274+919971504
1258+921646555+923574128+925821685+927775036+928974940+929685068+930260202
1248+930531116+930164618+929082595+927372464+925427137+924075266+923740582
1238+923709407+922998498+921423646+919246249+916606914+913753760+910925602
1228+908083312+905524648+904172066+904443193+905332629+905526281+905199906
1218+905486372+906362671+906662842+906276816+906595451+908400740+910866377
1208+912897771+914376898+916048895+918589877+921575116+923763235+924909667
1198+926359678+929287609+933490718+937889184+941189293+942665793+943126595
1188+944230703+946260890+947722405+947553963+946665379+946866132+948959094
1178+952251463+955390729+957265965+957682527+957744734+958980642+961608615
1168+964183470+965282039+965083274+965080646+966791346+970841138+976565769
1158+982016929+984925758+984828825+983685234+983516010+984569628+986361353
1148+988767979+991074477+991961996+991629087+991979749+993763450+995474220
1138+996011788+996529330+998426580+1001372264+1003849477+1004773496+1004456495
1128+1004141908+1004798493+1006375830+1008340401+1010717059+1013752859
1120+1016913286+1019181224+1020481398+1022104113+1025090630+1028521474
1111+1030465238+1030933639+1031609113+1032766907+1033391465+1033538178
1103+1033848930+1033672321+1032342108+1031529508+1033500541+1037511844
1094+1040565752+1041202666+1040102961+1038143787+1036721116+1038291494
1085+1043536717+1049462172+1052848846+1053741265+1053886273+1054444647
1077+1055632124+1056688014+1056066865+1053559969+1051834498+1053606127
1068+1058198884+1062437073+1064235261+1063763096+1062529674+1062248534
1060+1063208983+1063233766+1060586336+1057388201+1057259597+1061300938
1051+1067475151+1072385477+1073741823+1072208371+1070296137+1069276179
1043+1068923246+1069145019+1069599856+1068984104+1066151401+1061350079
1034+1056567718+1054673734+1056544852+1059194058+1059253354+1057982295
1025+1059242844+1063765511+1068921896+1072196157+1072380151+1069271564
1017+1064539977+1061384947+1061414985+1062854913+1063144574+1062208270
1008+1061257408+1060247747+1058713656+1057304335+1057239145+1058901414
1000+1060949638+1061017739+1058289283+1054944577+1053305956+1052891667
991+1051959623+1050075297+1047945479+1046301745+1045426511+1044951648
983+1044706796+1045238114+1046325463+1046029339+1043233066+1040122774
974+1039716154+1041878567+1043674837+1042767151+1038834245+1032720678
965+1026050866+1020874952+1018057161+1016649403+1015637185+1014664380
957+1012686246+1008126581+1001001790+993682353+989210744+988928113+991277858
947+992799663+990832891+985452886+978917999+973747482+971399299+971920960
937+973918623+975374528+975335187+974115967+971839366+968511917+965516736
927+964733322+966125174+967985924+969181284+969678445+969597135+968934372
917+967940121+967337364+967819612+969183982+970631224+971931541+973315581
907+974212119+973250392+970035426+966208828+963959850+963781395+964240067
897+963872789+962368665+960003795+957593832+956757797+958360415+960823354
887+961433994+959248928+955755309+952880637+951120158+949862804+948765371
877+948294911+949229227+951760907+954930921+956805589+956381287+955432271
867+956092052+957428585+957026865+954777391+952670297+951868562+951863378
857+951719364+950776171+948779787+946510855+945446940+945807118+946028323
847+945178867+944656425+946229928+949573924+952737120+954160502+953661424
837+952160567+950726391+949474364+947693858+945537837+944598053+945759894
827+947598630+948065042+947069087+946150962+946211607+947248110+949497727
817+952851522+955684083+956155821+954548658+952939507+952939720+954681026
807+957053282+958269093+957021326+953993835+951929633+953210705+957444634
797+961685380+963006219+960813200+956751477+953518972+953674135+957374260
787+961256107+961961833+960436405+960273360+963052448+966970156+968996650
777+967978468+965808670+965012545+965580506+965317616+963026315+959988101
767+958315109+958747933+960212005+961208741+961562314+962402964+964313210
757+966091514+965886500+963665786+961672384+962040160+964678145+967623191
747+969025126+968230422+965799154+963598182+963830536+966977968+970521296
737+971226454+969457382+968335308+968756059+969221761+969268417+969565463
727+969962070+969958662+969385659+967890696+965696257+964385785+964826065
717+965795746+966320318+966986560+967926629+967991392+966793973+965503386
707+965172040+965065450+963136456+959159807+956070819+956100005+957989231
697+959670319+960424972+959543703+956251405+952199766+951251105+954790315
687+959274990+960110882+956558535+950549711+942781615+933681672+926157718
677+923447299+925507950+928877013+929165680+924117944+915815618+911141552
667+915014309+921779065+926205651+929630388+932201196+930894772+925463567
657+920235245+917965319+915919084+910121736+901350796+894175160+891168901
647+890916380+891233310+891477807+891273503+890011321+888717183+889815254
637+893141071+894460845+890802191+884969337+880732994+877723469+874854194
627+873897225+876540466+881127683+884149138+883321981+877950710+868410843
617+857997446+852412498+855213174+863669385+870185241+871002244+869957574
607+871460206+874957305+877268774+875956243+870593778+864179116
##END=
