##TITLE=<SNM>
##JCAMP-DX=4.24
##DATA TYPE=INFRARED SPECTRUM
##DATE=3/5/2025
##SAMPLING PROCEDURE=Instrument type and / or accessory
##ORIGIN=Admin
##XUNITS=1/CM
##YUNITS=ABSORBANCE
##RESOLUTION=4
##FIRSTX=4497.3318
##LASTX=599.83466
##DELTAX=-1.4281778
##MAXY=1.7151301
##MINY=0.18092428
##XFACTOR=1
##YFACTOR=1.5973394e-09
##NPOINTS=2730
##FIRSTY=0.20156196
##XYDATA=(X++(Y..Y))
4497+126186057+125956020+126098824+126462738+126840366+127129062+127191770
4487+126936890+126673269+126979756+127909747+128672847+128494687+127532642
4477+126592529+126165982+126098386+126104925+126132706+126087536+125719023
4467+125075881+124713171+125111004+126042161+126795541+127011576+127038573
4457+127324191+127665493+127446808+126578928+125660803+125122450+124786019
4447+124458841+124398298+124759245+124982118+124322819+122882471+121598715
4437+121154182+121313415+121473664+121471378+121589051+122050973+122766907
4427+123392949+123476516+122780303+121586877+120423397+119470756+118595440
4417+117902735+117752607+118197159+118825253+119211454+119202312+118859117
4407+118447729+118316054+118487199+118586317+118345309+117851389+117263529
4397+116709626+116382449+116314899+116231239+115985436+115900237+116357205
4387+117237316+117936019+117867658+117020059+115982554+115257589+114724433
4377+114091786+113544273+113391860+113427226+113302855+113266025+113849976
4367+114998941+116019001+116313976+115879686+115231301+115043420+115652652
4357+116712667+117469405+117495013+117032746+116620173+116566971+116774704
4347+116860397+116518508+115915303+115535530+115533403+115556109+115299270
4337+114835072+114358616+114020151+113959150+114209767+114688956+115375831
4327+116234420+116921827+116912564+116064348+114956560+114513501+115063160
4317+115898427+116138344+115743617+115264082+115068337+115303627+116058163
4307+117080649+117785873+117890710+117735144+117780099+118030762+118130915
4297+117910011+117654441+117744612+118172755+118616467+118876963+118999925
4287+118966687+118634649+118163174+118098181+118673960+119373578+119620109
4277+119573232+119783231+120380755+121032955+121455650+121598156+121470949
4267+121105906+120660394+120332488+120138731+119940122+119693563+119529032
4257+119580881+119876220+120383573+121059206+121855685+122726541+123527591
4247+123944548+123778319+123329178+123121753+123162716+122966215+122455140
4237+122188656+122489013+123000274+123314102+123481824+123761360+124236892
4227+124765328+125081320+124949785+124405975+123913175+124048004+124801206
4217+125438816+125398917+124991410+124847421+125108896+125508306+125805529
4207+125933873+126065399+126468233+127038648+127279805+126947385+126335998
4197+125869580+125769725+126030491+126385049+126455070+126197373+126010761
4187+126205545+126582697+126713653+126459147+126028943+125701345+125754902
4177+126518272+128066834+129845861+131024631+131363283+131320651+131240013
4167+131010489+130623645+130405119+130510329+130728920+130852507+130795769
4157+130491027+130070087+129919465+130253182+130849652+131315949+131410794
4147+131173191+130901576+130851639+130889822+130659551+130107952+129634584
4137+129715735+130482594+131551117+132198159+131971909+131270845+130998474
4127+131527851+132346542+132751399+132506035+131848704+131254697+131139823
4117+131500593+131955555+132262182+132536139+132852532+132959253+132621086
4107+132076092+131879815+132315038+133146285+133944275+134491144+134871719
4097+135230866+135455400+135230680+134500258+133648442+133165931+133352982
4087+134224687+135417310+136353039+136665710+136306190+135439391+134599702
4077+134568199+135560255+136806471+137343751+136990033+136271300+135668263
4067+135268181+135047323+135153195+135718601+136531684+137151178+137360449
4057+137305027+137183651+137052722+136997198+137244903+137880414+138551487
4047+138778660+138551701+138288724+138207564+138128690+137952087+137906274
4037+138171443+138600742+139013464+139491180+140129303+140656526+140635947
4027+140098107+139699910+140047648+140987146+141788130+141978800+141782859
4017+141692296+141754192+141515134+140725456+139796257+139332647+139428519
4007+139654507+139694705+139851008+140690454+142078804+142971723+142626438
3997+141588504+140895323+140771978+140706612+140446135+140321288+140705464
3987+141526291+142349598+142792191+142788926+142558236+142437447+142692989
3977+143301568+143909839+144131845+143888271+143409175+142986276+142800494
3967+142961713+143536438+144386510+145117314+145404378+145331408+145259288
3957+145404742+145635423+145691470+145599348+145671861+145944848+145923037
3947+145285362+144540229+144407238+144876110+145365458+145593201+145783871
3937+146136572+146631004+147213603+147746861+147905431+147549978+147113365
3927+147199544+147855037+148466116+148547295+148444660+148774413+149428171
3917+149668675+149181230+148450090+147967477+147658388+147250395+146999471
3907+147703110+149736289+152184990+153518160+153439500+152942045+152596518
3897+152243229+151989124+152252931+152891530+153022403+152259657+151579116
3887+151916779+152855820+153518104+154121515+155130866+155720946+154961633
3878+153646990+153170021+153869200+155321545+156979178+157937986+157452910
3868+156374928+156179164+156911675+157413244+157049871+156365104+156233252
3858+157338913+160093074+163881530+165916688+164078329+160664459+158358619
3848+157913171+158994204+160747223+162323127+163550360+164770018+165841312
3838+166057067+165388961+164626505+164118461+163598310+162998005+162659633
3828+162775272+163299286+164488831+166647557+168924292+169646336+169075249
3818+168965413+169330222+168872797+167713795+167219017+168160249+170236099
3808+172222766+173051046+173482910+174934705+176917043+177629796+177060967
3798+176583951+176470327+176323810+176328101+176846779+177772544+178868204
3788+180215069+181957043+183934512+186063964+188753272+192220726+195757046
3778+198526133+200765627+203414951+207259828+212552227+218664957+224448719
3768+229475118+234118759+238737902+243842886+250178256+257821031+265798986
3758+273240297+280630915+289302631+300212031+312973987+325316916+335214222
3748+343643148+352615417+362299207+370732237+377602666+385473696+396096405
3738+408961221+422236426+434686299+446331363+456964296+465492144+471164017
3728+474479824+476600545+478489278+480691943+483191037+485730581+488943660
3718+493939311+500525848+507302579+513249053+518454788+523973856+530915818
3708+539182834+547838150+556238343+563949254+569903340+572877379+573262283
3698+573604162+577024153+584441768+593292465+599983260+603112902+603707591
3688+603640648+604259852+605730770+607535396+609282221+610801014+612297642
3678+614188652+615438256+614159733+611541567+610449806+611362977+612499666
3668+612772326+612545451+612293762+612641686+614721771+619318787+625551951
3658+630615404+632066060+631678955+633946286+640513942+648249108+651577154
3648+650097243+649602670+652695110+656850503+658852226+658434971+658207573
3638+660269075+663883849+666811879+668513740+670876523+674758994+677159913
3628+675442455+672574577+672170157+674622048+678595568+682725886+686523056
3618+690530234+694881904+697904191+697699631+695173184+693271988+693511475
3608+695790075+699962783+705462858+710471345+712613970+710840614+706915902
3598+704166088+704477668+707107477+709946324+711885731+713963353+717515289
3588+721603142+723442172+722152418+719959866+719410739+721045881+723365005
3578+724529605+723751588+721468137+719069905+718271589+719785382+721967933
3568+721610978+717785225+713772898+713291460+716565474+720367644+721524035
3558+720589146+720658626+722765802+724523112+723548222+720631909+718289948
3548+717455063+717091466+716528309+716691076+718334651+720358689+721431792
3538+722559450+725826299+730486340+732793748+730543581+725777417+722345262
3528+722025921+723207984+723230895+721906587+721472838+722995512+724770883
3518+724935517+724022047+723887713+725208289+727036125+728446630+729979081
3508+732393209+734453815+733937824+730765531+727390766+725993620+726823579
3498+729027325+730998451+730827324+728374538+725814583+725373221+727331734
3488+729641977+729647724+727324047+725433970+725913318+727985567+729905719
3478+730714036+730172521+728622682+726868133+725126271+723101188+721247158
3468+720716987+721987859+723966448+724843946+724211980+723391275+723271195
3458+723538967+724108244+725120524+725718534+724984997+723726960+723476651
3448+724206084+724403182+723452546+723059545+724747076+726577300+725882048
3438+723643748+722681470+723796963+725345459+725421880+723792187+721739342
3428+720446379+720150546+720829902+722347277+723927939+725004326+726222136
3418+728574994+731843634+734582552+735540427+734699646+733038683+731739227
3408+731588549+732636801+734108727+734791516+734143728+732637771+730840907
3398+729275918+728755598+729225244+728650668+725137988+720265550+718122627
3388+721068344+727587267+733358621+734408963+730697244+725832942+722874313
3378+721962709+722051817+722864388+724384748+726569016+729713995+733204735
3368+734817188+733209287+729921840+727635702+727467560+728401404+728733881
3358+728157812+728177291+729695338+731363764+731737809+731501158+731462649
3348+730513729+728081317+726445802+727428380+729113971+729424282+730041023
3338+733003980+736424866+737033622+734762037+731974610+730386485+730497982
3328+731915204+733299365+733574376+733416460+733967900+734768156+734446427
3318+732613293+729980349+727565699+726477147+727269866+729469732+732257308
3308+734864653+736216051+735557368+733454819+731058304+729039042+727998403
3298+728757613+730983599+732375074+730824414+727202624+724514828+724494081
3288+726283482+728394464+730464772+732367088+733152643+732391492+731510188
3278+732395224+735148993+737849998+738513458+736996680+734901520+733875433
3268+734160221+734847413+735313104+735654163+735861932+735796482+735823050
3258+736441060+737376397+737828654+737254825+735341986+732308280+729343458
3248+727596521+727018363+726663647+725818687+725088956+726188329+729760340
3238+733614005+734803233+733841029+734154997+737262213+740913780+741767322
3228+738864368+733864090+728779629+725413148+725262545+728206770+731865725
3218+733706397+733815058+733786773+733646170+731913339+728088332+723479114
3208+719830085+718213750+718982737+721751880+725255455+728032583+729480628
3198+729611827+728607458+727384647+727160160+727887727+728168559+727072246
3188+724903053+722333844+719901058+718048594+717225576+717872542+719610001
3178+720623326+719487907+717171245+715407591+714295979+713238771+712772857
3168+713682297+715385949+716551518+716721600+716279418+715168701+712767633
3158+709346225+706708058+706441480+708048112+709535337+709547875+708270360
3148+706684922+705692419+705557787+705662791+705238520+704640585+705078066
3138+706765970+708281629+708047142+705608759+701392244+696463386+692804655
3128+692162614+693956120+695672757+695940604+695572156+695230127+694421736
3118+693243554+692913689+693907237+694957504+694537562+692797416+691394299
3108+691468332+692286126+692098582+690428961+688936662+689209509+690210818
3098+689370784+686289912+683123738+681130149+679687852+678701618+678867744
3088+679473962+678784606+676816018+675429768+675665151+676793555+677891958
3078+678905805+679883606+680190260+679048572+676445555+673267142+670735621
3068+669709982+670129328+670998169+671281091+670777339+669836704+668625983
3058+667110772+665526752+664326256+663741530+663932807+665026433+666414027
3048+666963453+666714039+667109727+668622475+669602441+668516128+665975203
3038+663615033+662076612+660882981+659656811+658689235+658186752+657611728
3028+656433919+655085879+654382417+654225098+653502158+651268708+647875660
3018+644912405+643872362+644746204+646038122+646217383+644931510+642890083
3008+641086353+640055341+639514498+638822753+637825101+636893048+636356981
2998+636300785+636494002+636273470+635093124+633310439+631754406+630821159
2988+630463756+630396365+630178073+629666186+629178629+628712491+627741332
2978+626343737+625619379+626508446+628696520+630686825+630799814+628674952
2968+625884651+624378321+624408024+624519521+623333130+620680111+617255568
2958+614031930+611944233+611365963+611842363+612638365+613160028+612716764
2948+610854300+608285464+606426620+605803796+605869769+606091942+606133212
2938+605529867+604231941+602821846+601595079+600181664+598466407+597072134
2928+596595062+596858133+597020900+596375426+595108061+594025069+593384969
2918+592480342+590636797+588213937+586369944+585910671+586349533+586288560
2908+584932423+582890959+581329888+580785089+580929088+581095475+580874981
2898+580279136+579415780+578312526+577131582+576108481+575226355+574312587
2888+573337696+572381538+571504338+570765726+570158052+569591014+569091217
2878+568716762+568130656+566680112+564221280+561563224+559711395+558926437
2868+558876473+559297833+559868341+559881999+558848001+557018412+554851309
2858+552640136+550876557+550090779+550135072+550275413+550045180+549536465
2848+548850653+547681054+545756609+543565513+542112804+541824024+542090826
2838+541974925+540997796+539355155+537744641+536786580+536386265+535880573
2828+534868405+533675222+532948476+532827127+532624656+531608496+529915927
2818+528203842+526732140+525432012+524503579+524187857+524142184+523679366
2808+522594285+521296098+520143737+519083881+517940177+516696918+515434292
2798+514246109+513256703+512520591+511903140+511179491+510285388+509428114
2788+508881077+508643343+508367623+507619607+506153092+504076478+501940309
2778+500467189+499859739+499470805+498461436+496709536+494800615+493309136
2768+492416935+491988709+491611604+490774779+489429761+488138216+487332325
2758+486782377+486079252+485226904+484403213+483455451+482061663+480280545
2748+478566595+477232735+476220604+475401914+474695616+473900248+472861810
2738+471778035+470902999+470085018+469059864+468028367+467462336+467388714
2728+467201654+466268892+464627407+462942712+461705012+460625341+459066211
2718+456962319+454948841+453574755+452801030+452319443+451922897+451463289
2708+450809605+449900315+448704893+447329613+446160461+445514688+445189712
2698+444736783+444019067+443170600+442274631+441333174+440370449+439443247
2688+438562838+437623919+436571413+435634061+435038291+434521777+433629390
2678+432428073+431388329+430689830+430106262+429410188+428537056+427479662
2668+426277523+425122887+424343079+424107808+424143295+423964929+423449199
2658+422880221+422359640+421564272+420271943+418792517+417657620+417074163
2648+416778330+416302863+415407230+414326812+413506070+413053738+412625624
2638+411862384+410775175+409659421+408744719+408034578+407482392+407134467
2628+406935466+406591534+405880199+404914302+403904559+402921385+402040304
2618+401442108+401204113+401133775+400933841+400503301+400002460+399602929
2608+399259519+398784089+398030103+396974165+395783072+394795494+394256629
2598+394085913+393993708+393727839+393184309+392439801+391681673+390976980
2588+390180530+389219894+388369337+388022046+388200561+388478669+388432548
2578+388021449+387501055+387119024+386932673+386823191+386652961+386401159
2568+386147903+385996479+385967448+385870279+385436792+384735830+384221070
2558+384183793+384407645+384465857+384096924+383306817+382397899+381802912
2548+381635555+381563089+381305728+381010566+380940974+381042844+381023589
2538+380759101+380481739+380527860+380934631+381373604+381522975+381384201
2528+381162886+381002394+380921981+380870747+380775258+380618797+380449051
2518+380234677+379825966+379172245+378460351+377925665+377632182+377496468
2508+377382732+377150409+376789499+376508592+376487173+376592737+376547661
2498+376291120+376005064+375887671+375971145+376053275+375869200+375435600
2488+375030024+374750050+374405745+373930278+373568435+373562651+373836692
2478+374046402+373939271+373664334+373557054+373600861+373431489+372939379
2468+372476860+372355997+372469062+372484137+372198752+371661454+371077923
2458+370634584+370372745+370198521+370010081+369815147+369672977+369534390
2448+369302179+369059632+369005114+369137321+369255722+369262774+369210944
2438+369080901+368775366+368336207+367954960+367723532+367517516+367172167
2428+366664161+366093764+365615872+365395900+365482919+365715130+365866442
2418+365870957+365833866+365883905+366050031+366213135+366191903+365955177
2408+365713973+365728750+366035814+366401837+366537775+366341051+365963647
2398+365686322+365678300+365844053+365946744+365857449+365591244+365166936
2388+364555530+363664039+362271519+360099565+356963168+352739116+347307215
2378+340735417+333454449+326052767+318911282+312155241+305898419+300298919
2368+295333996+290869747+287105825+284588539+283664696+284313472+286546380
2358+290593131+296684163+305001909+315749101+328351144+340401486+348527675
2348+350558840+346937088+340762359+335664651+332794348+330909532+328629588
2338+325433227+321496350+317316963+313450574+310509372+309034237+309018378
2328+309737083+310307610+310457915+310777965+312127367+314716111+317916764
2318+320945320+323474415+325654765+327806682+330131478+332633557+335202916
2308+337643836+339713510+341302418+342538663+343652775+344788642+345883202
2298+346704206+347166687+347569912+348261769+349160724+349896612+350308905
2288+350546302+350786238+351046024+351208941+351160021+350919900+350632127
2278+350423238+350326890+350299240+350244611+350097851+349901164+349714403
2268+349507865+349270392+349109453+349090348+349117886+349101729+349062511
2258+349010568+348939185+348945528+349113856+349312521+349342000+349251175
2248+349312446+349679663+350199385+350603282+350817694+350979044+351163977
2238+351277004+351255846+351214427+351280064+351405367+351459884+351450294
2228+351531044+351789114+352154465+352578064+353113534+353689863+354021593
2218+353966516+353792442+353869124+354250110+354727443+355140781+355467996
2208+355721215+355906073+356075856+356360271+356876374+357561775+358155941
2198+358461961+358588533+358802124+359200386+359705482+360310618+361090874
2188+361961245+362664072+363086254+363419700+363903377+364529447+365108165
2178+365550645+365972006+366507550+367123806+367704203+368278928+369021869
2168+370009894+371145052+372347825+373661162+375129804+376744012+378567221
2158+380787535+383562685+386855655+390443227+394032814+397369703+400345944
2148+403063779+405703998+408294029+410720434+412987467+415296479+417808745
2138+420457286+423080602+425693022+428527839+431775807+435353192+438992855
2128+442488333+445779438+448876280+451760913+454312621+456313822+457546559
2118+457855490+457181432+455664430+453650729+451435676+449045690+446379761
2108+443438260+440305558+437084158+433971121+431196940+428757251+426365214
2098+423733390+420746552+417377496+413656487+409738304+405850497+402169227
2088+398779201+395693329+392884035+390320461+387986485+385884944+384027742
2078+382397451+380962878+379759881+378848128+378157614+377510834+376805097
2068+376062865+375354440+374770088+374380819+374144503+373924046+373643886
2058+373360628+373142111+372936245+372638322+372262262+371957175+371849783
2048+371928443+372064941+372155691+372280882+372647166+373346859+374328727
2038+375591166+377186605+379089369+381265316+383741461+386405264+388875812
2028+390735105+391803320+392129005+391807201+390908806+389579311+388062272
2018+386500007+384809303+382882994+380821044+378839209+377035628+375357873
2008+373777025+372382827+371236847+370240389+369274752+368355872+367509755
1998+366653302+365751698+364942262+364377053+364037860+363741355+363291673
1988+362671797+362089870+361755901+361631642+361490890+361171624+360678917
1978+360135574+359710818+359491816+359372931+359183259+358925413+358721113
1968+358546405+358248781+357842122+357542670+357473674+357530766+357552558
1958+357472256+357290756+357041119+356810326+356681926+356610803+356446020
1948+356147501+355899730+355900140+356069699+356088804+355749649+355166304
1938+354597438+354209064+354035363+354050923+354218504+354469037+354680650
1928+354778938+354861441+355059061+355277391+355327206+355291832+355399523
1918+355588150+355602329+355447248+355332915+355310713+355275712+355172088
1908+355030366+354901219+354826589+354816962+354839201+354854202+354882337
1898+354997603+355179476+355245561+355102085+354939317+354964356+355114101
1888+355198208+355138990+354964617+354762295+354644790+354624043+354613670
1878+354582250+354554899+354552996+354706733+355255562+356200078+357006752
1868+356974624+356104663+355148580+354700688+354726398+354878979+354970923
1858+355067084+355266607+355555574+355861034+356134553+356345942+356553711
1848+357033470+358019704+359141503+359540027+359023178+358360987+358135567
1838+358256132+358416026+358590362+359063142+359975269+360952958+361445627
1828+361473427+361476151+361562796+361583543+361626530+361890048+362292415
1818+362592428+362795645+363207304+364039054+365097269+365937377+366323625
1808+366458966+366723081+367345457+368341505+369552450+370665257+371412078
1798+371925233+372707056+374135398+376040252+377662296+378336129+378397736
1788+378741556+379817048+381475772+383390141+385337683+387103576+388518820
1778+389779282+391433603+393910756+397004203+399683268+400992687+401214860
1768+401213479+401553568+402645777+404670710+407160065+409314892+410999886
1758+412635885+414343940+416121811+418315856+421161494+424148705+426385102
1748+427667170+428530638+429483699+430786700+432505426+434420393+436265617
1738+438371897+441453030+445374458+448510855+449711874+450208573+451231749
1728+452757110+454540466+456582415+458876688+461574969+465200826+470084831
1718+475468334+479528164+481377792+482043938+482860986+484622289+487647711
1708+491707616+495940400+499482485+502650897+506630164+511766455+516809385
1698+520707342+523773885+526185364+528228208+530946976+534874860+539529900
1688+544638653+550983502+558843262+565804665+569526272+571753191+574841452
1678+579432870+585177395+591127675+596390688+601237677+606412067+611636571
1668+616069699+620056056+624688782+630251807+635933830+640839253+645137712
1658+649709391+655364025+662655143+671099293+677944423+682072650+686081396
1648+691322132+696464954+699503361+700959987+702669833+705332703+708777993
1638+712550236+715564836+716403826+715671184+715569016+716774289+718356667
1628+719224389+719145579+718322859+716505696+713786033+711492656+710625381
1618+710339773+708691198+705134337+701152159+697639106+694334941+691020105
1608+688028565+685729441+683880261+681925331+679828529+678095996+677012146
1598+676391598+675998970+675676867+675111322+673983440+672429272+670905106
1588+669523333+668031033+666470149+665264801+664738586+665094869+666515599
1578+668631953+670137239+670168583+670106790+671651927+674801981+678258540
1568+680907006+683127917+685925270+689930583+695759999+704234972+714763461
1558+723196267+727760184+732179245+738452411+745921671+753923489+762719967
1548+772364614+782180686+791439123+799744685+806816018+811519120+812111383
1538+810175633+809335225+810461465+812331168+813871157+815467341+818015281
1528+821548932+825405880+829264172+833571363+838550446+843394823+847182589
1518+849827100+851429404+852201226+853007901+855014625+858928142+864439561
1508+869727911+871908895+870732877+869352821+869168410+869721940+870620634
1498+871699409+872536085+872749527+872793334+873639861+875831816+878816863
1488+881283233+882589107+883087634+883325629+883828709+885065476+887093245
1478+889481626+891720822+893480521+894394588+894115397+893121402+892777656
1468+894078008+896868495+899787046+901304646+901654361+902201622+903084718
1458+902790005+900605438+898874845+899330162+900940078+902199309+902301477
1448+901150162+899509274+898594013+898826112+899677117+900707233+901780486
1438+902355136+901922954+901423233+902228564+904081923+905699078+906313133
1428+906322611+906566054+907268396+908044547+908569643+908679424+908049921
1418+906682327+905380931+904728218+904494402+904259393+903834152+903302787
1408+902994864+903057553+903013372+902304985+901178446+900386026+900303261
1398+900497449+899970114+898140338+895673819+893858670+893033338+892235246
1388+890190237+886785024+883878711+883713332+886525834+890365543+893250437
1378+895160216+897322394+900144300+902944115+905392424+907875436+910432704
1368+912642794+914466227+916092263+917081035+916892744+916324437+916957448
1358+919192613+922069373+924591117+926445745+927664899+928248206+928312612
1348+928237758+928385899+928742480+929038164+929286234+929837823+930819878
1338+932116946+933868585+936052480+937880465+938728111+939193876+940190559
1328+941590989+942724319+943657566+945010158+946823367+948463583+949623555
1318+950546354+950981148+950243954+948840837+948395222+949265332+949859684
1308+949072115+947839527+947414435+947556755+947510186+947614817+948456344
1298+949168686+948333428+946176176+944189602+942996121+941964586+940410493
1288+938303616+936191665+934622795+933391028+931700138+929128615+925808107
1278+921947502+918064582+915166554+913759705+913084156+911972767+910037240
1268+907609903+905151817+903018148+901269122+899424867+896793044+893312529
1258+889699695+886581135+883972148+881766387+880096990+879066127+878671484
1248+878938883+879557491+879710557+879056425+878530434+879284196+881087851
1238+882622392+883243312+883632507+884509633+885410043+885335711+884335521
1228+883722213+884722328+887314299+890286659+892412343+893688440+894998568
1218+896611320+898044737+899318893+901042919+903393462+906018644+908613899
1208+911018922+913196697+915214093+916926029+918218395+919589271+921520619
1198+923535850+924917175+925945277+927365111+929197424+931144966+933348787
1188+935844188+938103981+939838082+941625990+943930935+946249015+948074985
1178+949796547+951869990+954044109+955949261+957741423+959794343+962005702
1168+963650694+964310646+964932761+966989711+970555304+974411804+977621189
1158+979686945+980233758+979766948+979637241+980472798+981487764+981804046
1148+981915991+983129473+985608156+988033554+989535406+990579851+991731466
1138+993390638+996378968+1000690413+1004397056+1005701513+1005232911+1004828119
1128+1005023873+1005245151+1005608673+1006930070+1009475323+1012259840
1120+1013668852+1013197714+1012291781+1012871506+1015203691+1017797901
1111+1019501553+1021047735+1023959794+1028269373+1032185577+1034143940
1103+1034371412+1034267602+1034965840+1036444034+1037348474+1036375822
1094+1034330739+1033348908+1033851242+1034225212+1033735043+1033744521
1085+1035788187+1039716779+1043751571+1046182043+1047093423+1047767257
1077+1048625501+1048971336+1048557737+1048194364+1049007904+1051508081
1068+1054752467+1056898898+1057500713+1058300522+1060842790+1064124192
1060+1064933927+1061870593+1058393511+1059048239+1063653651+1067649634
1051+1067803148+1065037588+1061953656+1060104551+1059167423+1058117604
1043+1057064278+1056790386+1057271152+1057942448+1058680164+1059651920
1034+1060976452+1063293114+1067271410+1071722562+1073741823+1071590914
1025+1066889081+1063179004+1062283446+1063062209+1063450657+1063025267
1017+1062847125+1063053626+1062443079+1060333739+1057937149+1057268689
1008+1058458663+1059298249+1058391645+1056713890+1055321296+1053843848
1000+1051599950+1048586693+1045595452+1044032179+1044481675+1045302828
991+1044168976+1040901082+1037407879+1035316749+1034886807+1035152265
983+1034409026+1031846384+1028660881+1026495047+1025502543+1024524519
974+1022521004+1019821864+1018081868+1018034851+1017452812+1013158234
965+1005044545+996186572+989637425+986363486+984960369+983085516+979806353
955+975956420+972310450+968865310+965834291+963653903+962029658+960266228
945+958205099+956014562+953850519+952244931+951865587+952601811+953604315
935+954347703+955004148+955744850+956182032+955650293+954042616+952267394
925+951586098+952277022+953398933+953966046+953792009+953264301+952853463
915+952629275+951977681+950434857+948427835+946612761+945219719+944205200
905+943683462+943856380+944366251+944069448+941801669+937594259+933262217
895+931262285+932330238+934584211+935694405+935534175+935604850+936330028
885+936342492+934566001+931893654+930183584+930156269+931090636+932272624
875+933450060+933954782+933132659+931642300+930668529+930330978+930090073
865+929813569+929462137+928773004+928033347+927947000+928562697+929236754
855+929468629+929192573+928481201+927607658+927240703+928090290+930155374
845+932453154+933897467+934377262+934218077+933200498+931302435+929508183
835+928638148+928283059+927862519+927610494+927691990+927538028+926735906
825+925839302+925960203+927986255+931778947+935775827+938052487+937690532
815+935265582+932746002+932397928+934927807+938625943+941100820+942042724
805+943160307+945210390+946489622+944963664+940883423+936506379+934143148
795+934438459+935685823+935597834+934603839+935485292+938883267+941829879
785+941982199+940907304+941236422+942792605+943491887+942831562+942503190
776+943593757+945024338+945257482+944126466+942714318+942352363+943124261
766+942968508+939948683+935573878+933636784+935824187+939998909+942797904
756+943385092+943774884+945359277+946771349+946073037+943691075+941376577
746+939832186+939249625+940107048+942052053+943435019+942801635+940523632
736+938248166+936891096+936076585+935406633+935279015+936297564+938792069
726+942534983+945995497+947167336+946027364+944602455+944048328+943206428
716+940897752+937693293+935040200+933978365+934546747+935977775+937763370
706+939965177+942072501+943019107+942109592+939220072+934205987+927211299
696+920078247+915017966+912109937+910446660+909803276+909502741+907723788
686+903597575+898863203+895646878+894045245+893195136+893096923+893918374
676+894513399+892897064+887067647+875797636+861547204+853802710+861047856
666+874844687+881811762+879343900+872124053+865776854+863090103+863285409
656+864019693+863988722+863235631+862035582+860975315+860891655+861939310
646+863838268+866303667+868156727+867909329+865795661+863161151+860325587
636+857433380+855822717+855841300+854880141+849765008+840357236+829830912
626+821663265+817451004+817225622+820176115+824376137+826287185+823859400
616+820139770+820110217+824817274+830647363+834024814+834904029+834499982
606+833310755+832481766+833700771+836785673+839633251
##END=
