##TITLE=<SNM>
##JCAMP-DX=4.24
##DATA TYPE=INFRARED SPECTRUM
##DATE=2/5/2025
##SAMPLING PROCEDURE=Instrument type and / or accessory
##ORIGIN=Admin
##XUNITS=1/CM
##YUNITS=ABSORBANCE
##RESOLUTION=4
##FIRSTX=4497.3318
##LASTX=599.83466
##DELTAX=-1.4281778
##MAXY=1.7119439
##MINY=0.28208473
##XFACTOR=1
##YFACTOR=1.594372e-09
##NPOINTS=2730
##FIRSTY=0.29683965
##XYDATA=(X++(Y..Y))
4497+186179675+185991575+186806462+187238793+186928821+186500732+186238312
4487+185911666+185640442+185966733+187017216+188198545+188711365+188074783
4477+186468525+184818770+184158449+184749403+185993837+187065479+187471717
4467+187205671+186632101+186236966+186359587+187014001+187803634+188187927
4457+188066914+187868160+187969752+188331969+188816770+189493652+190312277
4447+190783676+190436581+189371518+188069438+186921886+186144702+185841850
4437+185927592+186122290+186127131+185781419+185174445+184717888+184927615
4427+185822710+186670980+186810032+186489143+186208685+185659545+184302716
4417+182577743+181524662+181574944+182389625+183395153+183977864+183782512
4407+183192324+182928970+183081330+183119911+182818480+182491142+182344147
4397+182212722+182033856+182078718+182479852+182885118+182854538+182404953
4387+181955069+181795101+181727996+181324768+180547116+179889581+179747894
4377+179941881+180049268+179927619+179763034+179824139+180161403+180458291
4367+180281519+179547046+178695803+178359811+178768404+179485287+179856850
4357+179642470+179054095+178453477+178260331+178729056+179527307+179958573
4347+179703481+178937755+177943947+177108667+176925296+177457875+178121859
4337+178317155+178062474+177937292+178495217+179613927+180450870+180341165
4327+179654395+179321805+179604356+179856402+179595197+179238998+179426444
4317+180145327+180938232+181378265+181107976+180131775+179183670+179054133
4307+179625011+180260509+180823966+181616142+182651092+183502839+183619628
4297+182634362+180780713+179104732+178802797+180055997+181764633+182751973
4287+182921829+182823340+182579800+181952714+181085638+180440085+180180992
4277+180130280+180150505+180242452+180443281+180873482+181666611+182556752
4267+182795321+182031800+181039450+180808994+181230073+181512325+181476642
4257+181542457+181915871+182514134+183199521+183704547+183880739+184035623
4247+184420309+184659494+184331184+183741613+183534354+183832476+184247181
4237+184524779+184776619+185106724+185331366+185165997+184587342+183955415
4227+183726865+183962948+184223723+184163403+184085718+184533602+185426285
4217+186042810+185938003+185445071+185102649+184980383+184823088+184546051
4207+184374531+184656316+185453071+186170553+185985051+184901334+183870926
4197+183643648+184017978+184347315+184367952+184407467+184918437+185844561
4187+186568005+186589987+186084849+185637077+185602254+185871608+186210816
4177+186644475+187318011+188088840+188567790+188576875+188317969+188057624
4167+187830645+187521793+187127631+186782928+186525686+186268369+186071092
4157+186141094+186489199+186872127+187055554+186885436+186279584+185441333
4147+184910362+185094461+185811737+186477834+186723692+186742254+187046133
4137+187939003+189171978+190061727+190074251+189409220+188834603+188815537
4127+189028703+188822677+187916666+186616287+185605488+185502138+186347998
4117+187533046+188320474+188396850+188043493+187897656+188345521+189080985
4107+189476343+189358807+189197157+189638891+190928746+192492031+193219532
4097+192568800+191139725+189877329+189191400+188984010+188971822+188908026
4087+188868454+189233083+190105467+190928802+190972262+190143861+189125435
4077+188712505+189135248+190012585+190737450+190839435+190215564+189211288
4067+188477488+188609399+189668499+190956467+191538897+191201522+190656943
4057+190649223+191073629+191192699+190665541+190023221+189909460+190268706
4047+190727824+191318011+192167366+192861296+192873445+192381728+191979640
4037+191833075+191743521+191780176+192183741+192808677+193186353+193001767
4027+192331390+191722193+191925340+193073919+194412505+195229635+195540654
4017+195608694+195476503+195158735+194731787+194220667+193731231+193504064
4007+193679210+194215022+195030152+196000744+196871483+197319554+197148857
3997+196549360+196103869+196268304+196860492+197269870+197116613+196586633
3987+196232359+196498312+197298880+198021857+198107038+197691174+197507018
3977+198048924+199032189+199813654+200178937+200460685+200936532+201412193
3967+201532122+201267328+200907485+200779088+201108856+201870096+202610400
3957+202777191+202365271+201993109+202293250+203359640+204636953+205266170
3947+204858680+203934967+203316423+203331190+203770868+204308867+204736246
3937+205007021+205334807+206072813+207222047+208132993+208134451+207455101
3927+206888933+206689132+206447124+206078850+206229005+207314872+208731012
3917+209379370+208827913+207654603+206755041+206615784+207147970+208069663
3907+209414679+211476560+214212276+216962030+218865662+219191075+217549470
3897+214668609+212407731+212239781+213925855+215554899+215582097+215127895
3887+216222043+218588438+220079085+220168658+220154452+219845620+218015036
3878+215639276+214925869+216322252+218694236+221162055+222983592+223083352
3868+221898771+221239796+221614500+221860153+221264171+220481827+220414573
3858+221869013+225801086+232011121+236340815+234108237+228037963+222863008
3848+220363562+220547026+222654684+225598967+228659946+231759244+234521876
3838+235628642+234373666+232017963+230229418+229461673+229120354+228700284
3828+228359787+228591533+229978774+232863635+236190922+237628633+237082260
3818+236824569+237121625+235965793+233008724+230358618+229985074+232475267
3808+236545606+239808125+241918343+244535326+247392112+248170548+247068157
3798+246319759+246125621+245394869+244415098+244562318+246501204+249811761
3788+253692823+257491508+260903527+264261188+268351210+273343056+278280414
3778+282442532+286481991+291463015+298098615+306648671+316137954+324647691
3768+331731363+338527399+345438840+352486099+360712276+370705762+380810206
3758+389228052+397347458+408373315+423948368+442001707+456873036+465767160
3748+472959545+482873702+494477297+502745008+506853030+510852114+517606990
3738+527767996+540022043+550721534+556436600+557919938+558636410+560412655
3728+562575081+563834338+564045036+564041335+564103244+563818561+563276188
3718+563238991+564441386+567803477+574226529+582703106+589689391+592699284
3708+592789007+592540774+593839022+596707415+599297930+599980869+599429486
3698+599684560+602336946+607791293+615035194+621547071+623933093+620960061
3688+616459727+614804345+615898475+617646719+619059849+620603077+623662767
3678+629177938+635209612+638004246+637942936+637797735+636781402+632945987
3668+628599900+627265277+628489841+629473424+629205827+629365084+631265035
3658+633832521+635824661+638764944+644987129+654085446+662354577+664882511
3648+661232970+656013210+652154168+649512736+647488595+646597649+647920908
3638+651330066+655113817+658145991+661717697+667705482+675140043+679755447
3628+679186456+676855913+676223742+677502962+679924873+683304199+687600041
3618+692258810+696719966+700428947+702439256+702762108+703106194+704149368
3608+704018897+701816581+699935697+700955170+704526951+708147107+710151210
3598+710331328+708346814+704532932+701623603+702057412+704715443+706745865
3588+707068866+706781380+707012789+708363637+711085670+714152313+715804554
3578+715757375+715171262+714625600+713950886+713434906+713801722+715216946
3568+716705817+716857075+715717598+714836821+715281771+717035623+719696046
3558+722528588+724161538+723422150+720684266+717545097+715532171+715253882
3548+716481586+718648311+721246303+723880931+726084293+727715150+728701575
3538+727853697+724245653+720506914+720732043+724692098+727536602+725783947
3528+721246676+717840359+717664653+720258831+723441590+725280528+725479339
3518+725199404+725658709+726796765+727356783+726390322+724638788+723876595
3508+724641853+725601137+725422440+724419042+723726608+723359718+722526120
3498+721649755+722044759+723468656+723784479+721368550+717254321+714586795
3488+715934428+720650694+724735763+724612992+721029922+717539190+715861304
3478+715186515+715074512+716277990+718877477+721341782+721976121+720754249
3468+719246162+719180814+721068502+723648849+724710715+722993799+719831004
3458+717636764+716976331+716726753+716322179+716109387+715895847+715090961
3448+714311197+715212609+718299514+721834434+723550752+723098700+722037132
3438+721815742+722655769+723712028+723499012+721150673+717868771+715739356
3428+715030398+714391573+713086783+711772272+711338688+711558135+711292780
3418+709743720+706958358+703541647+700906795+700965712+704039907+707552620
3408+708373282+706312654+703823301+702994863+703918258+705294677+706248203
3398+707084493+707898650+707430747+704656151+700792623+698154704+697753719
3388+699105614+701457916+704005962+705607809+705349408+703273751+700554858
3378+699143223+700522259+704076693+707250704+708161687+707694905+708046618
3368+709508123+709782151+706869457+701743233+697199159+694958787+694801398
3358+695858106+697710353+699957156+701548760+701703681+701243852+701711232
3348+703051164+703703447+703173037+702747453+703390614+704353113+704435882
3338+703768197+703433681+703942932+704935637+705964007+706577934+705950698
3328+703605500+700278811+697417933+695973100+695783187+695912537+695630958
3318+695506692+696975451+700271708+703727149+705345520+704794474+703467178
3308+702838522+703528339+705183047+706452696+705863667+703432784+700776024
3298+699130288+698175939+697341893+697218599+698786949+701791459+704784230
3288+706522979+706601636+705371240+703972166+703575144+704003420+703872275
3278+702517539+700694975+699179860+698022887+697009919+695786552+694009896
3268+692334850+692569175+695786851+700510071+703518320+703011910+700317542
3258+697632519+695505945+693848171+693583340+695167092+696994068+697344584
3248+696437863+695134792+693640986+692407451+692312046+693367632+694409684
3238+694271138+692998348+692009008+692508239+693892583+694792875+694956394
3228+694806707+694542773+694793921+696234866+697831404+697608668+695311396
3218+692294176+689406081+686848465+685233832+685175064+686236332+687341939
3208+688119385+688954178+689709044+689567283+688580334+688081701+688721498
3198+689210935+688161704+686437984+686154834+687718400+689186560+688567100
3188+685803570+682465816+680340438+679956949+680005100+678724460+676168787
3178+674368579+674926279+677208821+679062041+679052321+677756054+676644691
3168+676138282+675233803+672947373+669754072+667270402+666580136+667172156
3158+667547346+666731992+665042665+663502652+662699411+662377457+662183880
3148+662180665+662293790+662133486+661683452+661283140+660919091+660422776
3138+659948816+659438295+658413364+656919932+655740454+655325936+655434350
3128+655763782+656119307+656258976+656033323+655380891+654184216+652507750
3118+650718457+649062029+647518951+646198907+645500268+645561877+645755229
3108+645183323+643722116+642146737+641189173+640942137+641103039+641286522
3098+641139003+640426830+639151499+637662628+636615191+636549769+637403479
3088+638635744+639820754+640780711+641189472+640665343+639352552+637873176
3078+636606518+635469509+634436578+633703544+633192724+632452513+631313111
3068+630109333+629033634+627869185+626668622+626084453+626476055+627138395
3058+627096262+626393361+625846876+625784556+625740293+625181172+623985656
3048+622344406+620610704+619314512+618902611+618968818+618225130+616194372
3038+614288590+614045255+615201854+616426081+616821645+616062929+614370611
3028+612801102+612370172+612817589+612879871+611525397+608829981+606145818
3018+605024735+605631446+606727146+607005398+605928765+603792994+601499199
3008+599812863+598684415+597547593+596121340+594779764+594281392+594959171
2998+596041824+596308935+595565359+594731575+594399938+594089311+593176197
2988+591965204+591354717+591701345+592379049+592406003+591255199+589148177
2978+586930198+585567461+585370371+585777188+586048898+585826797+584916524
2968+583214973+581164887+579692465+579285349+579452382+579330696+578578709
2958+577556358+576812296+576473219+576174518+575661529+575167195+574876195
2948+574374309+573176139+571605134+570487603+570022802+569491121+568194780
2938+566415469+565191541+565099575+565479251+565210158+564113599+563022049
2928+562487452+562131179+561496504+560788630+560327643+559900452+559128314
2918+557990782+556598736+554971916+553385247+552357288+552004342+551904040
2908+551731174+551602909+551706762+551862244+551518644+550237069+548287136
2898+546544649+545633629+545404836+545228083+544574641+543461782+542438459
2888+541981173+541955153+541786774+541010636+539650666+538116485+536594940
2878+534817087+532862406+531673096+531942862+532955120+533375993+532811190
2868+531823755+530882790+529985676+529086432+528426149+528252274+528349286
2858+528166252+527449743+526435840+525354497+524140027+522765552+521466892
2848+520459644+519762799+519373366+519198108+518776935+517655702+516044920
2838+514478925+513075589+511798276+510914434+510484364+510034106+509281334
2828+508472298+507754144+506982492+506216710+505743311+505592129+505425843
2818+504807879+503554193+502015750+500770251+499966524+499342503+498763307
2808+498286693+497877969+497456012+496991398+496316535+495176161+493644485
2798+492138753+490910414+489865894+488962126+488401771+488255261+488185652
2788+487792966+487054512+486178333+485191722+484009253+482777773+481774974
2778+481028781+480339450+479611913+478929797+478364507+477880603+477376587
2768+476771221+476109816+475511030+474943049+474202838+473224114+472242961
2758+471460468+470663021+469472739+467953175+466605841+465749888+465230282
2748+464704844+464020523+463377549+463113540+463154962+462891663+461899332
2738+460474724+459151952+458129227+457410960+457019957+456836848+456566222
2728+455997456+455162588+454248053+453362865+452389525+451229786+450125002
2718+449414063+449060182+448724844+448189536+447457737+446604438+445707250
2708+444853838+444125852+443557347+443095126+442628980+442074831+441386846
2698+440553772+439658864+438861754+438260762+437790953+437259758+436522425
2688+435640602+434767938+433902900+432964963+432074092+431442258+430975664
2678+430307156+429305777+428306903+427730062+427672639+427964537+428352624
2668+428486423+428044764+427080844+425972472+424960962+424036969+423228569
2658+422639054+422205395+421671134+420862360+419958106+419388816+419339432
2648+419467959+419280327+418629165+417716238+416819386+416115625+415614038
2638+415220455+414855845+414394784+413626085+412577378+411710322+411441154
2628+411581308+411520708+410911716+409991761+409239811+408851163+408639791
2618+408396793+408153271+407968292+407629141+406848331+405724182+404680708
2608+403934889+403362497+402907641+402748533+402979120+403392367+403639777
2598+403481529+402910893+402114867+401336038+400772879+400501954+400408381
2588+400305686+400134129+399874607+399421358+398801637+398270741+397950843
2578+397702647+397488996+397452060+397536586+397457892+397090440+396526983
2568+395803183+394928986+394139652+393741583+393688235+393599448+393215472
2558+392600050+391939842+391345916+390824179+390360014+390048602+390015330
2548+390140456+390132680+389941645+389745415+389521744+389032270+388227720
2538+387368103+386772046+386586358+386695072+386779934+386572675+386108735
2528+385694889+385571259+385630102+385575932+385305605+384932621+384532459
2518+384116370+383760209+383545809+383459302+383439937+383426478+383351448
2508+383180526+382938313+382662640+382370631+382059555+381716591+381345289
2498+380976192+380648294+380416810+380338826+380370453+380319610+380027414
2488+379617681+379429263+379590016+379759891+379493153+378805280+378150642
2478+377883269+377957776+378102266+378100061+377910634+377611783+377269753
2468+376925966+376674145+376585394+376544571+376341910+375951243+375564688
2458+375356980+375353242+375485956+375626559+375600689+375330063+374947957
2448+374667574+374561552+374552468+374554898+374515046+374365695+374082957
2438+373766797+373558566+373501929+373534042+373544472+373426151+373197844
2428+373070475+373202330+373400767+373308203+372887815+372463427+372258897
2418+372168315+372028946+371866772+371778059+371757647+371724113+371606764
2408+371398832+371183834+371058559+371019268+370998856+370976388+370978556
2398+371043343+371190451+371320549+371223499+370840870+370396780+370096471
2388+369792349+369034866+367361952+364504138+360402957+355110746+348717527
2378+341383941+333387754+325070322+316715282+308502227+300618006+293368834
2368+287079263+281919617+277917000+275053710+273349318+273053514+274800823
2358+279269418+286517731+296082755+307815663+321352294+334336271+342929674
2348+344615561+340175042+333430222+328209528+325135147+322778135+320500565
2338+318482256+316619129+314602427+312512116+310870735+310187030+310494554
2328+311342264+312205825+312894203+313697164+315186260+317729334+321159689
2318+324922654+328447779+331446382+334042616+336594363+339285592+342001307
2308+344626664+347204805+349691055+351798040+353265265+354173557+354857355
2298+355529900+356123677+356557523+357002659+357699317+358619833+359518853
2288+360243139+360817700+361293603+361646400+361787937+361648905+361303099
2278+360965256+360779792+360675751+360520569+360339964+360268224+360328263
2268+360393873+360386471+360421874+360683116+361152888+361574397+361743076
2258+361731823+361717019+361697803+361561051+361365568+361367026+361701131
2248+362165520+362441192+362476894+362496222+362647031+362819186+362820719
2238+362615291+362386162+362397191+362732978+363210302+363619100+363937540
2228+364218409+364429257+364538270+364637189+364860786+365231751+365626418
2218+365872183+365888707+365763432+365672027+365721375+365910540+366206587
2208+366553925+366853486+367055923+367216265+367357802+367407000+367356494
2198+367325651+367386738+367500199+367644690+367853706+368137715+368481727
2188+368863534+369200741+369381868+369420898+369489685+369721020+370044171
2178+370278533+370354498+370395247+370584113+370950481+371308137+371459731
2168+371425263+371375840+371426795+371611399+371942700+372365891+372733754
2158+372918209+372920340+372884488+373018586+373408617+373896297+374253505
2148+374453885+374640022+374889189+375159478+375394402+375556426+375638672
2138+375708730+375832024+375934494+375888773+375732768+375659570+375802901
2128+376120220+376474026+376795644+377142646+377535108+377810593+377808799
2118+377635410+377559071+377702852+377980730+378268664+378528449+378796943
2108+379091719+379334681+379423057+379403692+379492293+379827519+380260543
2098+380517934+380539356+380502495+380545487+380659397+380824300+381065541
2088+381370112+381666271+381882241+381986768+382005871+382005385+382023105
2078+382028713+381988637+381960486+382049050+382254590+382473886+382673145
2068+382900629+383104374+383126506+382917452+382612433+382384201+382316648
2058+382389099+382517290+382617816+382660958+382681295+382729932+382790196
2048+382797748+382791168+382926911+383253090+383588802+383729778+383679533
2038+383571231+383438815+383217275+382958089+382857862+382999960+383229350
2028+383362663+383383599+383353953+383255520+383065943+382959772+383199480
2018+383690674+383928289+383648841+383194284+382950575+382851432+382680024
2008+382467793+382377771+382443605+382539833+382525327+382392912+382233766
1998+382090210+382026096+382241243+382803804+383387711+383588241+383358887
1988+382903059+382404426+382039293+381959103+382115594+382270179+382247524
1978+382104342+382021199+382077612+382214177+382412127+382759840+383237986
1968+383569623+383465171+382992932+382519122+382280759+382222289+382258926
1958+382445549+382771354+383030765+383078766+383045195+383148488+383428834
1948+383818155+384392043+385276259+386168624+386302722+385341569+383979917
1938+383153086+383077682+383360532+383643532+383831875+383902644+383832772
1928+383779911+384112183+384970230+385914747+386462690+386812907+387317933
1918+387571773+386983343+385939757+385362205+385552754+386102230+386470055
1908+386414053+386104248+385890522+385914635+386074565+386300068+386626546
1898+387054448+387487845+387805276+388046181+388456812+389112422+389639953
1888+389662795+389302447+388905350+388666052+388655584+388821683+388984792
1878+389071037+389185508+389439199+390057088+391497958+393870559+396163793
1868+396806693+395566914+393827081+392768093+392491224+392594106+392771009
1858+392876171+392890901+392930977+393113562+393481986+394079575+395016503
1848+396534198+398787468+401096067+401869139+400528871+398513627+397305775
1838+397148872+397531876+398090324+399125722+401121900+403588859+405046215
1828+404976493+404466944+404194898+403702022+402780870+401988582+401700610
1818+401752051+401989068+402609649+403826886+405383759+406602528+407069011
1808+407103105+407361132+408279256+409916132+411912422+413566756+414345287
1798+414484020+414890762+416373166+418751749+420447991+419965209+418168776
1788+417100069+417473875+418591594+419784493+421095078+422445477+423306590
1778+423709594+424675382+427178717+430910839+433922302+434415627+432960813
1768+431152006+429914320+429873609+431302030+433342358+434657504+435240028
1758+435886628+436531472+437008048+438247491+441121080+444737984+446903251
1748+446777266+445688856+445187008+445849422+447405586+449033302+449962641
1738+450763527+453156054+457547301+461073249+460688638+458009858+455730569
1728+454568699+454553222+455632024+457403895+459799936+463699279+469769085
1718+476500857+480249578+479599800+477118149+475414766+475493385+477535022
1708+481348792+486117696+490613133+494714501+499611036+505499416+510410754
1698+513193612+514682707+514795272+513667310+513285241+515089786+518818731
1688+524054716+531373946+540343848+546725403+547391668+545868104+546032632
1678+548927830+554119141+560144684+565338873+569702493+574061439+577670268
1668+579239889+580063617+582509604+586779314+590765651+592860560+594198137
1658+596997369+602799428+612218504+622905022+627908962+626756999+626432914
1648+628853591+630780458+629354916+626560544+625324092+626338406+629435218
1638+634243525+638943193+640027266+636965483+633708180+633023074+634830834
1628+637677880+640355052+642627426+644149270+644186954+643465435+644071511
1618+646868985+650040678+651073310+650571088+650699990+652134055+654210834
1608+656167683+657773717+659187371+660739272+662765432+665324619+668121570
1598+670783938+673117323+675161726+677193120+679601573+682498714+685405277
1588+687654921+689254674+690983852+693492122+696745013+700530708+705005247
1578+710179248+714785530+717033978+717919166+720229073+724657779+729103831
1568+731367980+732229541+733722001+736970407+742788243+751940169+762618126
1558+768359548+767431368+765173276+764389026+765565139+768648380+772679167
1548+776488189+780338483+785713314+793648677+803703885+812958394+816251287
1538+813597368+811065397+811721867+814499304+817098268+819036948+821666044
1528+825628791+830224007+834826999+839783498+845003856+848875310+850248289
1518+849953775+849137150+848528532+849038904+851648709+856793551+863785556
1508+869876372+870246179+864502514+859231313+858181933+860918695+865735825
1498+869996227+870942052+868895405+867532520+869339158+873239548+875891224
1488+875352888+873023989+870989156+870043331+870024041+870499645+871364720
1478+872925295+875349524+878273956+880781403+881694554+880849143+879717218
1468+879720882+880986269+882392521+882773767+882848162+884627660+888889407
1458+893329403+893111975+887565700+881789660+879159742+879814717+882237974
1448+884364698+884886958+883892159+882283433+881004961+880823946+882350800
1438+885496398+888425765+888864359+887667385+887399040+888510553+889388190
1428+889239624+889179435+890105746+891554541+892708298+893166108+892606164
1418+891055908+889596795+889296972+890171542+891578243+892547545+892089661
1408+890134382+887875841+886678418+886891435+887777595+888375297+888647829
1398+889901627+893040496+896575491+898125448+897718257+897288636+897405948
1388+896614146+893839401+890697690+890069932+892868005+897378508+901325179
1378+904020968+906238387+908503059+910168235+910387981+909618685+909257252
1368+910166964+912193722+914738628+917004123+917885348+916855707+914854520
1358+913120781+911754605+910100570+908088990+906500078+905793213+905507522
1348+905087545+904553920+904153234+904021492+904168936+904163179+903179819
1338+901135790+899202941+898499143+899019758+900095756+901067376+901305739
1328+900411130+898736085+897150089+896262583+896291967+897298430+898951120
1318+900381298+900784227+900039604+898747300+897965443+898551929+900364325
1308+902330894+903293318+902670345+900776376+898823490+898153412+899057292
1298+900449263+900840528+899650208+897484455+895178361+892900379+890371624
1288+887654226+885221174+883222604+881126610+878353585+875057252+871959132
1278+869541707+867774845+866548562+865996993+866262646+867024241+867530875
1268+867440255+867365112+868117660+869683319+871319934+872351668+872556460
1258+872165868+871830305+872328340+874038901+876647660+879354216+881432190
1248+882643968+883203987+883627029+884501450+886007817+887819989+889660273
1238+891511474+893216726+894577369+895926796+897889104+900515807+903190661
1228+905442099+907453679+909659882+912239705+915243766+918670570+921987090
1218+924332962+925731063+927168419+929075547+930799865+931943828+933136764
1208+935087931+937752841+940640636+943316836+945491412+947247582+949356586
1198+952510484+956084283+958646236+959882389+960863281+962375031+964235653
1188+966027936+967417739+968021721+967950616+968228681+969702599+971955757
1178+974250710+976835468+980041106+982853310+984128268+984545179+985569736
1168+987557988+990226262+993413806+996290087+997692077+998130447+999397927
1158+1001904552+1004389493+1006001733+1007090666+1008255040+1009570597
1150+1010530629+1010578855+1010002163+1009688657+1009797895+1009935170
1141+1010532124+1012290537+1014415018+1015296841+1014812339+1014315052
1133+1014893464+1016501666+1018124074+1018811499+1018959167+1019468716
1124+1020000472+1020346203+1022306492+1027313983+1033553066+1037493980
1115+1037971005+1036885362+1036152478+1036121898+1036456414+1036876091
1107+1036620830+1034994683+1033433660+1034610147+1038477115+1041670117
1098+1041561628+1038825164+1035939238+1034625849+1034868100+1036211546
1090+1039156988+1044232669+1049459606+1051279928+1049388875+1047570423
1081+1048895550+1052878859+1056793529+1058023625+1056536773+1055579433
1073+1057735317+1061110755+1062056580+1060224146+1058021158+1056708816
1064+1055755065+1055338079+1056964376+1060616682+1063432102+1063790170
1055+1064152649+1066489473+1068325720+1066717144+1063136690+1060781847
1047+1060495108+1061583443+1063693344+1066872738+1070780530+1073741823
1038+1073615912+1071051118+1069500039+1070799970+1073042959+1073165356
1030+1070713537+1068063880+1067224002+1067919501+1068925590+1069829994
1021+1070395919+1069390428+1066126919+1062392591+1060701994+1061573349
1013+1063715924+1065669708+1066424948+1065960259+1065866873+1067362100
1004+1068663600+1066719163+1061734626+1057320724+1056158667+1057840143
995+1060257568+1061490580+1060822072+1058950310+1057343080+1056988451
987+1057315714+1056441966+1053093520+1048253810+1044341681+1042914794
978+1043356901+1043551899+1042008596+1039504813+1037873806+1037077443
970+1034880511+1029966780+1023655620+1017994425+1013909880+1011153902
961+1008534227+1004327061+997998031+991496061+987379963+985936551+985263931
951+983747919+981113291+977715422+974155829+970996548+968316834+965955410
941+964119388+963103055+962684126+962369125+961855762+961082727+960211446
931+959567463+959239228+958893422+958435911+958134593+957907520+957464067
921+957024650+956907338+956765053+956514577+957287762+959506900+960857972
911+958821419+954706219+952035403+951826947+952302252+952001682+950970919
901+949766767+948790735+948028243+946916954+945038612+942944787+941692110
891+941608294+942169733+942869644+943430560+943164682+941296209+938416489
881+936423676+936424274+937401128+937469766+936142470+934716928+934674534
871+936520053+939987830+944092189+946641357+945519376+941599845+938410806
861+938096030+939600602+940736116+940533792+939472449+938574924+938623449
851+939150195+938341944+935291601+931908836+931125109+933473000+936419863
841+937205832+935624771+933503281+932340402+932120357+932056804+932093964
831+933268058+936232043+939619893+940932160+939748794+938769397+940593457
821+944229165+946307962+945567153+943953418+943604547+944917412+946752613
811+947261339+945814713+944590822+946259587+950075413+952371264+951002546
801+947403251+944232156+942861420+943247750+944956965+947688718+951013014
791+953967653+955369942+954826672+953407709+952795128+953172187+952602075
781+949727738+946203361+944669554+945608276+947621725+949291462+949909651
771+949791142+950308841+952111069+953338473+951723243+947852536+943882462
761+940282793+936464126+933515842+933776262+937596200+942200089+944821633
751+945797890+947253564+950075936+953547901+956497530+957443580+955420336
741+951862388+949870173+950815699+952847541+953288079+951809451+950145995
731+949222750+948231465+946531970+945007284+944902982+946267139+948194604
721+949957129+951766908+953878902+954836466+952864514+948791259+945490889
711+944869186+946244708+947112250+945750711+943082959+940704190+938549801
701+936240941+934515351+933791290+932989245+930690478+926318971+920190396
691+913739941+909380023+908456104+909430940+909225326+906471516+903079480
681+901923928+903343413+905096966+905462586+904699121+902678794+896804807
671+883762734+864226168+848491447+850108023+865425834+880192823+887764136
661+889906562+890772384+891150715+888383970+880978269+871103328+862624321
651+858500971+859685608+865045634+872385015+879649253+884457486+883777837
641+876834956+867368926+860626947+859003866+861256127+864158353+864169194
631+859614877+852826692+848453913+848711641+851695215+854469063+855348943
621+853060045+847505396+841707822+840234952+842805952+843527920+839486441
611+835583210+837337511+842409677+841704607+831871911+822458070+823903799
601+835246900+846242625
##END=
