##TITLE=<SNM>
##JCAMP-DX=4.24
##DATA TYPE=INFRARED SPECTRUM
##DATE=2/5/2025
##SAMPLING PROCEDURE=Instrument type and / or accessory
##ORIGIN=Admin
##XUNITS=1/CM
##YUNITS=ABSORBANCE
##RESOLUTION=4
##FIRSTX=4497.3318
##LASTX=599.83466
##DELTAX=-1.4281778
##MAXY=1.8479342
##MINY=0.39830819
##XFACTOR=1
##YFACTOR=1.7210229e-09
##NPOINTS=2730
##FIRSTY=0.42435491
##XYDATA=(X++(Y..Y))
4497+246571336+246302772+246438102+246242891+245401303+244244032+243314597
4487+243143647+243995417+245605553+247312384+248283085+247775396+245855657
4477+243750387+242892937+243666765+245314858+246871554+247869096+248047354
4467+246887018+244282856+241442998+240061702+240587954+242026499+243301453
4457+244160150+244882185+245689625+246415382+246637970+246208310+245526398
4447+245211807+245533290+246192050+246657573+246620931+246074660+245190767
4437+244271566+243567090+242988126+242252446+241465838+241246436+241953544
4427+242993425+243413128+243109516+242800674+242865057+242929128+242627438
4417+242193379+242138416+242667439+243593983+244638851+245496718+245693365
4407+244880886+243394322+242074812+241449387+241363809+241281520+240758332
4397+239830732+238974910+238600195+238749967+239257361+239848309+240146363
4387+239927723+239341122+238679904+238117044+237801673+237909919+238420466
4377+239012210+239257638+238903600+238008382+236893416+236032433+235880323
4367+236529853+237403183+237564435+236678863+235466993+234900964+235199433
4357+235916602+236770883+237879615+239120785+239794662+239391202+238416448
4347+237879754+238040366+238177635+237654534+236703989+235968811+235679277
4337+235571828+235387769+235154341+235038891+235079377+235042320+234729425
4327+234520743+235013972+235880739+236040069+235315212+234776111+235110824
4317+235807784+236200525+236270069+236177408+235800580+235038337+234148037
4307+233392979+232631862+231784385+231436893+232260160+233967493+235552762
4297+236371648+236416239+235967461+235563256+235833655+236844981+237882663
4287+238125581+237452223+236513108+235977452+235746951+235136903+233934159
4277+232898416+232888459+233806224+234777618+235126894+234780059+234010040
4267+233259001+233012949+233399491+233913708+233921275+233551912+233679483
4257+234693961+235798398+236099275+235872652+236081924+237154949+238644179
4247+239589581+239182727+237601735+235946404+235057593+234937918+235331906
4237+236043065+236689478+236886299+236661321+236271645+235819386+235384081
4227+235332823+236050806+237188526+237719194+237250710+236576746+236297897
4217+235872410+234818935+233823817+233838865+234821394+235916048+236465366
4207+236562962+236647485+236651416+236045541+234847178+233778101+233257944
4197+233073488+233093384+233480325+234178566+234830260+235163830+235152298
4187+234944498+234812095+234915787+234973382+234486127+233486870+232657196
4177+232491389+232826587+233341740+233906729+234328632+234507443+234863560
4167+235748942+236562807+236370730+235307662+234480637+234491962+234787678
4157+234569575+233850952+233282153+233246031+233524569+233758464+233904288
4147+234125127+234438177+234672125+234787332+234997037+235340754+235408757
4137+234891734+234210983+234118979+234744214+235451460+235679225+235530908
4127+235353153+235108140+234527635+233717857+233265408+233621317+234490577
4117+235088122+235040848+234657977+234285288+233956428+233738031+233774153
4107+233913604+233806483+233425621+233144624+233263261+233663517+233997520
4097+234063653+233905898+233724385+233760335+234064484+234382833+234508742
4087+234573004+234755400+235025713+235306675+235520466+235516137+235299991
4077+235117179+235088659+235055757+234850070+234465676+233977710+233407872
4067+232721025+232069902+231901429+232433344+233115809+233106666+232323902
4057+231628466+231806516+232646806+233311816+233440514+233368442+233400962
4047+233531374+233740871+233956896+233898573+233447250+232914642+232649213
4037+232655204+232804595+233223051+234150929+235371613+236159485+236060607
4027+235412618+234862971+234668211+234601074+234338970+233889343+233655707
4017+233948047+234503738+234720628+234327021+233756248+233762326+234446402
4007+234862659+234145456+232813444+232261441+233144399+234786813+236025783
3997+236270519+235805117+235298900+235109560+235114842+235147310+235349430
3987+235950248+236773671+237192872+236751662+235739834+234943286+234913016
3977+235616660+236581110+237174101+237029559+236469886+236228422+236559707
3967+237063742+237552140+238364291+239515552+240313953+240184858+239280392
3957+238157928+237378957+237329223+238139261+239747855+241647801+242683128
3947+242286283+241707111+242388763+243693917+243821247+242505702+241090085
3937+240617548+241434547+243604252+246413599+248093087+247467056+245672932
3927+244790666+245292329+245865856+245671425+245718769+247203272+249478833
3917+250355799+248427177+244664757+241195023+239314610+239243508+241175490
3907+245722838+252871560+260668201+265927644+266981776+264296902+258911810
3897+252769565+248935437+249308524+252573697+254824045+254012362+253035878
3887+254860999+258009803+259205881+258868916+259152909+258760826+255923305
3878+253332875+254416169+258753224+263835483+268174806+270414037+269130736
3868+266341199+265547872+266508859+265772608+261991555+257961126+256929990
3858+260368190+268541780+279598208+285830499+280232845+268853722+259670209
3848+255439097+256207956+260581133+266359676+271883509+276608924+279795340
3838+279951329+277027952+273022390+269349237+266124949+263694110+262957391
3828+263921079+265765387+269018005+275026201+281667528+283343605+279810060
3818+276208546+273436136+268830864+263087716+259843341+261206991+266546488
3808+272550442+275976607+278332830+282699911+287169057+287174460+283795414
3798+280950845+278601791+275456364+272755506+272244734+273772165+276462893
3788+280258179+285138215+290157856+295002427+301211029+309625735+317856781
3778+323182512+327020155+333024351+343154859+356797665+371086138+382417520
3768+389680497+394131080+396742393+398656297+401432811+404740427+406373143
3758+406192946+407436488+412989240+422947516+434104034+441060611+442867463
3748+444907362+450936841+459111469+464500821+467403574+472900566+484100999
3738+500473599+517566432+529422092+534805210+537798875+542039165+548672509
3728+557794600+568377002+577806117+583774953+585873590+584903928+582440256
3718+580823471+582699174+590225329+602513974+611918569+608880746+595477880
3708+581911752+574314841+573187459+575567319+577263206+576679739+576028010
3698+577719257+582394540+589491797+597454539+603974736+606857263+605044766
3688+599762431+593814860+589279426+586961560+586911757+589093791+594048219
3678+601616280+607670314+606848813+602516052+601594738+603348498+601432516
3668+593832800+584709081+577696745+573993722+573358063+574816850+577092325
3658+578419126+577698858+577232936+581225736+590809731+601223539+603461125
3648+594309423+581042907+570784638+565560867+564313377+564557749+564033159
3638+562486611+561653785+563388115+568365019+576037777+583761030+585682137
3628+578952270+570096717+565607865+566808392+572842685+580984343+586107572
3618+585718572+583415875+582764354+583266675+583542771+584253377+585714000
3608+586097737+584565284+583249012+584186327+586843668+589412625+591516388
3598+594149209+597081192+598507044+597828786+597129194+599202203+604617183
3588+609998085+610649467+606547919+601628055+598397811+596767761+596180381
3578+596983665+599380010+601956656+603002719+603394075+605814455+610772069
3568+615006540+615148121+612158785+609110573+607056543+605534688+604487309
3558+604246261+604646068+605081823+605055571+604443740+603752321+603591623
3548+603546461+602478025+599977434+596614821+592990519+589486186+586688996
3538+585321536+585564523+586709222+587785346+588661291+589763737+590537583
3528+589679440+587289537+584937107+583306434+581664401+579750948+578403471
3518+578071096+578324265+578951924+580228506+581905449+582789290+581752578
3508+579015684+576193834+574758078+574293057+573219287+571404677+570153550
3498+569867376+569884935+570090656+570689916+570942115+569929646+568078983
3488+566724857+566680665+567690086+568475984+567109425+562734862+557267793
3478+553880971+553761383+555292173+556311534+556187062+555338478+554057705
3468+552636598+551787633+552088492+553180998+553701813+552230454+548948328
3458+545792822+544296838+544090216+543986940+543653352+543440323+543376113
3448+543158339+542669559+542203811+541926052+541236608+539353632+536628790
3438+534580094+534220289+534902114+535073757+533898304+531961092+530380568
3428+529601008+529415685+529779265+530739092+531642604+531512071+530393867
3418+529248545+528531810+527757721+526364183+524499077+522939680+522306134
3408+522409895+522669610+522901479+523079702+522697559+521437427+520011472
3398+519243064+518832832+517823065+515886892+513634622+511933262+511129944
3388+510858557+510743887+511067292+512117407+513209810+513291406+512252754
3378+510880792+509861777+509346919+509244993+509489227+509905554+510165130
3368+510187088+510336253+510786139+510962353+510391216+509853015+510514095
3358+511936068+512274054+510819941+508966611+508154565+508222516+508302553
3348+508239209+508451961+508996361+509230621+508476481+506933881+505535182
3338+504809823+504444719+504073208+503872058+504103616+504510176+504492721
3328+503790046+502790184+501977168+501212604+500053775+498691163+497884520
3318+497842094+497885178+497577912+497431655+497866684+498167682+497438236
3308+496191126+495924520+497261052+499171942+500043523+499219944+497465215
3298+495998046+495458148+495839599+496760463+497615142+497974601+498005944
3288+498150088+498501997+498901526+499318822+499693138+499693000+499232862
3278+498857957+498907587+498864295+498218004+497390407+497071539+497129238
3268+496897714+496176650+495367859+494823840+494461056+494033335+493573856
3258+493355285+493444050+493598723+493616074+493421920+492896568+492033541
3248+491250241+491096053+491495375+491643709+490886661+489456895+488043754
3238+486899679+485823381+484864143+484459627+484750096+485169851+485020755
3228+484307621+483745142+483950310+484727861+485127287+484330826+482560512
3218+480787150+479657828+479116787+478784135+478305157+477589252+476891496
3208+476386093+475803734+474915426+474040970+473629666+473573698+473248838
3198+472176696+470493623+468725214+467232035+466119823+465605969+465918569
3188+466565137+466297595+464517134+462308605+461220116+461319964+461244394
3178+459928641+457546323+455079499+453642911+453667847+454193511+453734239
3168+452177959+450775208+450192918+449764609+448662682+446960665+445450966
3158+444765643+444741261+444637500+443973442+443008109+442354336+442254281
3148+442305053+441867289+440586620+438492277+436036501+434157473+433635654
3138+434202185+434833030+434897690+434459856+433690721+432648848+431456563
3128+430259049+429137000+428174611+427458845+427022397+426864920+426933112
3118+427050034+426980421+426554640+425739269+424712912+423775355+422972210
3108+421988659+420683713+419472206+418844929+418782485+418943495+419115241
3098+419165217+418814694+417818191+416360269+415066543+414487094+414598994
3088+414954816+415282031+415662305+416115585+416352546+416002611+414872839
3078+413079840+411159114+409863726+409554901+409894619+410298685+410471055
3068+410354064+409945253+409407467+408956473+408438013+407434860+405951414
3058+404564975+403791718+403625097+403677947+403544921+403070376+402368602
3048+401608333+400878229+400234950+399638739+398868114+397794621+396700937
3038+396021536+395813356+395748280+395549866+395133505+394439004+393516789
3028+392654906+392063543+391592045+390991262+390173986+389107490+387878459
3018+386854180+386376830+386364154+386412814+386128440+385358057+384384309
3008+383759490+383692059+383834021+383801361+383525300+383029732+382296303
2998+381434628+380664834+380070943+379541470+378913534+378089401+377097954
2988+376135080+375467524+375164102+374967177+374529689+373761905+372903311
2978+372269349+371960802+371764223+371330857+370564908+369786144+369329747
2968+369087279+368771840+368479119+368478704+368603591+368394025+367680303
2958+366576575+365211124+363852184+362934021+362666895+362838815+363028259
2948+362872166+362296631+361597732+361086579+360659101+359981362+359037190
2938+358206511+357792124+357651652+357381755+356795344+356069431+355433252
2928+354933391+354546225+354239167+353808779+352969754+351799565+350779442
2918+350188356+349779683+349244634+348628716+348120646+347811163+347778781
2908+348070878+348506911+348757690+348696216+348492780+348300704+347983464
2898+347289794+346260251+345244873+344460637+343770881+343006351+342286395
2888+341871939+341806482+341850258+341796715+341730981+341819989+341912356
2878+341624519+340899229+340179446+339850707+339733750+339348282+338579423
2868+337835293+337488753+337410654+337243029+336927036+336641173+336344712
2858+335789541+334971711+334208982+333733190+333492351+333353402+333239147
2848+333057842+332705310+332167524+331545649+331015899+330746591+330738140
2838+330780704+330692251+330511604+330328255+330056627+329540833+328808270
2828+328100193+327647675+327414801+327101301+326507548+325828390+325399838
2818+325220576+324968203+324480809+323940288+323499649+323031130+322429238
2808+321872959+321538159+321313354+321049241+320812488+320659097+320432838
2798+319994485+319437825+318939244+318527039+318082105+317524302+316972940
2788+316656323+316587334+316454619+315993927+315323462+314712669+314219942
2778+313796135+313469162+313148008+312568039+311693791+310811128+310070565
2768+309397640+308887146+308748509+308854695+308815905+308446992+307823420
2758+307037106+306211172+305588224+305318430+305250237+305122822+304853271
2748+304485293+304021415+303466832+302859157+302145815+301261940+300372835
2738+299771601+299518293+299385059+299130089+298723148+298358945+298229970
2728+298236585+298069514+297631161+297147923+296796534+296453734+295909957
2718+295162156+294395167+293754348+293232529+292767958+292372965+292111657
2708+291979047+291870818+291705305+291526667+291416879+291322054+291068261
2698+290583984+290024795+289602477+289332632+289049886+288658894+288219935
2688+287755918+287166114+286441672+285824958+285595131+285730911+285890795
2678+285752990+285311987+284797319+284385530+284089173+283860230+283680189
2668+283558868+283504321+283487784+283435124+283264070+282931175+282475280
2658+282027714+281696655+281420108+281056684+280639751+280373924+280350494
2648+280420592+280374270+280132461+279744880+279273209+278732497+278171006
2638+277743596+277579383+277593253+277564317+277395757+277181689+277054983
2628+277057079+277094084+276971915+276576577+276042843+275633634+275449749
2618+275347909+275122811+274706259+274235454+273950821+273955098+274093060
2608+274153010+274081873+273881779+273488467+272960327+272590045+272600522
2598+272869536+273110774+273184248+273112990+272948188+272771523+272724820
2588+272858020+272972760+272796338+272327854+271854331+271621128+271633024
2578+271747071+271822572+271809862+271769912+271786588+271861915+271925952
2568+271925554+271881397+271853084+271837049+271770449+271690134+271741617
2558+271928082+272041281+271964309+271844339+271843733+271893813+271811940
2548+271569801+271333464+271227122+271148643+270918367+270545903+270208696
2538+269998472+269810275+269496861+269062612+268659256+268390415+268180953
2528+267903316+267576568+267346967+267311364+267423818+267539060+267522315
2518+267374500+267252054+267291398+267432650+267502851+267426052+267243396
2508+266983404+266654942+266332853+266122923+266046055+266033898+266021049
2498+265991559+265958086+265933583+265916717+265882222+265794513+265655374
2488+265515144+265394897+265248658+265068219+264941323+264909270+264861545
2478+264693487+264483627+264391139+264438690+264496891+264440785+264230787
2468+263883242+263477634+263170939+263054398+262995678+262786025+262438671
2458+262159458+262034518+261935969+261746594+261518378+261368797+261312743
2448+261250871+261101498+260901231+260749381+260675214+260613688+260506949
2438+260356883+260160945+259897767+259617636+259436071+259386112+259375393
2428+259306646+259153844+258953127+258796948+258776393+258884051+259038689
2418+259203023+259399775+259625999+259803235+259821833+259652511+259404849
2408+259220479+259136043+259115713+259157844+259287996+259512645+259850994
2398+260353073+261045392+261959883+263314771+265616949+269528534+275699437
2388+284778461+297428626+314143333+335015348+359708244+387599765+417877518
2378+449531596+481440091+512571519+541961725+568457906+590898739+609014015
2368+623907913+636836512+647428334+653617091+653650893+648251082+639706640
2358+628556182+613164258+592067265+565513766+537258804+514255977+502147841
2348+502810583+514837989+533160823+549949056+560390467+565561629+568197810
2338+569452919+569322560+568228564+567397054+567491464+567571398+566154828
2328+562917241+558462606+552935656+545963910+537708240+528978371+520255221
2318+511320704+501950639+492422265+483065880+473621596+463437996+452181076
2308+439992313+427215443+414399264+402255559+391171632+380956723+371268171
2298+362031756+353298873+344971685+336896039+329115918+321842585+315173500
2288+309006181+303285077+298163821+293826801+290297238+287466003+285131340
2278+282996926+280848763+278764222+276975050+275555155+274392464+273355596
2268+272329083+271229564+270132624+269232385+268569504+267946919+267165644
2258+266219550+265262754+264482034+263951850+263547507+263063507+262437788
2248+261782474+261206523+260708982+260238991+259777468+259359999+259054741
2238+258892640+258814819+258743907+258683923+258660563+258613046+258460694
2228+258229413+258007033+257835009+257725031+257697827+257722399+257685047
2218+257491672+257172873+256848983+256599675+256404673+256229359+256118844
2208+256145356+256286694+256418439+256432968+256337138+256229238+256200891
2198+256260754+256344116+256406266+256491429+256661080+256869520+256991932
2188+256961714+256797639+256546011+256286764+256117407+256045976+256000173
2178+255988069+256117979+256401123+256638984+256590775+256243801+255847908
2168+255633632+255583535+255580470+255632507+255783958+255945678+255984034
2158+255861311+255599917+255251298+254939582+254795750+254831751+254953400
2148+255046616+255024814+254900082+254827578+254969158+255316651+255747177
2138+256208042+256747611+257409973+258186433+259045269+259966185+260960679
2128+262060822+263290442+264669053+266220087+267937603+269784820+271740751
2118+273769793+275740824+277467310+278836830+279830822+280426064+280546761
2108+280125759+279192029+277878805+276342698+274704441+273067776+271520154
2098+270070527+268658598+267278341+266035145+265026018+264212293+263474240
2088+262759462+262117257+261605550+261221571+260916695+260645222+260415170
2078+260305019+260393923+260649932+260926219+261089705+261136720+261188704
2068+261381144+261706506+261968230+261973269+261757209+261527002+261439709
2058+261519088+261687094+261804467+261795808+261772933+261923172+262285020
2048+262734543+263156238+263541411+263916005+264225228+264367017+264362965
2038+264374255+264489134+264627805+264705488+264752277+264833284+264962137
2028+265131304+265365909+265678561+265990797+266250131+266645920+267420407
2018+268361687+268863229+268682980+268245475+268029415+268076724+268196642
2008+268289719+268352907+268385341+268401255+268470747+268654269+268862415
1998+268943647+269071721+269757165+271121491+272427858+272802693+272227798
1988+271350088+270677458+270365135+270370693+270500222+270543063+270488637
1978+270471026+270544154+270650565+270774552+271086702+271892306+273233012
1968+274506477+274865485+274207644+273338799+272986180+273130116+273401745
1958+273684560+274083103+274581216+275011655+275309778+275633703+276173047
1948+276998202+278239285+280048198+281927486+282607770+281491609+279647820
1938+278479120+278262108+278447448+278596666+278645499+278682331+278799738
1928+279189605+280261123+282183720+284240936+285479889+286065832+286697023
1918+286940149+285842828+283939696+282831483+283216363+284407712+285255050
1908+285190182+284556306+284008166+283763239+283639772+283595424+283894170
1898+284763119+285964963+286893931+287463163+288430972+290050632+291110479
1888+290501332+288960290+287891022+287645646+287794534+288022057+288265512
1878+288530699+288808510+289170860+290217252+293062583+297983070+302867954
1868+304276558+301466761+297290959+294468209+293540903+293745482+294254868
1858+294623435+294784030+294917472+295235751+295952556+297325211+299578521
1848+302991352+307614512+311918665+312739370+309328616+305082301+302958312
1838+302912804+303405427+303800350+305208297+308825360+313599418+316551072
1828+316618053+315665638+314659507+312761293+310122619+308301013+308011236
1818+308502994+308938784+309542615+311126879+313673775+315845316+316376590
1808+315610537+315005944+315835757+318569326+322458469+325592433+326478698
1798+325854053+326070926+328891217+333738905+337056148+335446082+330680683
1788+327232872+326945416+328644732+330718503+332743233+334503711+335410376
1778+335928662+337979921+343093870+350402840+356023161+356407140+352663041
1768+347950701+344326710+343363940+345679139+349360448+351441387+351794578
1758+352166573+352718489+353386703+356010173+362018318+369346059+373588219
1748+373280814+371063003+369664235+370065357+372008907+374324176+375718234
1738+377075408+381268146+388797141+394272937+392286062+386112301+380450870
1728+376481274+374613952+374966657+376652016+379515841+385386145+395571027
1718+406898529+411740953+407338857+399319801+392959886+390207373+391547992
1708+396502177+402836428+407721277+411645400+417952118+426968958+433448461
1698+433972497+430458952+423851687+416089610+411586488+412186337+416417240
1688+423086153+433233354+445873631+452528794+447551543+438726744+433664261
1678+434048413+438376567+443305539+446579664+449731153+454094702+456561214
1668+453997140+450003786+449723049+453240300+456405538+456462856+455929400
1658+459036800+468324992+484223324+501299603+506393844+501349232+500432593
1648+506269684+511375459+508636833+502089830+498862425+501265246+509185840
1638+521735273+535220983+541903298+539508304+536169553+538265905+546017973
1628+556375363+566850195+577646215+588842769+598302292+605669896+614619825
1618+627925164+642204529+650548653+653388581+656443512+662034776+668713317
1608+674360687+678386735+681506499+684305768+686727326+688768541+690938592
1598+693742294+697107470+700451173+703320262+706016393+709197874+712869416
1588+716323738+718991539+720870670+722353667+724118924+727162981+732657133
1578+740918553+749175054+752718176+752937474+756157398+764787662+775359120
1568+783133873+788682676+795468095+805205030+819080918+839400463+864581758
1558+880691560+880691907+876326799+874345915+874608850+875520467+875688369
1548+875325967+876309344+879751059+885055213+890952843+893425451+885934414
1538+872309686+862868658+859329207+856828200+851583477+846333489+845551886
1528+849326288+854510750+859195800+864113862+868812558+870723483+869439974
1518+866365994+861144267+853905222+847707668+846038622+850494191+860381643
1508+871068014+872397516+860643193+847109967+839683209+838627865+841800618
1498+845376434+845222108+841723386+839761065+842472226+848511645+852995406
1488+851669645+845642209+839123605+834853600+832982573+832436060+832968512
1478+835459960+840353502+846543921+850975040+849455817+841814541+833898900
1468+830651408+832267257+835240177+836117299+836229580+839672681+847744449
1458+855847109+855282241+845967901+836737304+831490087+829398792+829004180
1448+828840988+827505668+824805174+821911703+820204629+820801637+824266973
1438+829294130+831977654+829912957+826363116+825089998+825818266+826093877
1428+825106829+824302229+824565096+825462582+827002100+829578538+831483022
1418+829451503+823864880+818514872+815618561+814982625+815325564+815572429
1408+815702997+815858916+815131825+813274235+812667460+815539943+820436810
1398+823609218+823568697+821770953+819701131+818261980+818385620+819963512
1388+820789931+818470680+814323138+812506416+814945706+819914956+824922580
1378+829320520+833680364+837870504+841057388+843292134+845489407+847679823
1368+849032737+849777976+851248158+853594908+855217338+854981901+853497865
1358+851758375+850197315+849063076+848623164+848862965+849317076+849532980
1348+849716675+850434068+851773406+853428460+855392998+857752216+859805276
1338+860373400+859316878+857801811+856914091+856866990+857548434+859128611
1328+861764618+865029081+868125780+870731448+873326519+876548521+880398771
1318+884197001+887280193+889604986+891534821+893267315+894810296+896526583
1308+899155109+902922862+907134267+911035982+914488295+917388346+919217953
1298+919706143+919549185+919976768+921509636+923221489+923454086+921532979
1288+918596424+916433784+915601131+914990201+913332860+910707451+908157680
1278+906335278+905248902+905033968+906067840+908132398+910086753+910985348
1268+911299680+912239419+913976346+915566775+916751094+918603836+921718544
1258+924898778+926678028+927382953+928520102+930665079+933229187+935733242
1248+937813039+938537497+937273175+934788862+932402837+930676092+929617699
1238+929267903+929479166+929835127+930092521+930129233+929409415+927376858
1228+924611530+922740294+922797024+924256955+925726167+926008913+924819676
1218+923131166+922389737+923041742+924420562+925960911+927578770+929087395
1208+930373536+931865745+933878492+935847393+936967294+937372988+938059350
1198+939685382+941980875+944292923+946174410+947477521+948431321+949653252
1188+951690519+954415880+957064217+959068652+960890847+963568206+967091310
1178+969905332+970597305+969457039+968020105+967662689+968821103+970925905
1168+972964350+974562744+976106488+977890447+979678909+981245926+982942263
1158+985001073+986954181+988300168+989523207+991859983+995511507+998575997
1148+999024567+997637089+997144743+998758168+1001543652+1004263888+1005903150
1138+1006050618+1006254192+1008947275+1014018278+1018365169+1019769894
1130+1019194428+1018422591+1017739207+1016857790+1016891592+1019519288
1121+1023768859+1026105842+1025543537+1025365383+1027722939+1030640307
1113+1031895555+1032282131+1033086870+1033643011+1032967801+1031420109
1104+1029643423+1027918132+1026881835+1027143455+1028217502+1028761036
1095+1028257192+1027764014+1028658314+1031833146+1037619949+1044654243
1087+1049163979+1048355431+1044952920+1044653688+1049253194+1054884979
1078+1057007998+1055666790+1054466055+1055832684+1058488085+1059701981
1070+1059459479+1059763144+1060380793+1059218778+1056858590+1056791887
1061+1060866075+1066693399+1070486850+1071022765+1069278911+1066652255
1053+1063604458+1060969351+1060851875+1063311183+1065174800+1064106710
1044+1061968660+1062153255+1064881109+1066756570+1065524942+1063786629
1035+1065605222+1070624344+1073741823+1071846829+1067022138+1062401506
1027+1059684111+1059522720+1061212269+1063106085+1064337436+1065170297
1018+1065810666+1065376642+1062587348+1057809343+1053976548+1054087583
1010+1057939495+1062408779+1064888175+1065499452+1065701364+1066110106
1001+1066586452+1067522450+1069305163+1070723049+1069685159+1066135873
993+1062739527+1061466616+1061300030+1059757741+1055790847+1050965809
984+1047971625+1047631803+1048149016+1048085707+1048321490+1049831916
975+1051483438+1051360351+1049014640+1045377108+1041433972+1037968013
967+1035851644+1035390467+1035337755+1033545345+1029278042+1024409713
958+1021510146+1021097595+1021452240+1020884115+1019417812+1018077782
950+1017315019+1016670979+1015489291+1013281144+1009658920+1004889434
941+1000528551+998413498+998687724+999560967+999266446+997433030+994306962
931+989887342+984682793+980476790+979339780+981353843+983690757+983272803
921+980185317+977110852+976010623+976639701+977762650+978833165+980444512
911+983509141+987960970+992285903+994398186+992850910+987872517+981594337
901+976952163+975798667+977555128+980128380+981826934+982004879+980753372
891+978722338+977089934+976875000+977920024+978632430+977301197+973948974
881+970526445+969103572+969607901+969571537+966878107+962255190+958199149
871+956337957+956738595+959136741+963238705+967252147+968087432+964862728
861+960861547+959898257+962189871+965225200+966989904+966917728+965211485
851+962863904+961176225+960362966+959907193+960444978+962922503+965773514
841+965859612+962903455+960173869+960055562+961136951+960541951+958156273
831+956690386+957821577+960682147+963439855+964573748+963710895+961848734
821+960275206+959368368+958819015+959119217+960874777+963441587+966045247
811+968569458+970448797+970681741+969752322+969228113+969327303+969426769
801+969577909+969548817+968707921+968154482+970063883+974191614+977656188
791+978613590+977779552+976392143+975243773+975167718+976502484+978021500
781+977528945+974567524+971513077+970635401+971595851+972488974+971897437
771+969923133+968212735+968879079+972100458+975700932+977313180+976240311
761+973921960+972298560+971415966+970203040+969719282+972479346+978094091
751+982326899+981417222+976295516+971467846+969885522+970245638+970201793
741+969942390+970598482+971676062+971950357+971173810+969655903+967469297
731+965266621+964892998+967406819+970781900+971732652+970080923+968545353
721+968953540+970839807+972482186+972183716+969928051+967904984+967992537
711+969876309+972100042+973373161+973356191+972966774+972829973+971986237
701+970003344+968710138+969622378+971932486+974268847+975577915+974151370
691+969255404+963503026+960183774+958808556+956563351+953236064+950433055
681+947304216+941925046+935909179+933766695+938643059+949547967+959873252
671+959375780+942350758+919078381+911050944+920351984+930398749+931056850
661+924695135+918680929+916706764+917385229+917912417+917069928+915506860
651+913344151+909468619+904971420+903886083+908078786+913516209+913651902
641+906970244+899092838+896354525+900163491+907461829+914103797+916393610
631+911467720+900526102+889539806+884272017+885252138+887551510+885989065
621+880826976+877115121+878550462+884085828+890157871+893141596+890395455
611+881459311+868881616+858978372+858984745+871116778+889762290+905288453
601+911282571+906579096
##END=
