##TITLE=<SNM>
##JCAMP-DX=4.24
##DATA TYPE=INFRARED SPECTRUM
##DATE=2/5/2025
##SAMPLING PROCEDURE=Instrument type and / or accessory
##ORIGIN=Admin
##XUNITS=1/CM
##YUNITS=ABSORBANCE
##RESOLUTION=4
##FIRSTX=4497.3318
##LASTX=599.83466
##DELTAX=-1.4281778
##MAXY=1.8438574
##MINY=0.39640093
##XFACTOR=1
##YFACTOR=1.717226e-09
##NPOINTS=2730
##FIRSTY=0.4165495
##XYDATA=(X++(Y..Y))
4497+242571156+242170813+242364772+242926221+243235624+242992690+242419145
4487+241689231+240795505+240118108+240265781+241074399+241571148+241266101
4477+240743388+240685180+241031862+241477137+242236467+243546954+244683910
4467+244582626+243467208+242724921+243042256+243692666+243736019+243151262
4457+242695904+243011728+243818229+244066266+243287845+242451633+242784101
4447+244106390+245082327+244861798+243771735+242573551+241776475+241586560
4437+241945182+242593024+243315735+243892317+243892647+243239460+242766694
4427+243235121+244084991+244215344+243534597+242697448+241935359+241192620
4417+240839378+241271047+242117516+242551910+242354168+242161285+242552830
4407+243290049+243652767+243182987+241918889+240280480+238860345+238052907
4397+237880277+238201326+238885110+239837062+240975909+242000353+242397659
4387+242119703+241705371+241319554+240515778+239314401+238397020+237937497
4377+237505880+237150468+237359977+238022536+238463576+238456287+238365781
4367+238386902+238299989+237875505+237052586+235868408+234623488+233897254
4357+234028908+234836172+235974325+237064110+237488247+236883185+235808239
4347+235228532+235473462+236196225+237057515+237924810+238533378+238386225
4337+237201648+235447968+234150254+233860010+234000047+233613830+232678608
4327+232167541+232693898+233619627+233928163+233578878+233285614+233246444
4317+233047036+232693100+232686609+233109739+233567875+233994580+234653373
4307+235311124+235269715+234419185+233664333+234077172+235770787+237615667
4297+238166356+237046738+235282749+234205269+234317555+235226710+236213007
4287+236694589+236465799+235642881+234372987+232803303+231389467+230837945
4277+231479349+232890564+234240534+234891014+234739488+234193849+233800049
4267+233798035+234060997+234336541+234426978+234379009+234563717+235180962
4257+235743557+235694130+235376101+235557356+236244802+236803266+236926468
4247+236806338+236713975+236863991+237243369+237396821+236863921+235821428
4237+234899726+234481090+234429581+234444975+234516807+234851479+235381672
4227+235719295+235713220+235661156+235853275+236277307+236734679+236936413
4217+236726783+236482772+236876156+237962731+238868953+238685841+237443975
4207+236033818+235420859+235937672+237047016+237895220+238295702+238793979
4197+239564486+239926006+239333145+238083504+236707900+235470338+234622655
4187+234407610+234770935+235501490+236438639+237345034+237943415+238179355
4177+238200927+238152993+238107210+238117450+238354622+239034796+239966235
4167+240425116+239845236+238433066+236923101+235949091+235666015+235838367
4157+236247787+236800680+237262772+237443645+237573425+237844110+237838088
4147+237093596+235948675+235283044+235582399+236484976+237166452+237167945
4137+236770239+236494522+236495025+236547090+236448358+236311896+236359414
4127+236505993+236504883+236425918+236469392+236533379+236519374+236673381
4117+237148177+237683212+238007558+238113753+238033018+237691438+237095557
4107+236557624+236609689+237539080+238957966+239961185+239827274+238611267
4097+237067234+235976859+235593767+235674137+235842636+235964416+236263163
4087+236917183+237637794+238049870+238299000+238770151+239413585+239842459
4077+239867537+239483456+238590545+237185074+235681392+234689905+234491295
4067+234925741+235756608+236856493+237927118+238368680+237848657+236882526
4057+236349209+236425432+236498756+236274565+236288189+236930477+237760910
4047+238325744+238847363+239472696+239611483+238742019+237315062+236301500
4037+236187114+236653094+237062062+237238562+237674344+238684244+239652978
4027+239808461+239423616+239363030+239866583+240546149+241107269+241464450
4017+241491264+240999564+239854434+238300353+237177420+237212981+238108807
4007+238974227+239538974+240209290+241133509+241958476+242374334+242421505
3997+242356441+242397225+242506579+242536568+242611819+242977557+243471374
3987+243653548+243395047+242872681+242237300+241704556+241661741+242338514
3977+243555597+244871707+245831035+246223291+246181761+245902590+245396295
3967+244739463+244382038+244781340+245778190+246743071+247354069+247813696
3957+248245435+248378616+248023916+247557173+247707953+248734340+249811352
3947+249889952+249287476+249199278+249764199+250019541+249582614+249006309
3937+248877431+249709635+251788529+254157927+254832426+253256998+251430444
3927+251400889+252827967+253649063+252929406+252159976+253101828+255472284
3917+257195888+256559258+253871987+250870262+249012088+248723545+249999687
3907+253116354+258114519+263712696+267769235+269258791+268390194+265346210
3897+261012010+257708917+257467128+259936716+262136626+261578006+259915977
3887+260323696+262913658+265080871+265839784+266498195+266873426+265595982
3878+263579653+263035524+264535996+267289510+270463101+272614399+272154702
3868+270266764+269568454+270052848+269419931+266995292+264809648+264802012
3858+267694453+273846390+282366841+287752403+284418418+276346263+269460941
3848+265921595+265936104+268734776+272660043+276116015+278688309+280452003
3838+280903630+279962056+278621753+277350384+275703679+273877317+273001188
3828+273346673+274017944+275166527+278273232+282747938+284778099+283112617
3818+280801531+279034453+276391542+273119028+271325588+272457146+276632827
3808+282213597+286400090+288755465+291250183+293701392+293615381+291271946
3798+289037847+287280158+285639250+284976101+285993082+288159775+290970300
3788+294714920+299341950+303795639+307473459+311255027+315881676+320446888
3778+323901871+327170531+332280410+340566239+352010179+365082599+377771962
3768+389525201+400415553+409390442+416286871+423075492+430425509+435712582
3758+437015346+436855820+439296720+446310121+456464867+465256350+470104760
3748+473815276+479833373+487769778+493575486+496341652+500322003+509227924
3738+523583047+540012881+552624459+558151828+558779660+558944670+561831141
3728+568532709+577711241+585736295+589519321+589138623+586555170+583437740
3718+580662584+579051839+580036002+584394274+589593947+590722295+586399531
3708+579637221+574054837+572082901+573809334+576445442+577182228+576691396
3698+577063521+578858054+582073192+587537458+595505866+603236165+605978034
3688+602583481+596762432+591978305+589775827+590516743+593296863+596758683
3678+600309014+603058242+603351749+601746210+600256394+598849049+596039843
3668+592219053+589378468+588393820+588047693+586224246+583189704+581915297
3658+583923956+587357592+590048230+592089654+594309765+596770762+598174428
3648+596109887+590001232+582159932+575233479+570184655+566704438+564909106
3638+565704343+569182686+573806384+578400023+583845373+590410739+593933996
3628+589980615+582268018+577075010+576734922+580751997+586991542+592592114
3618+596471841+600073682+604312586+608116230+610195696+610526065+609541485
3608+607710958+605958458+604896614+604291136+604064619+604788250+606558938
3598+608785227+611225190+613746930+615762044+617425757+620288694+624852760
3588+628416489+628202052+625828246+624760432+626089680+628588095+630733718
3578+631893999+632121834+631540931+630244310+628990174+629662920+633577565
3568+638393972+639027705+634673286+630166490+629266880+631583415+634838227
3558+637783079+640518284+643150887+645004392+645498105+645570024+646644571
3548+648435391+648962217+646733151+642793306+639749531+638752456+638277417
3538+636302427+633285170+631622152+632500727+634636563+635748458+634796783
3528+632790554+630983976+628952409+625662888+621887985+620087307+621762404
3518+625520022+628000249+627172627+624282478+621975176+621327698+621948796
3508+623754333+626609078+629217107+629707557+627518199+624262693+622192737
3498+621958931+622354277+622181074+621433494+620329999+618594576+616300811
3488+614326098+613436971+613430237+613305351+612060448+609561825+606679937
3478+604344450+602936549+602721696+603819707+605550895+606869036+607356917
3468+606846474+604959231+602325934+600856180+601387519+602305039+601562803
3458+599131309+596584995+595319683+595865391+597925004+600428833+602203061
3448+602885457+602565987+600892348+597657599+593778566+590621844+588685174
3438+587674632+587532599+588693504+591262658+594058813+594922047+592759693
3428+588837828+585535186+584374073+585206762+586595642+586910529+585688882
3418+583904518+582581448+581819428+581482847+581587983+581534704+580388654
3408+578456045+577026138+576316218+575518169+574829213+575270757+576535862
3398+576970568+575603520+573070431+570762504+569731969+570101872+571020294
3388+571345109+570517938+568954017+567677979+567275276+567228105+566688818
3378+565687890+564885086+564447881+563854274+563071462+563068443+564156978
3368+564976686+564204600+562522908+561961685+563505093+566045228+567690301
3358+567780963+567264273+567050842+566743729+565478278+563435013+561757070
3348+561183594+561282864+561063880+560216161+559494231+559693813+560600399
3338+561264919+561068462+560226436+559419258+559133700+559253276+559322695
3328+559240017+559461083+560199987+560547745+559302182+556927439+555490590
3318+556241017+558141381+559247722+558872266+557816878+557323165+558031385
3308+559353414+560058162+559694334+558955396+558519683+558287752+558056827
3298+558065054+558369806+558437525+557840169+556824559+555949003+555650776
3288+556065663+556870827+557514903+557835726+558159811+558530721+558523050
3278+558063873+557678490+557618442+557505635+557137919+556912027+557166936
3268+557753602+558381538+559003434+559670453+560284748+560721398+561011294
3258+561019729+560249240+558630546+557034067+556162746+555501558+554286887
3248+552963123+552793531+554217919+556012140+556299746+554630619+552580517
3238+551838247+552513145+553714279+554725307+555085457+554544365+553475649
3228+552532930+551718498+550525937+548909222+547406772+546341041+545605400
3218+545295060+545749064+546711915+547213577+546661760+545482805+544512735
3208+544197118+544249356+543956926+543033123+541890371+540825820+539505736
3198+537791937+536405904+536094730+536599133+536941650+536453074+535172073
3188+533453068+531610565+530005929+529125306+529182890+529749701+530129635
3178+529925576+528919720+526888083+524235522+522370424+522430229+523679262
3168+524042501+522410444+519719702+517622985+516793211+516717336+516612165
3158+516114669+515262473+514342176+513726909+513419623+512904494+511880450
3148+510881327+510614929+510962340+511115827+510460088+509024767+507364734
3138+506204280+505926879+506195707+506132361+505015607+502957486+500904365
3128+499823049+499770741+499905485+499458561+498488074+497612657+497222067
3118+497182741+497233417+497250529+496958203+495891916+494005297+491910142
3108+490315468+489572885+489732273+490556493+491422226+491611325+490948436
3098+490052818+489728212+490046119+490247089+489689788+488584453+487611328
3088+487207930+487332990+487630835+487721011+487434343+486830218+486013322
3078+484970534+483692656+482502872+482002808+482449905+483318554+483728234
3068+483245871+482098850+480699731+479210470+477740890+476695985+476377314
3058+476391649+476146945+475731607+475545146+475462640+475069517+474307254
3048+473346798+472271730+471292947+470778582+470695243+470428221+469573525
3038+468587835+468149936+468140217+467847787+467084691+466452416+466371022
3028+466375118+465712645+464387389+463159494+462629058+462730654+462926521
3018+462551481+461296582+459686982+458687200+458620522+458940582+459122496
3008+459217289+459394829+459424784+458913439+457799982+456311519+454620317
2998+452884582+451454085+450654440+450401891+450263052+449846534+449099821
2988+448321210+447788726+447383454+446833719+446203632+445723039+445295206
2978+444638495+443812193+443224035+443099496+443118031+442665553+441516241
2968+440148534+439215430+438869060+438756392+438478123+437871950+437005315
2958+436073425+435188845+434243800+433156063+432180265+431675098+431549969
2948+431254241+430446231+429434265+428757771+428561660+428616259+428703970
2938+428712231+428569886+428266939+427772532+427003674+426087751+425393554
2928+425052807+424786791+424325081+423611030+422655919+421619379+420853263
2918+420506304+420306757+419938486+419389480+418869908+418579595+418495667
2908+418323610+417801991+417017861+416240811+415570217+414936658+414289632
2898+413596025+412810542+411983267+411254569+410724550+410427260+410332641
2888+410299250+410189706+410064021+410052602+410073497+409877560+409343757
2878+408610859+407926832+407392509+406903621+406390158+405920464+405440115
2868+404737692+403864392+403187342+402865998+402661835+402355486+402005507
2858+401710230+401393399+400948280+400407257+399826180+399160445+398446568
2848+397910544+397633698+397335159+396765778+396084910+395599285+395346076
2838+395146911+394891620+394603772+394363996+394260040+394292355+394282775
2828+393970664+393190769+391939652+390439250+389161268+388490813+388289496
2818+388076968+387675271+387369164+387379439+387470760+387232373+386579377
2808+385784868+385064119+384391719+383769129+383298429+382882327+382268310
2798+381499904+380935487+380732677+380608624+380196688+379474133+378711384
2788+378051134+377342255+376462325+375555323+374826971+374324789+373967833
2778+373613307+373139379+372597315+372179790+371964589+371798885+371456541
2768+370886640+370316462+370006885+369885713+369611297+368986242+368101523
2758+367150022+366291057+365608488+365078608+364604853+364097291+363562517
2748+363137460+362893311+362627711+362081795+361315922+360636963+360247206
2738+360102223+359945092+359472691+358663188+357838031+357247408+356800102
2728+356304862+355741001+355215945+354837608+354642052+354500297+354161738
2718+353568130+353029989+352827700+352724264+352238674+351360931+350558058
2708+350077465+349700204+349218397+348754118+348488761+348316080+347956659
2698+347371764+346842959+346552021+346341853+346062474+345852132+345857790
2688+345946126+345854353+345426659+344687374+343874192+343292385+342962156
2678+342602527+342088509+341662862+341567480+341702709+341754080+341491777
2668+340903307+340168430+339552018+339239386+339182462+339093536+338661884
2658+337842697+336924865+336284433+336065345+336095195+336109912+336003318
2648+335774511+335366115+334784447+334270846+334072097+334126210+334194484
2638+334154811+333967170+333533991+332817024+332002315+331383994+331102046
2628+331068169+331120650+331153555+331083892+330810171+330288759+329630452
2618+329050624+328671975+328389645+328008045+327509160+327089206+326926174
2608+326990630+327075669+326964459+326581956+326015526+325412582+324881139
2598+324458964+324148449+323969728+323913429+323826168+323501597+322971994
2588+322529652+322374082+322399941+322398414+322336665+322320317+322316221
2578+322102512+321602101+321075691+320802663+320740429+320673751+320515856
2568+320292047+319992952+319623431+319296777+319123193+319036696+318864258
2558+318578283+318357772+318344721+318437222+318406331+318165097+317819040
2548+317460002+317055007+316609159+316274799+316155328+316137973+316053802
2538+315866160+315600179+315250234+314860200+314555274+314402863+314325356
2528+314203385+314026782+313924075+314046913+314385681+314705012+314755272
2518+314555378+314355588+314315359+314361280+314377073+314362148+314348507
2508+314306196+314201442+314050627+313885235+313724008+313565523+313372675
2498+313118599+312882919+312802843+312864800+312859073+312648141+312378932
2488+312287784+312362167+312359494+312140302+311817222+311553601+311376407
2478+311251695+311208551+311276790+311368841+311329445+311092481+310732818
2468+310391099+310198945+310228692+310428412+310609424+310565343+310250073
2458+309840115+309588642+309589337+309692217+309688121+309570177+309539944
2448+309722622+309963092+310019218+309885550+309736680+309618146+309438279
2438+309205966+309023878+308910863+308842207+308864734+308999894+309132694
2428+309120858+308957895+308773100+308680633+308669803+308692955+308775703
2418+308912668+308981012+308943942+308986739+309247722+309562749+309684719
2408+309633626+309623456+309715472+309761150+309690099+309647198+309773819
2398+310009083+310178258+310190997+310119842+310110852+310220327+310360416
2388+310372217+310041189+309088474+307310635+304687508+301224160+296802682
2378+291378644+285277713+279113349+273340408+267969789+262778671+257695467
2368+252903426+248747096+245635793+243846865+243373960+244107813+246133775
2358+249752710+255228673+262697919+272283406+283449962+293974975+300756827
2348+301996454+298510475+293406428+289762571+288141899+287285347+286248738
2338+284921138+283584081+282488273+281602079+280797175+280215317+280168216
2328+280674059+281318482+281687708+281905391+282598772+284239801+286639380
2318+289149231+291232134+292809141+294148559+295488290+296844438+298189375
2308+299588737+300997436+302128109+302771005+303108870+303480370+303960511
2298+304409170+304789729+305197882+305679863+306197734+306665727+306944759
2288+306958990+306844135+306815014+306900296+306950000+306847780+306586900
2278+306206515+305774551+305391736+305122839+304941237+304769875+304552175
2268+304288484+304043814+303911258+303922781+304009105+304068111+304056726
2258+304024273+304065959+304216288+304395321+304504831+304533084+304512293
2248+304452835+304376543+304335134+304365262+304463734+304567343+304555819
2238+304390635+304235170+304281750+304490565+304650751+304641900+304504345
2228+304330552+304201640+304172276+304253913+304442873+304730757+305009303
2218+305053732+304753943+304312087+304066411+304156517+304453113+304736415
2208+304859530+304828187+304793582+304901321+305111906+305230752+305128740
2198+304880981+304669459+304590946+304622566+304756095+305021938+305333181
2188+305487709+305425405+305305066+305232522+305109476+304853595+304590182
2178+304503338+304618158+304833116+305067061+305273480+305397012+305419470
2168+305391910+305373653+305410653+305543175+305720994+305802493+305779584
2158+305852128+306130813+306451567+306619597+306640284+306608455+306563159
2148+306526332+306546915+306661457+306869334+307117857+307297272+307343818
2138+307347567+307445414+307614694+307696331+307632534+307569293+307679670
2128+307938884+308152071+308224580+308303962+308557482+308925858+309243765
2118+309485589+309729807+309981697+310171872+310261215+310289122+310362464
2108+310562774+310820425+310971830+310971517+310936946+311000500+311243018
2098+311708372+312329748+312897358+313237167+313371252+313409016+313372501
2088+313251919+313151538+313223492+313484892+313823347+314153438+314443404
2078+314624346+314615704+314453921+314302794+314311506+314495677+314770614
2068+315078559+315413960+315723572+315898788+315912671+315853908+315806494
2058+315803370+315879315+316053593+316285247+316516692+316732101+316950565
2048+317188883+317430498+317641499+317820116+317970583+318033096+317954061
2038+317816541+317765587+317811161+317822164+317724005+317627581+317731120
2028+318100884+318584809+318963632+319152662+319260575+319498858+319964525
2018+320432379+320501417+320077124+319532249+319281713+319399692+319697363
2008+319982019+320184516+320336892+320458550+320493850+320412525+320284584
1998+320203363+320295865+320776110+321677837+322570054+322929301+322762867
1988+322467000+322265197+322167454+322212195+322398865+322563563+322562938
1978+322472380+322477344+322631803+322812745+322963594+323308541+324096940
1968+325088392+325605083+325309077+324621128+324157890+324109158+324324775
1958+324679024+325118277+325524764+325741596+325729101+325640348+325717404
1948+326160995+327147900+328721957+330357589+331000554+330194036+328744380
1938+327674692+327206629+327060189+327075565+327264144+327608049+328005338
1928+328438412+329202202+330575636+332126090+333070753+333496018+334067828
1918+334531656+333947836+332489051+331468096+331655702+332580789+333248468
1908+333169190+332683287+332384297+332446462+332646495+332838683+333169503
1898+333824651+334651439+335238730+335606550+336386098+337765711+338814330
1888+338641822+337659603+336807511+336408764+336327057+336446910+336679188
1878+336936562+337230797+337712084+338794857+341085117+344595427+347849926
1868+348653910+346696761+344010115+342392776+342012356+342174589+342389860
1858+342561153+342685067+342746677+342813945+343152643+344136181+345957164
1848+348607156+351920419+354916364+355630728+353468235+350514670+348870222
1838+348804308+349435750+350195097+351546941+354120121+357227693+359094353
1828+359290950+359113930+358932571+357804640+355795773+354342264+354250317
1818+354912095+355425974+355816807+356799582+358523758+360063903+360455777
1808+359892714+359488692+360339708+362813791+366040070+368262854+368531959
1798+367831619+368009125+370223613+374072171+377031844+376377668+373099428
1788+370613196+370523124+371909991+373420667+374825375+376166979+376971102
1778+377316014+378457760+381593724+386312666+390172262+390971040+389381190
1768+387064343+384877067+383879541+385022953+387397071+388891538+389191744
1758+389430825+389710482+390087084+392116048+396865569+402399047+405016065
1748+403857971+401476216+400090322+400170432+401310407+402768151+403737181
1738+404689306+407562483+412902870+417084365+416068269+411840783+407804202
1728+404952442+403642874+404024162+405465384+407772512+412271810+420064760
1718+428934930+433149537+430364697+424672318+420197907+418458041+419652199
1708+423307805+427936605+431683463+434746294+439249619+445573474+450599633
1698+452171677+451215976+447837840+442988494+439941768+440437390+443592549
1688+448502221+455912773+465302063+470954665+468682628+463297743+460054559
1678+460461046+463806659+467795062+470545575+472968322+476125841+477893232
1668+475985093+472979325+472773842+475671836+478724463+479608384+479681274
1658+481907737+488353910+499542628+511569866+514933562+510677233+508854828
1648+511422974+513394493+510468315+505516782+502946692+503934395+508319845
1638+515650112+523380723+526035748+522207322+517658563+516543613+518583649
1628+521611424+524326080+527023243+529476500+530438761+530454624+532013512
1618+536008788+539721561+539854535+537689647+536374804+536892952+538488147
1608+540145160+541445808+542537189+543682232+544938069+546164715+547325828
1598+548668683+550395289+552247268+553744372+554806112+555767505+556845662
1588+557946936+558956194+559937788+561008795+562308818+564343370+567977247
1578+573278482+577862125+578423174+576359223+575959505+578400856+581260183
1568+581959170+581137554+580881846+582791235+588652547+600018146+613848352
1558+619253507+614027524+607690409+604429350+604019149+605506119+607744557
1548+610466433+614984266+622446188+632199029+642516669+650581084+651794054
1538+647141686+643945742+645461174+649409766+651911929+652820285+655290446
1528+660757801+667834930+674969677+682549196+690822426+697783554+702080285
1518+704934684+706737791+706782289+706325230+708218374+714174236+723773867
1508+733918582+737728196+732067229+724758377+722012482+723926591+728332450
1498+732456812+734158358+734022295+735067062+739372679+746039745+751431225
1488+752353119+749635546+746584759+745760609+747707553+751168194+754805508
1478+758730913+763753358+769869510+775528741+777823479+775696529+772462127
1468+771840126+774508689+778405007+781225321+783537899+787865244+795246223
1458+802832475+804546794+799653817+794101562+791103672+790608363+791854655
1448+793433605+793574944+791952467+789937075+788988802+790090978+793917738
1438+799806332+804372482+804433016+801998120+800768212+801154254+801212289
1428+800133299+799246532+799607931+800864497+802639836+805168378+807624516
1418+807628265+804726591+801551266+800162386+800215631+800191959+799701995
1408+799916293+801279835+802212210+801493786+800677272+802038661+805626895
1398+809484269+811896673+812475217+811683555+810677802+810799495+812304861
1388+813793982+813615643+812526726+813395791+817864822+824806929+831803809
1378+837483589+842039672+845751820+848022955+848503825+848234962+848654118
1368+850410159+853490171+857504920+861342995+863304449+862655860+860656226
1358+859205633+859028543+859311637+858894771+857648757+856283897+855301123
1348+854788042+854714040+854964437+855558808+856812875+858730872+860398055
1338+860628875+859311914+857531646+856470289+856630787+857819530+859470330
1328+860974169+861932577+862403242+862918545+863934571+865248963+866389112
1318+867482889+869056980+871097502+873043544+874617080+876008737+877331598
1308+878396982+879072158+879726161+880944476+882539255+883473852+883395338
1298+883295374+883851287+884477522+884616431+884423097+883784436+882148700
1288+879610577+876856282+874081646+870984765+867769592+865319077+864197186
1278+863949149+863666819+863084319+862732569+863142770+864314713+865800989
1268+866924685+867225758+867042074+867245890+868166950+869282108+870130972
1258+870900281+871826964+872727060+873531426+874644501+876340494+878407395
1248+880568708+882648313+884365409+885534159+886488888+887830840+889809578
1238+892146453+894296728+895908375+897156264+898804842+901641331+905450389
1228+908912557+911024581+912246090+913580753+914938949+915338112+914664741
1218+914293901+915675284+918928082+922946579+926404929+928682380+930327905
1208+932464434+935131816+936932424+937376085+938212245+940990282+944809823
1198+947806046+949752782+951828014+954529828+956980274+958045588+957808034
1188+957741738+959171784+961963496+964994776+967536578+969769601+971974925
1178+973632876+974011074+973593168+973801774+975237095+977486224+980364711
1168+983767942+986602556+987664677+987673632+988613783+990882973+992790973
1158+993303360+993856704+996256057+999683168+1001541255+1001098566+1000201872
1148+1000391665+1001487594+1002763319+1003777333+1004386421+1005059445
1140+1006476925+1008597350+1010834399+1012851388+1014868932+1017131389
1131+1019345461+1021031456+1022531199+1024785881+1027372528+1028188626
1123+1026513807+1024914932+1025860151+1027608902+1026488468+1022480870
1114+1019314430+1020100191+1024848914+1031011161+1035497755+1036877749
1105+1035768145+1033263413+1030845734+1031575335+1038345975+1049562530
1097+1058321004+1059315163+1055234119+1052117869+1051660046+1052000550
1088+1052705923+1053995810+1053704248+1050819027+1049073260+1052043451
1080+1057521844+1059891346+1057335591+1053768391+1053745691+1058342454
1071+1064994387+1069593094+1069674107+1066408813+1063333938+1062696249
1063+1064084989+1066631789+1069725269+1071671936+1071193704+1069875841
1054+1070488122+1072476510+1072426042+1069776501+1067263092+1066482121
1045+1066713011+1067177289+1067946251+1068400464+1067006656+1063799744
1037+1061590185+1062807112+1066510583+1069672649+1070635847+1070611481
1028+1070980516+1071173434+1069990591+1067289194+1063863610+1060874954
1020+1059805682+1061336803+1064084642+1065804376+1065165785+1061795875
1011+1056423278+1051424644+1049746007+1053109876+1060868151+1069373936
1003+1073741823+1072441037+1068556867+1065240619+1062405033+1059078650
994+1056062573+1054446066+1054890977+1057833053+1061898200+1063484648
985+1060012414+1053302169+1047554219+1044629498+1043015143+1040970595
977+1039035799+1038482177+1039094528+1040102155+1041706305+1043660260
968+1043619164+1039848564+1034554480+1031292797+1030692525+1030554032
960+1028814930+1025478620+1021978341+1019250772+1017022539+1014898644
951+1013033406+1011016834+1007534673+1002423926+997318039+993090797+989103816
941+985205970+982195516+980337637+978927446+977469077+976524622+977178833
931+979337577+981014618+980244545+977392785+974698815+973834818+974646959
921+975891723+976597860+976781059+976900252+977194383+978028530+979383533
911+979972559+978487394+975514358+972879464+971548897+970968201+970040060
901+968624454+967845773+968415987+969084429+967976838+965434203+964055667
891+965396647+967777117+968722266+968188221+967178719+965739649+963871010
881+962233955+961104289+960099647+959150125+958473213+958032259+957910983
871+958407126+959182266+959290838+958443988+957325012+956518563+956185626
861+956719811+958273562+959748106+959544567+957333828+954165305+951086334
851+948529121+947134966+947992576+951275017+955010698+956549177+955550783
841+954154406+953989118+955022153+956962086+959501735+961422856+961412026
831+959943800+958899311+959155470+959448699+957935003+954658879+951520485
821+949856009+949383955+949595824+951073144+954601955+959322216+963310724
811+965620525+966623917+967184065+967931229+969188766+970559666+970736964
801+968912337+966607881+966465016+968763293+970623394+969218756+965122994
791+961692274+961582035+964889605+969999519+974624258+976438125+974424885
781+970237976+967319919+967809397+970676569+972757146+971624217+968055768
771+964879748+963520580+962829160+961315047+959668967+959926514+962586330
761+965443297+966002889+964741047+964281905+965976926+969172869+972432054
751+973916733+972783734+970914470+970688718+972129454+973955816+975649171
741+977244018+978492948+979118419+978923558+977484211+974935883+972465931
731+971363060+972260865+974656608+976543018+975895263+973424478+972367008
721+974707840+979058441+982876593+984521839+983187246+979644204+976394391
711+975076666+974417527+972248161+968438340+964316476+960853892+958895910
701+959667301+962967235+965479256+963596247+957945763+952608083+949835114
691+948365568+947227641+947370784+948036589+945735326+939019388+930738106
681+924387662+921692721+922430999+924007520+923083752+918843598+912584719
671+905229565+899337361+902888316+921203590+942813590+952735538+947576961
661+933828253+921474951+915381291+912695374+909123523+905220262+904501699
651+908119576+914218164+920387839+923982598+922265017+915607669+908473685
641+905027484+905376943+906166175+904642482+902520184+903723366+908480141
631+912354107+911169460+904970421+897070669+891600051+889732453+888210704
621+883916055+878170327+874181333+873073603+874288586+876897795+879476944
611+881640686+885627390+893093824+901120961+906199774+909508802+913496616
601+916651949+914188036
##END=
