##TITLE=<SNM>
##JCAMP-DX=4.24
##DATA TYPE=INFRARED SPECTRUM
##DATE=3/5/2025
##SAMPLING PROCEDURE=Instrument type and / or accessory
##ORIGIN=Admin
##XUNITS=1/CM
##YUNITS=ABSORBANCE
##RESOLUTION=4
##FIRSTX=4497.3318
##LASTX=599.83466
##DELTAX=-1.4281778
##MAXY=1.755248
##MINY=0.19775283
##XFACTOR=1
##YFACTOR=1.634702e-09
##NPOINTS=2730
##FIRSTY=0.21801196
##XYDATA=(X++(Y..Y))
4497+133364953+133411679+134312110+135361908+135870035+135452981+134249714
4487+132882915+131856671+131330633+131525823+132618036+134152853+135259103
4477+135537136+135322000+135118688+135076027+134985811+134671134+134260480
4467+133904181+133434960+132712619+132102544+132050030+132394432+132617307
4457+132546798+132418752+132409655+132409290+132267061+132097831+132162150
4447+132434294+132528913+132211785+131706411+131322146+131049966+130702482
4437+130279887+129873115+129339830+128556780+127892240+127886497+128529934
4427+129335865+129913935+130035071+129521493+128556825+127768980+127607708
4417+127923916+128374378+128861949+129334288+129525568+129200262+128438752
4407+127523626+126756674+126408661+126575001+127078178+127626012+127937043
4397+127751542+127072682+126356320+126059737+126094094+126092243+126064423
4387+126379820+127094376+127635027+127379765+126389656+125227746+124224920
4377+123443975+123137739+123512387+124144229+124326603+123974088+123664552
4367+123827966+124260434+124415844+123998098+123213215+122488914+122112343
4357+122169069+122581163+123067868+123298610+123218147+123041798+122929294
4347+122847783+122685974+122350659+121866716+121459909+121372527+121563142
4337+121738862+121751906+121813992+122176188+122671425+122813317+122446327
4327+122025071+121985245+122122525+122028052+121874665+122158158+122805423
4317+123230061+123265566+123338454+123612730+123645163+123147502+122542732
4307+122407896+122737877+123093137+123250151+123427722+123896697+124461331
4297+124434258+123375873+121841968+120971791+121256432+122188986+123113592
4287+123743183+123880800+123424376+122693594+122108834+121680896+121370850
4277+121587490+122650669+124079053+125018645+125175377+124915174+124643404
4267+124452452+124342328+124468587+124882614+125173043+124860928+124126490
4257+123623824+123665409+124060859+124543434+124958236+125262430+125600370
4247+126174310+126925083+127564728+127906414+128000104+128018508+128066948
4237+128001817+127492770+126455123+125357851+124857227+125147611+125891228
4227+126703293+127388161+127784276+127830974+127819161+128133573+128666986
4217+128861311+128456062+127881757+127738424+128046301+128230034+127867765
4207+127289777+127264618+128088770+129183545+129798824+129948492+130216898
4197+130763611+131070038+130681635+129745863+128835669+128527519+128949239
4187+129609075+129959184+130017870+130040002+129923050+129471404+128919833
4177+128731324+129069728+129676093+130151868+130369474+130598410+131063922
4167+131573370+131892149+132174046+132593460+132911200+132888876+132775224
4157+132871612+132947553+132619030+132037642+131666822+131590516+131550763
4147+131471659+131447165+131386657+131150583+130894619+130908903+131246405
4137+131749855+132249477+132562212+132522031+132247007+132176991+132553607
4127+133083146+133368717+133332565+132994343+132335637+131603615+131224628
4117+131293405+131594026+132002866+132458013+132803628+132982274+133099007
4107+133226652+133391397+133576825+133586961+133293441+133011061+133105261
4097+133388079+133454613+133368635+133485761+133812424+134000067+133889979
4087+133698699+133628382+133597435+133502615+133453173+133488896+133371698
4077+132974097+132544720+132330587+132338718+132579094+133045991+133459772
4067+133549077+133471677+133511120+133617279+133582011+133385535+133170181
4057+133064879+133031516+132847145+132408406+131901747+131475351+131123756
4047+131052117+131579450+132507109+133134685+133021744+132336166+131539743
4037+131039957+131010760+131368480+131951263+132670815+133430593+134066574
4027+134464950+134638983+134733785+134967835+135423511+135910808+136160966
4017+136060795+135579705+134693713+133581565+132671808+132327798+132628783
4007+133406884+134287307+134866133+135090694+135243953+135427540+135436218
3997+135234500+135060968+134933834+134572622+133964635+133542322+133669448
3987+134292977+135117630+135855824+136312921+136429965+136328946+136300059
3977+136626668+137258401+137735043+137672237+137214073+136760439+136462224
3967+136312393+136488432+137165824+138121441+138924564+139466080+139933588
3957+140310041+140291564+139832679+139535285+140203189+141823418+143212851
3947+143332784+142733229+142610334+142884939+142500765+141312949+140243616
3937+139930370+140522742+142125251+144346704+145918457+145898193+144953068
3927+144442936+144757376+145204374+145313314+145608283+146658199+147965128
3917+148288127+146970588+144626176+142457959+141294709+141341954+142666358
3907+145613679+150297690+155641071+159569697+160729428+159210272+155785078
3897+151871156+149473145+149892961+152396183+154258320+153687451+152724314
3887+154054260+156740695+157846335+157474950+157714725+157874757+156217537
3878+154304991+154813783+157721379+161325656+164676577+166800019+166242003
3868+163959404+162506226+162159088+161072847+158586898+156338427+156247819
3858+159452490+166507830+176057925+181561056+177107978+167961282+160767130
3848+157430230+157641454+160329439+164227145+168544092+172913143+176254802
3838+176761443+174345210+171167849+168668774+166632950+164902478+164096629
3828+164346850+165162398+167172972+171724698+177405454+179829782+178462727
3818+177019868+175929214+172732820+167966642+164827548+165204967+168735080
3808+172934546+175302120+177025300+180630562+184660388+185315047+183414260
3798+182393048+182274619+181447294+180462344+181036494+183480748+186987635
3788+191092993+195748052+200686350+205966315+212508141+220735319+229418035
3778+237371090+245373679+254783121+265960920+278250539+289605470+297342469
3768+301169201+303138154+304855664+307427408+311854561+317806231+323689315
3758+329084537+335971860+346932217+363324258+383617450+402028725+414073136
3748+423004013+433571637+445422981+453976440+459016630+465761496+477178650
3738+492360806+507970808+520423339+528663187+534740250+541564749+550509883
3728+560922360+570423541+576192134+577164651+573941403+567951594+562144350
3718+559469601+560107615+561939543+562660982+560630299+555870757+550533328
3708+546398527+544048218+544081289+546309560+548557484+548903946+548395155
3698+549132965+552112792+557487194+564944310+573640591+581679387+585788554
3688+584265569+580083004+577114771+576528315+577541049+579343516+582580693
3678+588194942+593536674+593221168+588514824+585714901+585745164+583506903
3668+576434133+567908095+561317937+557602341+556695602+558683661+563201787
3658+567840822+569154587+567674044+568189144+573574412+581174350+583408419
3648+576268158+566005722+559642577+558671300+561081153+564079247+566125755
3638+567417424+568884367+571448344+575932488+582586162+589895498+593919125
3628+592076805+587744162+585457697+586954247+592255798+599399376+604327956
3618+605478299+606180777+608793723+611617384+612722732+613084363+614160286
3608+615396934+615958888+616491380+618050426+620775310+623898579+626773031
3598+629679351+633273930+637333618+640476139+641816413+642086013+642217496
3588+642332351+642867542+644522920+646187123+645821043+643566957+641478263
3578+640509757+640173869+640266337+640993755+642528225+645243703+648893047
3568+651216630+649535436+644272426+637933565+632288870+628774800+628852829
3558+632348011+636575790+638200322+636200522+632998276+632284494+635205253
3548+638895216+639375203+635789303+630410270+625603182+622771536+622288778
3538+622938241+622873922+621683800+620411054+619923993+620175946+620369050
3528+619685313+618469594+617953364+618578543+619317556+618771864+616247667
3518+612118117+608005194+605674319+605578424+606980026+608831644+609934622
3508+609175007+606569609+603324082+600616007+599048866+598847158+599433396
3498+599101481+596566892+593074481+591425994+592529045+594174979+593884194
3488+592065648+590954101+591110451+591151799+590697590+590963727+592090843
3478+592262944+590369176+587904814+586939626+587313216+587161352+585524642
3468+583078400+580708365+579022868+578803148+580351838+582667874+584218205
3458+584207412+582813139+581017381+580089275+580387061+580966298+580694436
3448+579232270+576865407+574131990+571669377+569853092+568758245+568485946
3438+569007973+569756941+569917010+569211359+568154031+567564658+567889754
3428+568725866+568988138+568042056+566606508+565767004+565424188+564796165
3418+563825034+562911695+562118754+561478370+561029668+560295468+558913299
3408+557333470+556072465+555127441+554573108+554871587+555987035+556798316
3398+556012667+553559316+550717571+548731517+547859818+547977080+548947810
3388+549939725+549640189+547742155+545140403+542815690+541551732+541761498
3378+542664518+542893974+542497522+542880921+544407150+545537110+544934392
3368+543146364+541662066+541399612+542386239+543946780+544847211+544177111
3358+542351126+540538049+539373778+538961720+539497166+540829928+541841970
3348+541468124+540327772+540217001+541812363+543827768+544744571+544435117
3338+543492536+542159372+540725319+539855661+539706677+539470294+538628420
3328+537850283+537648028+537114989+535234347+532649113+530798735+529968639
3318+529459154+529199690+529845215+531328273+532526491+532646779+532006286
3308+531230446+530634436+530444287+530786046+531405573+531829044+531715027
3298+531114278+530637317+530916398+531718053+532332767+532745883+533357753
3288+533914165+533788844+532935085+531953999+531477331+531545405+531497567
3278+530778170+529710961+529100732+529419338+530509299+531557547+531496145
3268+530069821+528312203+527471424+527740149+528240664+528043185+527223299
3258+526697589+526816893+526795125+525943516+524656222+523721189+523462673
3248+523797723+524423303+524841085+524700816+524091352+523262569+522386640
3238+521816336+521965065+522401772+521886490+520074032+518180994+517281109
3228+517144778+517229443+517420869+517356258+516461296+514936123+513532661
3218+512385272+511105781+509971409+509966159+511297535+512548732+512070240
3208+510005647+507974891+506958401+506495041+505773274+504638574+503463110
3198+502536316+501779801+501013222+500307936+499831449+499508468+499152124
3188+498701088+498029056+496903216+495413557+493952886+492529625+490690113
3178+488353331+486104459+484435844+483292102+482587180+482586086+483399847
3168+484394424+484501221+483250681+481290807+479648482+478691316+478031753
3158+477191266+476000451+474487493+472852569+471529324+470738133+470038316
3148+468953642+467878521+467508796+467602649+467313505+466506963+465710449
3138+465126363+464640433+464255904+463799289+462843253+461386593+459919942
3128+458646394+457409527+456410904+456081943+456198403+455968983+455076720
3118+453962475+453093474+452538484+452161284+451742517+451042883+450068616
3108+449112215+448402845+447916259+447539350+447207217+446898566+446639101
3098+446458760+446253041+445793947+444986822+443992319+442975282+441936732
3088+441027295+440720503+441222075+441931445+441981508+441173836+439963149
3078+438759718+437677304+436724732+435907690+435279630+434931308+434718479
3068+434174027+433025544+431648116+430665098+430205056+429821621+429125706
3058+428288354+427790829+427763519+427795532+427408451+426505686+425346265
3048+424281681+423537125+423122150+422855066+422402462+421448504+420083254
3038+418864546+418220078+417976366+417684377+417194947+416722799+416436754
3028+416118805+415403856+414344742+413369928+412652099+411970440+411181146
3018+410348388+409480226+408550479+407654278+406876250+406219349+405809989
3008+405850826+406203670+406321625+405772324+404618444+403266977+402156196
2998+401461375+400926111+400227935+399508247+399077156+398745168+398059754
2988+397008406+395940833+395063336+394361842+393719708+393006291+392295572
2978+391841255+391646146+391345407+390670640+389798321+389123225+388821100
2968+388705771+388415423+387615263+386174281+384441639+383137864+382667576
2958+382801684+383120654+383280285+382896340+381823589+380471611+379335343
2948+378446835+377629720+376940987+376551682+376412943+376271543+375953011
2938+375484837+374948808+374358961+373702279+372964031+372146077+371353282
2928+370689709+370000940+369020948+367827362+366823160+366272582+366106570
2918+366077911+365940960+365632855+365342471+365231298+365114838+364621032
2908+363691285+362745495+362213149+362012680+361688861+361021605+360273257
2898+359816533+359723664+359754766+359592072+359029280+358025551+356735960
2888+355530196+354780681+354471227+354172530+353580677+352875355+352369115
2878+352049379+351681404+351190041+350739406+350494855+350415696+350265508
2868+349809951+349050045+348261406+347739378+347481190+347187817+346614377
2858+345847543+345218791+345022443+345283292+345694876+345802330+345301961
2848+344205656+342837963+341694293+341105394+340978068+341005269+341027000
2838+340968333+340677803+340145894+339604031+339131045+338479358+337529958
2828+336609765+336123616+336070381+336069725+335746197+335011157+334072806
2818+333257805+332770818+332554597+332374074+332028705+331485748+330839275
2808+330148683+329358513+328463442+327655661+327065303+326478410+325674639
2798+324909045+324612572+324714994+324685970+324180934+323326226+322447344
2788+321757445+321240886+320729579+320135320+319566584+319134508+318732003
2778+318127024+317225135+316169667+315212500+314499156+313939646+313315889
2768+312559920+311852920+311378439+311077591+310761574+310342916+309790370
2758+308990793+307938716+306980565+306505719+306380545+306048631+305242381
2748+304254422+303475155+303000382+302699351+302393161+301982142+301509976
2738+301005778+300340473+299481645+298729633+298393252+298378120+298318085
2728+297962653+297293701+296412777+295453587+294550622+293786085+293136276
2718+292525408+291953300+291450069+290895699+290133240+289318823+288837469
2708+288769777+288751236+288478737+288064072+287742987+287490760+287106596
2698+286512100+285811590+285147123+284584021+284083342+283557850+282995186
2688+282494561+282149429+281937621+281729021+281388083+280916573+280448692
2678+280025039+279514989+278890357+278347619+277986790+277620601+277089094
2668+276548251+276262881+276227130+276155846+275858972+275467807+275166904
2658+274872764+274394327+273731209+272987164+272221022+271573401+271242070
2648+271158827+270976225+270502801+269916655+269478982+269243328+269115474
2638+269039414+268994383+268877103+268559372+268082849+267637592+267336525
2628+267154488+267040234+266925798+266691237+266282479+265812501+265441718
2618+265204332+265008877+264769740+264497295+264256901+264077726+263940373
2608+263817733+263663025+263404928+263041073+262730963+262707846+263022039
2598+263394281+263447388+263115401+262690599+262438245+262330135+262203502
2588+262022431+261882344+261829328+261780560+261643025+261419768+261146430
2578+260850595+260642196+260664638+260859655+260958012+260781681+260396350
2568+259962305+259641804+259636316+260061318+260733241+261293700+261612087
2558+261857841+262122666+262229791+262013844+261557029+261044518+260553976
2548+260061318+259552891+259079358+258703197+258403934+258093131+257742329
2538+257419148+257172974+256963262+256734572+256506739+256330864+256172473
2528+255939298+255662113+255527331+255647692+255893118+256028393+255967665
2518+255842527+255835217+255968905+256091144+256057581+255869090+255629917
2508+255442174+255332623+255219481+254989497+254672240+254474452+254553629
2498+254798782+254913182+254710726+254283919+253867631+253574695+253330144
2488+253073943+252890739+252826566+252717180+252375238+251845244+251313955
2478+250881368+250539482+250242407+249897840+249418455+248859455+248405137
2468+248182864+248159838+248210229+248212143+248100587+247881469+247601057
2458+247313717+247074563+246889864+246677199+246366906+246017381+245726231
2448+245492582+245261649+245030881+244849063+244763614+244763231+244739804
2438+244581796+244330116+244153658+244154478+244255387+244284739+244162737
2428+243980645+243840594+243687180+243436248+243189272+243138955+243312241
2418+243551231+243709404+243768071+243786576+243816894+243880411+243978257
2408+244079713+244132747+244136430+244166511+244271412+244377936+244371683
2398+244259963+244172673+244190248+244263500+244346378+244512645+244837468
2388+245210566+245374718+245158753+244569727+243639779+242347818+240777962
2378+239179063+237732594+236405392+235145280+234060989+233275851+232707571
2368+232132090+231504450+231108180+231227666+231797040+232640463+233937456
2358+236116940+239330617+243423760+248474871+254647191+261193557+266507104
2348+269427698+270149538+269992533+270026096+269936490+268888406+266759075
2338+263971895+260894969+257731409+254672113+251940100+249687563+247907958
2328+246466576+245190913+244013425+243076695+242552079+242356259+242234367
2318+242038274+241766449+241502810+241424161+241697864+242313015+243091718
2308+243819301+244331483+244583327+244679004+244772091+244913874+245007345
2298+244910337+244616726+244349277+244389950+244754754+245126576+245215908
2288+245093778+245023406+245080214+245132610+245083168+244926818+244670380
2278+244362695+244120569+244004929+243943399+243827796+243609990+243292259
2268+242928787+242646735+242559226+242642833+242766476+242817924+242758418
2258+242617492+242450733+242247256+241936289+241545452+241225789+241070187
2248+241048091+241112246+241214540+241259133+241184660+241065611+241054928
2238+241248213+241627291+242098509+242548506+242892690+243147651+243438071
2228+243844915+244292487+244684291+245070770+245577922+246248478+247034181
2218+247888250+248801735+249786321+250887348+252179163+253652669+255157423
2208+256580064+258000627+259551195+261227321+262925105+264578022+266227093
2198+267950875+269703534+271341849+272838380+274268806+275642479+276959781
2188+278267749+279516210+280609490+281581642+282468491+283180340+283688056
2178+284099677+284487998+284809430+284935552+284733935+284230029+283607603
2168+282983864+282306380+281465000+280426450+279275360+278086222+276814169
2158+275420333+273965569+272527887+271222909+270184360+269375011+268687773
2148+268164068+267858461+268029195+269680946+273948322+280706333+288689962
2138+296938196+305275197+313688495+322083562+330452412+338915189+347658761
2128+356724402+365918645+375152340+384518173+393820161+402489168+410026428
2118+416188666+420938072+424477410+427220197+429750885+432906532+437754093
2108+445249641+455675208+468348007+481912158+494717022+505122608+512196253
2098+516010807+516894283+515183847+511652020+506966168+501033604+493466737
2088+483933616+472104659+457933196+441613787+423473463+404481930+386022818
2078+368916667+353491491+340074793+328686262+319032779+311042551+304648796
2068+299423087+295029880+291389833+288255862+285368229+282766167+280520832
2058+278678202+277397563+276646827+276222554+276260256+277097607+278849392
2048+281647182+285834743+291761929+299872774+310731456+324596893+341402049
2038+361044685+383003502+405936877+428161575+448149798+464682036+477227436
2028+485932358+491122881+493322165+493332302+491896935+489565586+486544775
2018+482467220+476880864+469875294+461778050+452689620+442598956+431554627
2008+419671926+407156169+394307477+381533314+369294560+357845174+347110006
1998+337030719+327936565+320297722+314067846+308537496+303057901+297663044
1988+292721447+288419377+284826038+281970984+279684337+277703261+275930110
1978+274375731+273002952+271753542+270607575+269648987+269095347+269029514
1968+269071227+268617438+267507842+266186456+265157678+264575689+264381820
1958+264511771+264814953+265020982+264968294+264734536+264502655+264424116
1948+264613354+265191059+266179000+267164387+267328102+266331539+264862299
1938+263790350+263323909+263227120+263294666+263414244+263503776+263541697
1928+263668293+264234404+265418255+266763523+267698502+268432302+269371729
1918+269954412+269336434+267988467+267233939+267637720+268689432+269570630
1908+269862035+269713251+269537121+269565653+269718702+269869418+270131800
1898+270761390+271698302+272453249+272829283+273362632+274375932+275119722
1888+274747644+273620364+272653700+272161808+271984985+272009159+272164342
1878+272331721+272433049+272561998+273214778+275192883+278627666+281922398
1868+282624840+280334620+277199154+275143659+274436149+274431828+274539646
1858+274511315+274391701+274377044+274605679+275144589+276096541+277616755
1848+279977675+283283947+286421327+287063935+284658075+281657519+280211160
1838+280286782+280764216+281185481+282374492+285223912+288934185+291226337
1828+291250803+290448783+289695349+288432940+286663326+285452402+285397928
1818+286035504+286687573+287335997+288485774+290241788+291810843+292307183
1808+291895034+291615479+292422002+294623820+297665724+300245453+301288815
1798+301169384+301533567+303818299+307727527+310593885+309813304+306657766
1788+304432722+304490186+305990145+307829876+309725139+311470907+312593684
1778+313396798+315302015+319551306+325554934+330241042+330808136+328278944
1768+325222510+323023080+322620466+324537460+327575845+329594715+330395860
1758+331271314+332387455+333577796+336073808+341008587+347026618+350957340
1748+351627841+350824144+350485119+351382561+353444127+355792759+357246575
1738+358356445+361471547+367143552+371293156+369838684+365306045+361256056
1728+358427655+356976464+357102696+358416389+360935882+365918681+374119004
1718+383005033+387054439+384506323+379496214+375749589+374528364+376076252
1708+380059225+384983721+388988315+392531956+397945518+405228200+410470172
1698+411461247+409792779+405972683+401054349+398197398+398939110+402363666
1688+407751704+415962929+426202285+432131239+429498567+423854273+420877617
1678+422021178+426309228+431151758+434621854+437905958+442283341+445507245
1668+444990723+443248893+444274863+448263815+451996986+453141786+453497255
1658+456524155+464521639+478047687+492971983+498751880+495870063+495364078
1648+499867255+504176563+503203244+499603452+498276305+500869197+507525606
1638+517890318+529139746+534966606+533363077+530700542+532054197+537676213
1628+545471479+553766311+562485781+571309424+578738537+584918970+592643317
1618+603676379+615084381+621374455+622600310+622798008+623648522+624527186
1608+624885098+625210267+626361593+628827232+632649917+637669507+643730307
1598+650757353+658545436+666359698+673176504+678658943+683312161+687562109
1588+691458302+695111365+698668971+702122368+705676910+710155184+716749352
1578+725866259+735145713+740454301+742784447+747489223+756796899+768160162
1568+778027021+786942439+797491795+810327324+825463246+844526864+867197821
1558+883969141+888710597+888888241+888960946+888344007+886497786+884051253
1548+882450859+883352931+887029112+891880830+895487440+894054043+884271266
1538+871426183+863204275+859931730+857569862+852857283+846866709+842770412
1528+842086092+844478807+848804085+853593963+856695428+856485771+854588576
1518+853424050+852423093+850071507+847119755+845952823+848522306+855243727
1508+863145279+864319723+855459364+845568658+841134285+841812334+844929040
1498+847120047+845866554+842212980+839930162+841140046+844495798+846290535
1488+844128989+839650206+835851221+834081935+833975174+834675975+835992840
1478+838369511+842155734+847133757+851586725+852039293+847486710+842093530
1468+839851695+840980415+842674444+842132763+840480083+841428024+846557583
1458+852455398+852151961+845310434+838834768+835914592+835686485+836184412
1448+835382173+832709721+829773939+828001372+826984590+826151140+826199124
1438+827430084+827911310+825799135+822661281+820773420+820146563+819591683
1428+818871995+818796372+819484266+820107841+820447230+821073284+821395244
1418+819588329+815808232+812221529+809895394+808378498+806946997+805481075
1408+804458314+804033531+803399236+801954754+800699729+801112115+803391069
1398+806536142+809208813+809853317+807459727+803487693+800987415+801182268
1388+802111468+800966778+798352884+797957197+801715271+808111158+814729173
1378+820783775+826618656+831797075+834925595+835703331+835981026+837648583
1368+840663268+843908977+846988492+849851714+851397925+850403458+847684189
1358+845418726+844590964+844204393+842999394+841340880+840710742+841890582
1348+844300580+846594410+847736475+848105982+849234556+851855743+854827913
1338+856742902+857845734+859243034+861266534+863492544+865662986+868057087
1328+871052739+874619606+878518205+882818908+887729476+893029969+898221222
1318+903062876+907446202+911085920+914111325+917462920+921633162+925584996
1308+928077762+929469083+931056131+933364765+936037509+938568342+940356297
1298+940854296+940180914+938816284+936872709+934389349+931843931+929756477
1288+928189336+926918195+925676370+924210375+922480614+920666552+918921112
1278+917333844+916094571+915483248+915661912+916409822+917005175+916841825
1268+916522490+917577776+920513849+923907083+926090287+927028311+927714163
1258+928719787+930247184+932305395+933990673+933893684+931852463+929249654
1248+927296672+925964201+924442784+921783896+917654857+913076167+909623134
1238+907691665+906315659+904552644+902390369+900512280+899463922+898762392
1228+897182490+894565898+892570547+892710415+894362075+895626726+895834341
1218+895984054+896722776+897502846+898085802+899240045+901327208+903641894
1208+905656060+907614438+909647054+911476721+913099430+914948787+917250200
1198+919530175+921120942+922132984+923362850+925176766+927078920+928374126
1188+929011775+929908013+932189519+935861178+939713033+942704309+944656635
1178+945763697+946573593+947974903+950090871+951931915+952916902+953850768
1168+955774581+958469931+960740206+962161353+963637557+965885153+968381055
1158+970323974+971824972+973629918+976182483+979241360+982210759+984705131
1148+986735194+988502219+990286528+992604787+996018513+1000150178+1003223494
1138+1003705961+1002287440+1000978232+1000731092+1001209329+1002082596
1130+1003107691+1003868582+1004560049+1005855328+1007734365+1009775075
1121+1011995616+1014503915+1017302016+1020725587+1024871982+1028186459
1113+1028600376+1026243102+1023466879+1022405249+1023280850+1025237259
1104+1027826942+1030614177+1032419925+1032783525+1033452532+1035870478
1095+1038131128+1037888509+1036432578+1036363738+1037911261+1040062306
1087+1043319464+1048999308+1056478338+1062748213+1065328197+1063824501
1078+1059203077+1053991260+1051400410+1052855174+1056453398+1058737019
1070+1058186806+1056240679+1054918199+1054860297+1055876204+1057892192
1061+1060559540+1062213314+1061441703+1059962947+1061145412+1065626676
1053+1070559704+1073262784+1073741823+1073012581+1071433846+1069613075
1044+1068403993+1067640768+1066917798+1066726664+1067710848+1069265154
1035+1070054485+1069815075+1069230661+1068529422+1067754676+1067105651
1027+1066659501+1066654177+1066857271+1066018351+1063164099+1059743956
1018+1058454656+1059806743+1061997385+1063460390+1063982308+1064179495
1010+1064760701+1065976128+1067470417+1068550716+1068275792+1065872430
1001+1061971862+1058379982+1056083600+1054634815+1053486770+1052536787
993+1050958489+1047506769+1042825913+1039297331+1037934524+1037051412
984+1034569365+1030444118+1026098640+1023017448+1022665443+1025894817
975+1031272901+1035061749+1034338852+1029564653+1023006509+1016254825
967+1010246748+1005952171+1003521462+1001715787+999475921+996971414+994371740
957+990988642+986391721+981768037+979064446+978694356+978895262+977873594
947+976145948+975503267+975831426+974718020+971176093+967751136+967329853
937+969640091+971971550+972283446+970605169+968332561+966915717+966307529
927+965078028+962973363+961748091+962480250+964159037+965468172+965884569
917+965106468+963337547+961367063+959444490+957419531+955752704+954996115
907+954952507+955142474+955205627+954749559+953627912+952129904+950662670
897+949763369+949918405+950645168+950635031+949441846+948137962+948029524
887+949345732+950958158+951214997+949440898+946385448+943094235+940191269
877+938327255+938111837+939362413+941402175+943801234+945813358+946296772
867+945262051+944105693+943384035+941834761+939029296+937100451+937952424
857+940528398+942217321+941819593+940043014+938108774+936885762+936862718
847+937977000+939443724+940358047+940312469+939180832+937214359+935672158
837+936067480+938385813+940939252+941844606+940222627+936785565+933700799
827+933024865+934736323+937172938+939493166+942327802+945694492+947899354
817+947522847+945395138+943627237+943531196+945279043+948536711+952602161
807+956557422+959574295+960826840+959822747+957392695+954777416+952190285
797+949894341+949337054+951827050+956116158+958523312+956728210+952906036
787+951156220+952541707+954696251+955466549+954958122+954389168+954912034
777+956741118+958273984+957377090+954088720+950498153+948159620+947298240
767+947737900+948875736+949583756+949521917+949730261+950788755+951702787
757+951696297+951572326+952171762+952762302+952196484+951383452+952828007
747+957200686+961811754+963345641+961579272+959442375+959595005+962033006
737+965262088+968365887+970502273+969690190+964485081+956833367+951138062
727+950070744+952328549+954392376+954345486+953535590+953702368+953572927
717+951142729+948159620+948308459+951701401+954486959+953951914+951077316
707+947838316+945402212+944745675+946047007+947697281+947804407+945883365
697+941678266+935142291+929569208+930237849+937330235+943750042+942852345
687+935388848+926184651+918631530+914173676+913103951+913948632+914399303
677+913847486+913458581+913627109+912497295+907255432+897237329+888000826
667+888446904+896793512+903977126+906373633+905256143+902714080+899889945
657+896247529+891126502+885173848+879866573+876208332+873718919+871852279
647+871847393+875003989+879816547+883698082+886027571+886695338+885179099
637+883349504+883597738+883653452+879944310+875114032+874203719+876830812
627+878692712+877376504+874149682+871029111+867585705+862007079+855181522
617+850210865+847580199+846330497+848324244+855372000+864016140+867889361
607+864947746+859090404+854958156+854047041+855468625+857730951
##END=
