##TITLE=<SNM>
##JCAMP-DX=4.24
##DATA TYPE=INFRARED SPECTRUM
##DATE=2/5/2025
##SAMPLING PROCEDURE=Instrument type and / or accessory
##ORIGIN=Admin
##XUNITS=1/CM
##YUNITS=ABSORBANCE
##RESOLUTION=4
##FIRSTX=4497.3318
##LASTX=599.83466
##DELTAX=-1.4281778
##MAXY=1.8493358
##MINY=0.38437498
##XFACTOR=1
##YFACTOR=1.7223282e-09
##NPOINTS=2730
##FIRSTY=0.4047204
##XYDATA=(X++(Y..Y))
4497+234984484+235700451+236495686+236760689+235794980+233897408+232349159
4487+232103207+232868472+233791182+234524522+235063284+235029611+233974339
4477+232259648+230920131+230561741+230987442+231905411+233120619+233980344
4467+233743216+232663685+231767623+231637206+232186852+233175661+234207833
4457+234656790+234200167+233331583+232974837+233479009+234276926+234781410
4447+235081487+235227840+234706278+233369980+232055657+231653645+232253817
4437+233399586+234378324+234260557+232580645+230128011+228367414+227954829
4427+228327668+228777386+229262472+229978198+230811085+231427315+231427557
4417+230600449+229456376+229053394+229878772+231300532+232349142+232633421
4407+232343414+231702908+230778243+229935804+229984531+231202802+232574883
4397+232728002+231489417+229976121+229353351+229864410+230789923+231090952
4387+230282462+228853383+227777537+227595037+228023334+228433998+228451976
4377+227928493+226881700+225793915+225381001+225778134+226443298+226933922
4367+227241821+227361890+227146322+226643829+226038500+225273702+224282782
4357+223518123+223676882+224877538+226473649+227695830+228295864+228508039
4347+228468466+227920066+226713804+225338815+224462098+224110231+223876426
4337+223731284+223996201+224646848+225220061+225421214+225364597+225267836
4327+225305350+225516937+225533670+224869769+223778592+223171741+223465451
4317+224164720+224643768+224677925+224291797+223683700+223273918+223478065
4307+224346563+225453503+226253081+226575151+226643777+226658606+226581917
4297+226258306+225586325+224755427+224269995+224456128+225082965+225658099
4287+225824507+225486829+224932875+224699918+224985841+225396021+225472744
4277+225189122+224794758+224431211+224042488+223634939+223448286+223655374
4267+224066834+224417922+224682597+224854230+224838917+224775811+224958795
4257+225316182+225474371+225360912+225302270+225558189+226043103+226409349
4247+226319924+225755224+225074539+224675018+224672284+225072601+226001868
4237+227330864+228306056+228182249+227143865+226074387+225548326+225406351
4227+225132730+224496342+223903160+223975004+224764321+225654120+225989825
4217+225599717+224915883+224719886+225432410+226692486+227875838+228577254
4207+228510548+227710105+226803332+226378860+226332971+226349184+226575705
4197+227353099+228533908+229439159+229527389+228878560+227895945+226868947
4187+226023394+225601188+225608023+225839354+226222782+226752546+227272067
4177+227691885+228137277+228601478+228767160+228453326+227982791+227804323
4167+227920724+227995890+227945987+227974122+228027988+227798076+227302452
4157+226892082+226580498+225925733+224802112+223908870+224160671+225666180
4147+227557610+228828414+229127021+228711788+227957494+227094827+226258722
4137+225599839+225296006+225460217+226036943+226817556+227630648+228376342
4127+228791471+228593294+227976701+227464188+227189893+226882790+226602594
4117+226760091+227306882+227639403+227486336+227331401+227645252+228128470
4107+228136308+227598307+227074651+227037743+227426138+227823391+227918319
4097+227763487+227536205+227210017+226751058+226380798+226277738+226287169
4087+226200582+226106520+226217003+226498998+226646043+226414972+225954907
4077+225678137+225781750+226102142+226418381+226575774+226350482+225638408
4067+224906850+224977172+226003599+227060791+227194980+226548711+225916493
4057+225572603+225165071+224544221+224092322+224183598+224732137+225437324
4047+226215619+227146565+228103570+228697513+228597845+227851648+226934112
4037+226381853+226262909+226198765+226010139+226031405+226589755+227504176
4027+228371913+229052391+229598922+229952000+229958852+229575372+228957273
4017+228450903+228323999+228348934+228018039+227372687+227116751+227661881
4007+228573983+229203381+229394291+229408272+229531940+229892528+230469790
3997+231110574+231508018+231382706+230839618+230389277+230496663+231249227
3987+232431143+233623043+234265056+234009552+233104405+232242189+232014890
3977+232491480+233212397+233602002+233467502+233107883+232944538+233075595
3967+233283722+233502507+233973561+234754451+235485195+235910792+236172127
3957+236381794+236422907+236280932+236208395+236531175+237322395+238144364
3947+238446345+238401719+238638345+239045496+238768813+237580720+236411885
3937+236367207+237757215+239926885+241748495+242401806+241918017+241076669
3927+240762593+241205268+241727488+241683036+241500743+242016993+243133848
3917+243727497+242804684+240559103+238204252+236926093+237103973+238545408
3907+241307982+245708801+251270097+256244199+258863915+258381667+254979935
3897+250200256+246691260+246225986+248033181+249099822+247672819+246275491
3887+248094436+252466445+255785379+256605219+256318362+255025928+252309554
3878+250258136+251009126+253859083+256937360+259563254+261117559+260424934
3868+258600054+258293574+259704070+260294587+258545790+256044309+255092027
3858+256933899+262211885+270292105+275856689+272882250+265000415+258446641
3848+255550363+256146901+259017917+262675100+266217007+269485364+271848781
3838+271831010+269306809+266192384+263869440+262255576+261245501+261313833
3828+262395354+263820817+266028936+270199791+274856754+275788253+272901457
3818+270441209+269351469+267101563+263486133+261256264+262360540+266491597
3808+271135046+273738584+275437079+279069483+283775830+285523969+283919259
3798+281941831+280179694+277676464+275207755+274542903+276114407+279091667
3788+282812181+287037300+291257418+295239786+299940977+306070815+312173209
3778+316430737+319822467+324954585+333501480+345729006+360261081+374029450
3768+384781781+392993923+400102378+407250942+415266863+423425018+429008203
3758+430395563+429785719+430997380+436694041+446855458+457254452+463471084
3748+467670888+474063877+481744386+485786071+486463642+489723139+499464253
3738+515287240+532428962+544150083+548268803+548709869+549780749+553105514
3728+558463131+564369061+568911994+571620650+572892147+572252056+569680062
3718+567091422+567131324+571279702+578288523+583315574+581626751+574566608
3708+567047575+562307555+561251211+562831021+564519844+564638996+563847879
3698+563410966+564549537+568976120+577392582+587456650+594048456+592937294
3688+585781601+578308388+574368690+574917765+578824551+583775432+588854358
3678+595056351+600903138+601720556+598307196+596468525+597012340+594531570
3668+586133969+575448429+566703270+561665353+560342188+561890091+564899206
3658+567136930+566631945+564657684+565227073+570752845+579299256+583815783
3648+578804203+568465667+559668182+554996719+553450131+552491793+550213821
3638+546862200+544356202+544927080+550351072+561034571+573562727+578846873
3628+571537282+560369285+554584618+555494264+560763010+567279719+571742640
3618+572829543+572731224+573531754+574852773+575841323+576644309+576766299
3608+574931469+572007972+570446746+570862964+572139790+574102839+578081400
3598+584626764+591956946+596940150+597950190+597065704+598259992+603213572
3588+608714219+609686399+606149631+602615839+602272399+604691361+607120150
3578+607409604+605605332+602724644+599739373+598195831+600018306+605687143
3568+612610693+616300493+614850667+610536348+606407454+603703953+602131825
3558+601260974+601100675+601455466+601635838+601520043+602402660+605595158
3548+610277003+613445414+612551376+608168466+603123317+599760414+598465835
3538+598206697+598146620+598239920+598379456+598297437+598510339+599612919
3528+600793572+600786235+599604060+597923058+595907891+593895493+592821014
3518+592792152+592382682+590242169+586951041+584873582+585792398+588644293
3508+590561799+590522832+590262241+591128454+592136972+591825024+590333946
3498+588866124+588261886+588207414+587338086+584723872+581359031+579396813
3488+579787111+581190703+581405474+579767316+577864068+577616455+578952286
3478+579928135+579041780+576653722+574081763+571995860+570076762+567991862
3468+566197973+565364255+565303658+565286597+565178865+565272097+565222989
3458+564477139+563666227+564056387+565478700+566332352+565901148+565012267
3448+564169759+562813372+560600737+558068403+556059985+555037866+554582127
3438+553740553+552415346+551685450+552255704+553475360+554338943+554656047
3428+554708096+554444252+553572432+552114577+550346539+548333345+546097108
3418+544124993+543041585+542851212+543100798+543569654+544134856+544208188
3408+543294563+542116990+542040958+543041655+543363881+541915265+539892520
3398+539076798+539608465+540244957+539966198+538788279+537440924+536553184
3388+536037055+535293281+534118442+533091929+532955923+533758287+534526078
3378+534017874+532214122+530638845+530615347+531581125+531911068+531243741
3368+530824408+531436710+532241323+532026552+530732007+529337136+528934449
3358+529937361+531714985+533139098+533505621+532729074+531261840+530046615
3348+529624305+529378457+528558998+527418246+526507217+525874116+525553032
3338+525825597+526735554+527871598+528478363+527930119+526731574+526483545
3328+527947457+529878805+530502666+529334402+527113497+524988384+524032088
3318+524526034+525460804+525432599+524248866+523000349+522486677+522458264
3308+522505192+522707712+523164801+523761530+524432837+524836805+524160411
3298+522242005+520343879+519847649+520737119+522038135+523114725+523882066
3288+524299462+524350888+524312647+524601408+525381035+526487594+527636824
3278+528552249+529013907+528900119+528165723+526964548+525897856+525606361
3268+525854667+525722122+525095285+524951112+525664882+526210427+525492954
3258+523708028+522067793+521594958+522224840+522800459+522269518+520897280
3248+519781758+519507428+519896134+520724833+521822741+522497855+521887318
3238+520153091+518466276+517557564+517052475+516342996+515335413+514253944
3228+513400638+513078689+513148665+512871116+511769886+510408965+509749875
3218+509895951+509974959+509164255+507414870+505364819+503917450+503583319
3208+503940256+504035875+503373358+502217553+501124144+500544442+500548145
3198+500639923+500297659+499744674+499579979+499684908+499223838+497802528
3188+496041411+494849338+494445578+494207931+493416054+492071363+490875172
3178+490352121+490154757+489455003+487825843+485506585+483126937+481388211
3168+480664163+480724414+481078997+481512069+481920986+481863123+480842770
3158+479023513+477174841+475848769+474987677+474318654+473637623+472705760
3148+471468870+470350717+469701213+469170237+468299559+467322672+466710786
3138+466364819+465849382+465150597+464728357+464828406+465017360+464617269
3128+463480428+462086284+461054753+460722698+460853651+460671964+459653514
3118+458259751+457405581+457400009+457798613+457938321+457291101+455755518
3108+453963255+452934181+453107597+453847772+454048769+453171170+451629358
3098+450268471+449565880+449309684+448969186+448355568+447776316+447458347
3088+447155259+446581405+445915047+445518174+445423419+445437989+445483740
3078+445465052+445087212+444255363+443381813+442810936+442297367+441560099
3068+440861764+440466691+440059574+439306040+438474953+437947161+437590432
3058+437083681+436443140+435852779+435325472+434828965+434472928+434311209
3048+434103948+433600035+433014138+432828333+433029088+432898135+431825595
3038+430106872+428611399+427866621+427708190+427607345+427191784+426554357
3028+426037294+425702367+425251092+424539779+423809294+423244923+422694879
3018+421976264+421119567+420214248+419320106+418569272+418103358+417893328
3008+417795632+417727214+417656097+417488391+417069265+416313137+415343517
2998+414451798+413809353+413293778+412753459+412302045+412089558+411901953
2988+411349383+410406930+409425302+408669415+408205093+408092551+408267697
2978+408350338+407940522+407028662+405889814+404773218+403877796+403330002
2968+402987115+402534594+401900663+401341690+401053621+400884601+400529844
2958+399932631+399325866+398832993+398288624+397620916+397095616+396885725
2948+396691026+396126308+395281966+394615054+394394746+394430737+394309890
2938+393797360+392993889+392211285+391778248+391800639+391948307+391664252
2928+390785061+389748338+388995047+388420986+387632396+386561551+385563865
2918+384937963+384620340+384399201+384158232+383818703+383282225+382573715
2908+381884274+381397838+381163133+381087517+381015534+380875860+380681196
2898+380330799+379660150+378776183+378002301+377438033+376939208+376480215
2888+376154147+375927783+375703010+375452109+375153070+374788762+374379153
2878+373844129+373049967+372158802+371565360+371323734+371067608+370622596
2868+370250051+370145331+370031162+369413946+368170896+366808695+366019932
2858+365979511+366287063+366556721+366659089+366433036+365743214+364859351
2848+364243553+363983966+363857131+363746354+363598132+363220743+362474754
2838+361507003+360609055+359944116+359485780+359150438+358909712+358730655
2828+358484530+358062913+357544569+357096962+356760062+356441539+356052868
2818+355585050+355148829+354939387+355014173+355108096+354846605+354177237
2808+353405984+352772538+352195915+351501491+350714839+350025259+349568516
2798+349310209+349073289+348661258+348029334+347354324+346889621+346722227
2788+346653913+346335217+345585317+344621754+343917709+343776547+344079150
2778+344449722+344549079+344186605+343337280+342149221+340840072+339588682
2768+338602382+338144808+338265102+338566702+338487141+337826181+336889992
2758+336118602+335660751+335336137+334956083+334581738+334381502+334297719
2748+334048686+333501584+332825155+332202367+331654469+331209146+330912218
2738+330600201+329974714+328970003+327829321+326858732+326268129+326106202
2728+326186110+326201822+326011518+325708672+325412920+325118449+324780304
2718+324453440+324231333+324038987+323630762+322884289+321977066+321187784
2708+320645180+320317798+320104792+319904278+319703281+319560492+319431131
2698+319142613+318625618+318015946+317472651+317057886+316791862+316632081
2688+316428211+316083940+315730533+315596639+315699387+315731399+315304521
2678+314361341+313303301+312599948+312312883+312137390+311854755+311554989
2668+311402476+311376313+311341360+311251624+311143684+310992486+310715596
2658+310307856+309868243+309469293+309049994+308487803+307792133+307162562
2648+306785173+306620063+306470768+306226304+305954535+305757967+305611233
2638+305406048+305135387+304915182+304790839+304643586+304339910+303899120
2628+303478818+303214282+303065783+302861325+302532697+302217288+302058304
2618+302017364+301959812+301788023+301427418+300854083+300217868+299753026
2608+299489563+299249598+298981463+298844350+298895810+298962117+298904531
2598+298773440+298625703+298407401+298113796+297885285+297783610+297590814
2588+297069529+296374897+295916977+295828729+295868561+295830286+295754012
2578+295720097+295676423+295518927+295223798+294865927+294543562+294288232
2568+294022761+293617582+293069822+292608719+292465792+292554801+292575980
2558+292400419+292153532+291969838+291835598+291651627+291382834+291131483
2548+291008940+290980874+290978243+291071059+291311405+291483437+291262090
2538+290641275+290020927+289778089+289849432+289865801+289639869+289327004
2528+289135869+289115624+289225207+289393259+289482476+289359500+289033069
2518+288635590+288284122+288036180+287943969+288049521+288315873+288622959
2508+288834615+288863097+288708127+288455530+288214181+288039623+287894498
2498+287680748+287368316+287089556+286992311+287012314+286952270+286783648
2488+286697338+286843293+287156036+287426144+287442617+287113453+286560121
2478+286067265+285852269+285881823+285942455+285874019+285718928+285644575
2468+285725400+285833927+285781325+285528866+285207333+284976383+284923140
2458+285016700+285089444+284968042+284712798+284594062+284708940+284782462
2448+284536216+284097901+283820439+283836704+284006157+284163965+284227625
2438+284164675+284005794+283845840+283786714+283893425+284143859+284382440
2428+284428726+284270694+284056701+283901367+283825301+283857365+284010501
2418+284156611+284133027+284000707+283985809+284140000+284266333+284218299
2408+284098195+284123112+284389603+284782168+285090049+285227474+285301377
2398+285433611+285591903+285650493+285561466+285410943+285328198+285357440
2388+285396148+285228374+284589424+283206458+280869879+277543971+273387374
2378+268644586+263550692+258306154+253047635+247875183+242980089+238601038
2368+234783486+231446591+228724714+226950516+226348094+227002167+229036454
2358+232630064+237893584+244936199+253985623+264642336+274830400+281605469
2348+283210386+280258840+275529082+271995341+270439739+269816397+269208663
2338+268445336+267632815+266697509+265403587+263834262+262609554+262327559
2328+262908282+263715802+264258786+264656438+265398015+266721647+268382524
2318+269968408+271227273+272165712+273024122+274067852+275325090+276660818
2308+278020008+279346703+280415004+281058972+281435600+281806345+282207717
2298+282512155+282655705+282709484+282828100+283111082+283461581+283675453
2288+283689330+283623162+283580301+283512125+283297890+282925571+282543457
2278+282295186+282181641+282137638+282092268+281905909+281480779+280987941
2268+280731486+280756281+280811376+280698176+280472902+280324023+280385450
2258+280645868+280949839+281108702+281063419+280922291+280826776+280829977
2248+280911546+281024296+281100223+281083837+280972506+280785576+280544227
2238+280321237+280219838+280265692+280407339+280620899+280901666+281158588
2228+281242631+281112405+280900143+280779416+280796356+280846883+280798865
2218+280623391+280422791+280339077+280415437+280560475+280676218+280772564
2208+280896596+281013187+281045942+280998946+280954009+280966485+281017097
2198+281040422+280982750+280872682+280829354+280952382+281204252+281431672
2188+281487701+281326813+281026856+280739341+280587711+280595030+280692328
2178+280774364+280779520+280752423+280778240+280840030+280848976+280832625
2168+280932310+281174057+281419075+281586798+281744987+281912087+281952733
2158+281781930+281547606+281479239+281627409+281868465+282102737+282310189
2148+282444412+282435051+282314497+282209448+282185794+282220522+282314411
2138+282477756+282615838+282607151+282506601+282504645+282665291+282837773
2128+282863641+282793112+282831007+283089798+283474144+283834212+284123285
2118+284354910+284534572+284680925+284810061+284901303+284972766+285112803
2108+285340621+285546862+285649956+285709948+285842994+286090504+286385390
2098+286628626+286803737+286993626+287273250+287618732+287918983+288063813
2088+288061339+288063952+288206117+288433901+288565840+288516681+288415403
2078+288482922+288783466+289140092+289360504+289475607+289644074+289921085
2068+290253970+290581266+290801090+290788147+290583446+290429099+290499109
2058+290700834+290826561+290824519+290838604+291006275+291297216+291582447
2048+291811684+292056910+292395332+292792516+293113393+293258258+293269678
2038+293261268+293287985+293343910+293398866+293385335+293281687+293239812
2028+293467872+293961057+294474314+294764874+294822460+294894858+295235357
2018+295759342+296096829+296068555+295873787+295735567+295658635+295588625
2008+295543394+295548585+295617211+295777510+296034087+296339701+296614239
1998+296806031+297046377+297649508+298686784+299657338+299955616+299582933
1988+298998039+298498660+298132137+297946125+297998347+298243987+298564067
1978+298839851+299005757+299093866+299188205+299365324+299749669+300449458
1968+301255974+301646030+301378103+300830170+300477351+300378756+300402219
1958+300587436+300995038+301454792+301712856+301708184+301598515+301603325
1948+301919876+302774773+304289072+305987931+306767938+306046728+304621403
1938+303676355+303533705+303786198+304060320+304290872+304545233+304831849
1928+305132860+305644387+306641934+307915472+308930531+309717702+310611878
1918+311095961+310283216+308600345+307490602+307678172+308671186+309537642
1908+309767467+309536327+309300757+309254730+309307228+309442853+309848448
1898+310672614+311717503+312511077+312980348+313720281+314965995+315815840
1888+315398514+314225751+313339881+313056553+313187471+313582891+314082340
1878+314507279+314834108+315196374+316017841+318078066+321653871+325276257
1868+326374407+324340760+321334690+319413482+318872989+319020173+319288723
1858+319508305+319695633+319905905+320202037+320753154+321836527+323636334
1848+326253144+329660136+332867757+333728087+331561065+328583304+326956082
1838+326812082+327126279+327416459+328462006+331196757+334956048+337533233
1828+337921385+337323099+336514921+334992558+332908662+331484964+331369030
1818+332021684+332692991+333422161+334805888+336880856+338628164+338998840
1808+338229076+337588812+338217344+340406065+343368703+345608642+346162528
1798+345660034+345816804+348010612+351940689+354873772+353964161+350406733
1788+347755177+347585707+349009924+350698850+352248933+353507591+354080441
1778+354315734+355654403+359361576+364961614+369541715+370184575+367551535
1768+364112497+361494545+360863555+362679697+365474906+366955221+367066136
1758+367251180+367672728+368216405+370228526+374783363+380266880+383308526
1748+382828457+380840249+379405858+379297088+380399079+381848560+382536512
1738+383033504+385671805+391093929+395309998+394008428+389471032+385365498
1728+382621265+381435594+381899363+383441971+385929627+390633759+398534092
1718+407401552+411656589+408978629+403277261+398604033+396544465+397436392
1708+401008736+405904660+410163400+413868324+419270687+426624990+431950145
1698+432636299+430333340+425827783+420263978+416857436+417179247+420171542
1688+424940667+432474546+442308545+448062655+444943316+438407608+434477427
1678+434866271+438707166+443278096+446235058+448495104+451495394+453244744
1668+451172545+447740394+447129684+449857098+452840673+453434529+452903208
1658+454444708+460502459+471919315+484618292+488092075+483348145+481462028
1648+484496821+486718730+483232350+477415187+474295779+475130535+479676444
1638+487493893+496025873+499328075+495380383+490260586+488867930+491264397
1628+495036597+498391955+501468969+504126269+505136655+505205212+507106175
1618+511649212+515526686+515233911+512820867+511957318+513315124+515513051
1608+517258421+518467452+519774213+521441268+523057935+524265754+525415365
1598+527109448+529292770+531231905+532469591+533415435+534667586+536150220
1588+537390190+538335308+539346871+540586736+542067502+544342394+548473469
1578+554650302+560303947+561590360+559834503+559882676+562965712+565912603
1568+565898484+564604700+564779812+567548269+574271444+586889094+602492638
1558+608360328+601535339+593513224+589278086+588117644+588618130+589868828
1548+592220237+597329133+606257536+618044133+630683101+641045135+643457037
1538+638195178+633837393+634924814+639361503+642501191+643659834+646516366
1528+653056124+661610426+669986570+678557760+687811746+695266790+699082699
1518+701133857+702898123+704109991+705496210+708964872+715715040+725699788
1508+736750848+742077699+736896820+728393737+723889979+724644759+729360726
1498+735209589+738433579+738019679+737461122+740350324+746665620+752465618
1488+753622116+750818740+747734008+746695936+747790487+749962008+752620312
1478+756386248+762092668+769232373+775055627+775803208+771520105+767108679
1468+766375287+769194375+772508828+773597357+773994645+777468567+785336542
1458+794076545+796270076+790490220+783488804+779243423+777665066+777455693
1448+777135925+775957971+774517350+773698894+773631410+774285760+776185754
1438+779506090+782531297+782852450+780956263+779186183+778463657+778085610
1428+777559653+777584085+778817618+780991216+783792862+787163655+789655983
1418+788654871+784319442+779682101+776836297+775930839+775841276+775310127
1408+774373800+773996791+774212324+774307631+774776418+776768744+779984151
1398+782965200+784874469+785449223+784513933+783048049+782800609+784141977
1388+785498296+785193823+784010955+784770648+789055482+795565131+801801316
1378+806784935+811108251+814782825+816997466+818135553+819761045+822303484
1368+824755876+826633999+828626463+830968113+832581492+832581838+831641842
1358+830926999+830685788+830404779+829724059+828790985+827945812+827479656
1348+827484224+827688267+827910928+828725993+830859931+833792876+835753986
1338+835592995+834045507+832646068+832265391+832940782+834345758+836148853
1328+838183261+840404478+842648258+844683705+846634295+848786506+850864449
1318+852348675+853649830+855903232+859407538+863199429+866293435+868577845
1308+870344326+871722169+872856795+874040632+875405741+876984444+878987083
1298+881251074+882582683+881894834+880011174+878894751+879206007+879637625
1288+878421189+875125908+871178908+868460389+867205192+865853096+863261376
1278+860190764+858062156+857145831+856621535+855985389+855817683+857039795
1268+859695538+862625091+864304778+864257158+863612637+863818687+864927981
1258+865703317+865442933+864964387+865476987+867106285+868938658+870276150
1248+871313391+872451547+873660301+874949205+876637958+878795014+881205254
1238+883828674+886453824+888440821+889689234+890990527+892681496+894060585
1228+894793908+895735496+897601022+899853177+901754418+903642577+906169443
1218+909078094+911700198+913972703+916011679+917488638+918419843+919805993
1208+922478001+925780064+928205601+929279457+930106426+931889934+934607831
1198+937484228+940131249+942706635+945267762+947379897+948563665+949074465
1188+949688255+950742384+952045823+953537317+955215619+956903334+958653964
1178+960552159+962014929+962405711+962395745+963371109+965587896+968000628
1168+969947688+972180533+975750593+980129143+982823645+981909259+979031477
1158+978024205+980534876+984685572+987922644+989765813+991152032+992066627
1148+991253777+988869215+987606059+989857314+994887376+999778109+1002874468
1138+1004887766+1006849776+1008812894+1010527603+1012068653+1013639328
1130+1015296312+1016808085+1017979186+1019084811+1020506952+1022291152
1121+1024420314+1026655651+1027887937+1026933960+1024563033+1023231148
1113+1024333589+1027184584+1030150129+1031592757+1030838186+1029070598
1104+1028319418+1029190615+1030546241+1031238797+1030885320+1029581120
1095+1028089904+1027884684+1030080500+1034206764+1038361198+1040662219
1087+1040644777+1039823483+1040095425+1042178422+1046359849+1051862089
1078+1056915544+1061098287+1065167726+1067916147+1066512140+1060978685
1070+1055129476+1052675700+1054258832+1057474586+1058955559+1057701262
1061+1056372698+1057413124+1059541940+1060748756+1061384556+1061440896
1053+1059308827+1056102487+1056152667+1060791738+1066143575+1068852612
1044+1070196265+1072197865+1073741823+1073203891+1071736900+1071291023
1035+1071509047+1070664082+1068305960+1065594846+1064013098+1063920628
1027+1064068677+1063054898+1061373828+1061034956+1063008594+1066083220
1018+1068363131+1069040252+1068482110+1067774119+1068398084+1070680002
1010+1072179108+1069755579+1063913983+1058577719+1056643671+1057535840
1001+1058372638+1056948351+1053925982+1051491032+1050445831+1049930532
993+1049448941+1049555115+1050280755+1050736045+1050365750+1049797088
984+1050026048+1050711267+1049776600+1045653382+1039786592+1035477534
975+1034575882+1035956218+1037042117+1036499686+1034697837+1032302409
967+1029635107+1027155030+1025731851+1025708526+1026160286+1025795043
958+1024443016+1022946470+1021299522+1018142670+1013001382+1007184565
950+1001660869+996261897+991445292+988423407+987090899+985979113+984494957
940+983650338+984289599+985394808+984917024+982054608+978017699+974476640
930+971858273+969866085+968738519+968819776+969657751+970597539+971461538
920+971634850+970111864+967496750+966116968+967202244+969093587+969014545
910+966369115+963592040+963312900+965140635+966069626+964340036+961519703
900+960099223+960785411+962838161+965376032+967307865+967561880+965998266
890+963272133+959968270+956578581+953883387+952167917+950678500+949017086
880+948189148+949201542+951626040+954055661+955294246+955236521+954208693
870+951664315+947374083+943669263+943679023+947181807+950433067+950505880
860+948097854+945820851+945421278+946467587+946781265+944656878+940997948
850+938466167+938659620+940947144+943754120+946002123+947202156+947309853
840+946951185+947037011+947923574+949424688+951213940+952566313+952666535
830+951608875+950206945+949061314+948650805+949699329+952386426+955448939
820+957270030+957428530+956412745+955172291+955334667+958140673+962210943
810+963834774+960828808+955343941+951358043+950311112+950404897+949801004
800+949075018+949570937+951045473+952480003+953744336+955253617+956580035
790+956649734+955593527+955243443+957218534+960736615+963358097+963821277
780+962871107+961766520+961276761+961586563+962451254+964065533+967215810
770+971437521+974137630+973011794+968786761+964429392+962365775+962238075
760+961227412+958029585+955193193+955924578+959918297+963955760+965751449
750+965701476+965042628+964002272+962794210+962310750+962739462+963526079
740+965142088+968482427+972169044+973202963+971301100+970074904+972443270
730+976620337+978427308+976500320+973044809+970403740+969145498+968570329
720+967366420+965164514+964050929+966418326+971904023+977792408+981113297
710+980143193+975412552+969506311+964978605+962195993+959461000+955888933
700+953335835+953653596+955098924+954292303+950875206+947504759+946302304
690+947114807+948093079+946725548+942061629+935834580+930655847+928381128
680+929756895+933831734+937743503+938406643+934083742+924334806+909861527
670+893893987+885068366+891653390+906902697+917800585+919429192+913428542
660+903537233+894029785+889533572+891900761+897076033+899723193+899809157
650+899839404+899592171+897377876+892936411+887662301+884088573+883854006
640+886123327+888683831+890495855+891503196+891062025+889196430+886854642
630+883487933+877902222+871188529+866409715+866033537+869969601+875376948
620+878851423+879331561+878244001+877142805+876567429+876669035+876557670
610+874305030+870651221+868257384+868237173+871200642+876389203+880045365
600+880101221
##END=
