##TITLE=<SNM>
##JCAMP-DX=4.24
##DATA TYPE=INFRARED SPECTRUM
##DATE=2/5/2025
##SAMPLING PROCEDURE=Instrument type and / or accessory
##ORIGIN=Admin
##XUNITS=1/CM
##YUNITS=ABSORBANCE
##RESOLUTION=4
##FIRSTX=4497.3318
##LASTX=599.83466
##DELTAX=-1.4281778
##MAXY=1.7397938
##MINY=0.19747841
##XFACTOR=1
##YFACTOR=1.6203092e-09
##NPOINTS=2730
##FIRSTY=0.21860558
##XYDATA=(X++(Y..Y))
4497+134915962+134783275+135548801+136670497+137443922+137508601+137046403
4487+136401389+135776828+135489419+136032830+137456935+138864274+139028864
4477+137675269+135797087+134632462+134606611+135208291+135640002+135656777
4467+135763070+136368466+137010712+136987776+136478253+136179652+136165241
4457+135997323+135601414+135276088+135127528+135075006+135133349+135315863
4447+135589366+136023036+136580031+136836622+136319577+135044566+133501422
4437+132272035+131684343+131584073+131509039+131243555+130995259+130993769
4427+131236464+131553348+131617401+131090286+130059359+129112498+128755343
4417+129029573+129707759+130447580+130857937+130861293+130781486+130718886
4407+130317854+129498539+128777276+128491900+128344425+127976243+127426928
4397+126964307+126980033+127896445+129612079+131244309+131948622+131750787
4387+131168668+130433151+129514522+128491155+127457773+126419213+125524679
4377+125085528+125215190+125640279+125865667+125516412+124742453+124239102
4367+124556748+125508374+126467430+126997847+126994076+126470557+125478292
4357+124207061+123073943+122577654+122937531+123930440+125118580+126051592
4347+126323091+125848239+125108823+124786753+125100132+125689067+126052356
4337+125850437+124957467+123585792+122345047+121876992+122364341+123529096
4327+124978987+126308653+127016985+126752218+125737514+124656723+124052808
4317+124027711+124364312+124649219+124470513+123797652+123057582+122745775
4307+123065316+123838217+124580880+124859111+124768259+124806911+125190819
4297+125637750+125916753+126231706+126867864+127689092+128174897+127932413
4287+127067621+126008948+125105126+124539156+124425809+124721568+125197523
4277+125692874+126202258+126699494+127162115+127643229+128036848+128067316
4267+127806890+127779273+128242785+128775878+128851004+128513548+128206983
4257+128115368+128015365+127746028+127455639+127355287+127639118+128535565
4247+129891100+130905630+130909299+130175428+129484532+129254335+129447397
4237+129801324+129881766+129396356+128588031+127987160+127873270+128233092
4227+128998801+130011924+130882298+131193140+130917732+130463251+130171400
4217+129941010+129621487+129491549+129842708+130366393+130553100+130383388
4207+130106942+129810291+129629285+129798445+130175686+130341002+130275615
4197+130362705+130735044+131103492+131160952+130873083+130468916+130267752
4187+130460446+130993824+131599082+131930956+131846992+131604535+131654242
4177+132211173+133044743+133649946+133700002+133384351+133140267+133096059
4167+133115924+133287981+133838271+134559074+134886313+134706577+134618833
4157+135082354+135662681+135594286+134881163+134249106+134131842+134319662
4147+134498717+134561824+134479405+134302391+134152948+134015819+133781391
4137+133516008+133438619+133676174+134153610+134627680+134913029+135145599
4127+135526416+135809549+135508088+134625197+133768498+133570939+134185421
4117+135133616+135653061+135485943+135146151+135155724+135433725+135635864
4107+135569704+135179405+134683631+134622107+135199187+135903932+136280501
4097+136568416+137099504+137651726+137853460+137668141+137246381+136842903
4087+136848440+137363765+137900757+137924383+137487596+137101978+137179026
4077+137689054+138211985+138301118+137827572+136986130+136136567+135652059
4067+135670479+136004836+136487293+137173315+137959771+138379950+138116112
4057+137434928+136832603+136494789+136361026+136524567+137158849+138006738
4047+138418860+138127479+137532429+137009433+136483284+135873933+135381884
4037+135162842+135200327+135571323+136396763+137445145+138172229+138352296
4027+138396044+138812378+139550847+140109709+140121913+139615683+138910652
4017+138432324+138427643+138733206+138916951+138713525+138294377+138071821
4007+138260175+138726400+139287110+139928694+140609823+141101063+141179233
3997+140841419+140268146+139693080+139322360+139250609+139399096+139632089
3987+139957755+140460344+141001226+141222576+140989933+140663908+140799731
3977+141634818+142830068+143648289+143545620+142734894+142046619+142094303
3967+142714459+143394512+144010521+144740005+145440851+145682130+145379952
3957+144907151+144537535+144182826+143806451+143776645+144415497+145327550
3947+145813429+145926435+146258907+146746385+146627999+145677790+144561345
3937+144002400+144396166+145879938+148009211+149560227+149541383+148427421
3927+147587910+147703593+148258978+148510484+148547077+149026232+150174139
3917+151298189+151413265+150447136+149329211+148815357+148862259+149364461
3907+150899631+154044537+158088585+161186478+162215676+161416041+159181312
3897+156035265+153387724+152733394+154066250+155455739+155196085+154374508
3887+154959055+156602965+157443120+157453162+157859390+158016631+156728994
3878+155225312+155432527+157341701+159927773+162690509+164780523+164874547
3868+163668133+163193318+163521008+162945675+161002953+159242137+159123135
3858+161208844+165743395+171871901+175364140+172383116+166254978+161376662
3848+159152067+159500375+161670949+164550592+167471582+170459522+173030696
3838+173764686+172356096+170364798+168922218+167884964+167049260+166721718
3828+166935003+167381438+168504293+171111921+174209134+175230184+174252744
3818+173682396+173521457+171839621+168860951+166836858+167342996+170485180
3808+174573407+177230458+178689261+180993019+183655697+184030344+182242252
3798+180559091+179387826+178041165+177012611+177447495+179521010+182426586
3788+185438051+188415379+191448934+194729470+198702906+203558286+208649041
3778+213222199+217500775+222388564+228812442+237160577+246415577+254767978
3768+261981633+269179673+276657672+284404374+293482047+304713429+316835270
3758+327936172+338693383+351864967+369045486+388589135+406194974+419752957
3748+431785317+444594669+456991762+465633669+470919224+476855891+485754417
3738+497629222+510818279+521732051+526801746+526497268+524802318+524798419
3728+526762017+528882912+529040098+526990016+524148778+521519648+519447348
3718+518626174+520083120+524419045+530745974+535923636+537396068+536935397
3708+537406736+539476351+542971828+547540498+551908648+554786157+556307882
3698+557138840+558052125+560717232+566674425+574910914+581341984+582168639
3688+578798566+575641815+574198738+574193441+576041457+580108588+585834876
3678+591722985+594300835+590780823+585090401+582315378+581547066+578697883
3668+573206363+567920366+564422241+562632420+562343834+563957561+567801915
3658+572625733+575681654+576038404+576098071+578287351+582513507+585786134
3648+585292761+582471167+580425352+580213538+581102802+582111253+582888503
3638+583916708+586016598+589299010+593335204+598539167+605399935+611535025
3628+612907840+610361994+607974106+608137657+611810625+618297978+624606257
3618+628683099+631684981+634407437+635587236+634925310+634563556+636069353
3608+638657541+641015080+642798758+644570959+647274801+651404762+656249621
3598+660090885+661693282+661605290+661636558+663364101+667056309+671364240
3588+673858623+673084572+670273536+667643266+666145562+665960602+667866851
3578+672210170+676725721+677825695+675094852+672297941+672875628+676206892
3568+678344598+676759711+673693233+672197148+672188098+672438832+673149021
3558+674811232+676343736+676145386+674187857+672223707+672348412+675051224
3548+678101811+678222837+675070500+671952963+671400879+672293527+672034922
3538+670261912+669260009+670826061+674163946+676943862+677619841+676625075
3528+675336830+674159532+672367246+669708871+667265032+666801088+668970577
3518+672331122+674606261+674894442+674347508+674021732+673436614+672038306
3508+670235720+668637370+667648636+667284161+666615466+664778227+662911707
3498+663054584+665146749+666779457+665999301+663118665+660229716+659970448
3488+663415601+668438725+671331721+670534201+667789968+666016737+666972878
3478+669777661+671061491+668542020+664461941+662641624+663270665+663626311
3468+662765667+662632796+664441562+666417336+666352152+664872914+664558983
3458+666602590+669654207+671550892+671285150+669283405+666389085+662968799
3448+659272692+656215189+654710643+654441664+654432909+654547976+655166053
3438+656005068+656773159+658057504+660120976+661720577+660988904+657341355
3428+652480678+649328488+649612402+652556530+655998373+658212667+658411091
3418+656779339+654906344+654845868+656888593+659138570+660043211+660422695
3408+661636705+662893829+662337846+659980601+657580905+655901846+654259206
3398+652711399+652321174+653284378+654421947+654773841+654604479+654227423
3388+653091913+650990331+648979316+647942246+647575784+647570928+648071070
3378+648619475+648412738+647675400+647235366+647154143+646960354+646658636
3368+646787828+647802532+649418025+650515351+650280877+649222029+648520521
3358+648492343+648249041+647151126+645636869+644313678+643533006+644050511
3348+646388774+649276178+650759315+650890935+651208766+652000106+652178150
3338+651445079+650800883+651020201+651702728+651786011+650572369+648447243
3328+646505901+645266361+644479067+644245182+645123337+647053276+649329003
3318+651612014+653940713+655930024+656901468+656654119+655592256+654361691
3308+653516718+653320648+653762154+654468150+654759863+654417459+654195566
3298+654802314+655552380+655190332+653753914+652434990+652130549+652940355
3288+654527228+656295751+657590837+658122321+657843925+656519041+654016271
3278+651181692+649742772+650796910+653717643+656848129+658813382+659095898
3268+658263579+657661099+657934418+657862906+655988661+653317485+652351117
3258+653815052+656187011+657989965+658957583+659247383+659192131+659624439
3248+660734272+661134135+659623777+656960620+654579317+652903569+651742163
3238+650933386+650244826+649751159+649878218+650422871+650656167+650727458
3228+651264534+651522403+650141458+647777518+646565715+646945272+647307173
3218+646786210+646469703+647604035+649894992+651899092+652496790+651789764
3208+650636229+649623291+648698933+647573209+646277901+645249439+644970086
3198+645362666+645306016+643236437+638928506+634367414+632178869+633349031
3188+636469879+638641575+637641659+634212471+631498035+631556819+633307463
3178+634363809+633946950+632993752+632383326+632316228+632632146+632767150
3168+632017673+630577429+629550880+629306842+628701050+626676939+623922626
3158+621820750+620591289+619709382+619059301+618397668+617014185+615231647
3148+614897079+617049573+619939000+620693260+618720281+616110390+614830864
3138+614851390+614956194+614395502+613436381+612694997+612284134+611765563
3128+610945493+610365047+610598601+611350506+611759934+611377949+610371742
3118+609094497+607882141+606916510+605983507+604716709+603252664+602126609
3108+601439336+600747687+599925079+599437444+599475775+599556336+599231847
3098+598633818+598137170+597857192+597573904+596914147+595690572+594227447
3088+593137920+592576787+592146575+591603835+591065767+590651299+590355246
3078+590292379+590507687+590607377+590124966+589103088+588081579+587527324
3068+587235501+586515673+585243725+584112262+583470862+582995882+582773694
3058+583244113+583847771+583275786+581363688+579496322+579085055+580253414
3048+581591209+581262674+579004604+576420059+574820605+573934467+573168252
3038+572796383+573111308+573344384+572299147+569874658+567483570+566673800
3028+567422321+568234923+568027781+567171845+566363989+565559958+564598851
3018+563749757+563111152+562430980+561665942+560894062+559968417+558979647
3008+558434773+558420537+558343581+557864223+557279142+556727168+555850706
2998+554506878+553094260+551883449+550661677+549392598+548625353+548711469
2988+549105483+549006492+548230676+546993858+545421589+543761218+542583883
2978+542386931+543125630+544087877+544240245+543081450+541199848+539636628
2968+538849813+538619680+538553207+538303762+537736706+537075294+536536159
2958+535965903+535187769+534439285+534052223+533883780+533333610+531966753
2948+530140477+528848922+528694016+529144718+529120218+528159589+526692197
2938+525342373+524343303+523535409+522603731+521354737+520016574+519221666
2928+519374475+519955104+519783792+518269424+516079188+514285025+513281982
2918+512840073+512759327+512968860+513178835+512983869+512351040+511450667
2908+510062989+507989291+505924053+504878780+504779016+504675280+504262688
2898+504050323+504108702+503869446+503187398+502564611+502298759+502160407
2888+501829296+501137389+500050033+498764878+497641214+496806982+495978341
2878+494871230+493694815+492934596+492667089+492465869+492037534+491521022
2868+491049794+490435174+489435625+488098860+486767796+485865142+485576998
2858+485614814+485381591+484564538+483522428+482840490+482552603+482096714
2848+481065898+479754809+478853663+478624965+478522589+477905100+476912615
2838+476041633+475212330+474101063+472966584+472236824+471741721+471063462
2828+470107578+468907804+467506222+466217572+465374364+464856786+464436984
2818+464272514+464429995+464329091+463430263+462134109+461199046+460609331
2808+459751114+458400885+456922089+455763736+455149851+454928253+454587946
2798+453786674+452771197+451936523+451281439+450626318+449979142+449389647
2788+448765573+448048136+447353028+446815659+446375368+445754641+444737951
2778+443509814+442517991+441903739+441342017+440578083+439761582+439079128
2768+438419188+437609970+436745206+436071581+435652773+435267955+434650466
2758+433751600+432692348+431552314+430359934+429170754+427989042+426789157
2748+425693266+424873086+424257730+423627587+422987143+422521138+422184878
2738+421687495+420926834+420103785+419346399+418569553+417773799+417121767
2728+416640644+416152310+415523270+414758857+413908697+413024142+412126564
2718+411231524+410476272+410003572+409603561+408841209+407681789+406596676
2708+405937803+405540330+404996671+404110092+403070962+402219293+401584882
2698+400818299+399757834+398774545+398224815+397865416+397233102+396361091
2688+395685369+395396195+395241068+394897451+394281139+393531845+392844315
2678+392286898+391762293+391180523+390620824+390204002+389812048+389115027
2668+387978083+386705326+385715268+385087736+384586380+384019398+383418279
2658+382925310+382617301+382374256+381934406+381232971+380572369+380181113
2648+379783678+379007567+378027442+377323763+376977350+376664779+376196678
2638+375644079+375064847+374446990+373818024+373191044+372518854+371839895
2628+371346963+371185620+371240394+371211296+370876912+370220098+369372734
2618+368545638+367951029+367646331+367442500+367045028+366319277+365427144
2608+364702461+364350823+364268129+364190804+363990284+363724910+363444013
2598+363074240+362517705+361781912+360995575+360356493+360022586+359951148
2588+359880960+359567507+358991807+358271280+357482699+356687570+356020972
2578+355590576+355313136+354987176+354552292+354166076+353974017+353895000
2568+353700734+353251724+352600686+351892998+351222941+350593901+349988257
2558+349456552+349114406+349012914+349033220+348986428+348811878+348581157
2548+348340098+348080169+347849337+347737434+347707380+347552952+347101588
2538+346410527+345710895+345197363+344924521+344826413+344744491+344545221
2528+344302765+344218451+344299711+344305928+344050486+343606333+343207646
2518+343026365+343015955+342983988+342844716+342685984+342554364+342351858
2508+342011587+341649724+341468001+341521709+341611945+341447585+340904403
2498+340099342+339288101+338712033+338427494+338272514+338072472+337806730
2488+337536648+337304197+337121113+336941635+336701606+336463049+336367369
2478+336372372+336234130+335834818+335345050+334995216+334853185+334873675
2468+334991059+335073790+334931282+334501290+333963921+333559937+333317297
2458+333059795+332715552+332475156+332498736+332600228+332459044+332060321
2448+331675135+331470899+331369701+331229473+330977562+330601647+330156021
2438+329787168+329659411+329810344+330104852+330329614+330301804+329963042
2428+329484015+329182996+329191089+329310496+329336724+329348533+329494830
2418+329672801+329648780+329431816+329307259+329437628+329598824+329453078
2408+328985161+328513749+328329892+328457245+328728762+328979790+329121269
2398+329075948+328772979+328269563+327771592+327465716+327392475+327442725
2388+327361428+326817915+325574917+323523254+320560880+316602084+311720402
2378+306153636+300184782+294105036+288252701+282963504+278350672+274117932
2368+269844193+265628815+262136870+259881302+258941806+259436320+261677469
2358+265787289+271574752+278924037+288094062+298939301+309616649+317145302
2348+319516342+317148871+312832442+309537596+307732601+306003734+303498333
2338+300467960+297390630+294422922+291549000+288974993+287150097+286295871
2328+286107123+286056303+285903420+285901544+286556537+288173390+290607187
2318+293348753+295803058+297682619+299249922+301001559+303058906+305092232
2308+306843208+308388255+309826366+311070725+312091094+313041827+313977699
2298+314714449+315148008+315501521+316077957+316883276+317620577+318031587
2288+318163979+318251567+318394186+318493545+318482583+318459591+318564358
2278+318808433+319051845+319130751+319013110+318799678+318560201+318258115
2268+317897759+317637940+317642134+317877417+318171373+318404192+318544162
2258+318600923+318666145+318870638+319180339+319380050+319372840+319350621
2248+319556659+319986687+320413184+320640300+320672893+320670465+320789946
2238+321072241+321452093+321850007+322231919+322612065+323052908+323629675
2228+324325776+325010768+325591692+326129061+326751186+327514384+328386359
2218+329342941+330445049+331756873+333193255+334589503+335962613+337528996
2208+339403977+341445378+343459888+345424590+347429535+349517948+351661319
2198+353803661+355888432+357905738+359900714+361891019+363848254+365771093
2188+367667152+369499277+371237561+372856071+374259897+375391985+376358058
2178+377256114+377987014+378380918+378405823+378164139+377753497+377206232
2168+376557364+375846843+375016437+373959576+372655697+371103734+369306225
2158+367397474+365434354+363147812+360338799+357231193+354096919+350984384
2148+347885792+344788707+341960786+340417247+341244122+344274881+348311185
2138+352565739+356997088+361550602+366014947+370403366+374892873+379521909
2128+384159810+388729805+393402101+398447297+403912514+409645718+415561196
2118+421674141+427959650+434259835+440321869+446073576+451815865+457904900
2108+464461006+471730906+480458782+491514621+505296558+521637180+539905349
2098+558760034+576080708+589910834+599676222+606192451+610682142+613874613
2088+615507358+614504940+609772793+600845427+588154636+572767469+555429506
2078+536333947+516188074+496415652+478036978+461378231+446656082+433970771
2068+423110302+413818829+405893071+399108524+393396436+388712111+384697474
2058+381045804+377918188+375465410+373451084+371652728+370084689+368797879
2048+367854393+367318458+367156305+367369811+368098431+369518480+371955844
2038+376004398+382277803+391300188+403624333+419560677+438831301+460753164
2028+484289930+507662411+528716455+546106949+559660077+569777248+577061054
2018+582178056+585567074+587270007+587131287+585101731+581202860+575261595
2008+567032206+556623395+544501572+531163274+517071673+502700977+488396201
1998+474388361+461043699+448757149+437498288+426848309+416601761+406989293
1988+398304861+390709184+384289481+378947165+374348441+370215206+366514868
1978+363283846+360480351+358042177+355904287+353983581+352289403+350951350
1968+349973395+349058013+347888882+346533429+345359478+344620375+344249278
1958+343959478+343469415+342740612+342002906+341452183+341039812+340665258
1948+340414856+340494387+340971427+341547753+341652041+341020720+340058326
1938+339338351+339021587+338919911+338850164+338789909+338786120+338807014
1928+338810767+338950811+339383598+339880944+340137563+340354159+340784444
1918+340973487+340349119+339285894+338636769+338650306+338934404+339063854
1908+338944962+338764637+338721487+338804255+338851047+338785016+338741977
1898+338970123+339524562+340104934+340472757+340852609+341433937+341804041
1888+341524357+340903557+340538971+340580061+340802101+340979226+341051878
1878+341144211+341384423+341742903+342324783+343615198+345867603+348188319
1868+348927423+347645873+345698387+344442404+344080026+344104341+344086500
1858+343935126+343778307+343782869+344010758+344461717+345192396+346318783
1848+348016161+350318926+352454903+352892252+351297801+349314338+348389943
1838+348517296+348915026+349230466+350052559+352058939+354702820+356391701
1828+356560990+356180844+355739927+354782278+353388825+352416683+352311990
1818+352728113+353199635+353752823+354742475+356187723+357470560+357923137
1808+357644557+357428403+358050159+359745073+362015098+363834459+364475675
1798+364351154+364705440+366432026+369105005+370837036+370092598+367953604
1788+366643215+366953063+368178403+369519289+370875955+372221954+373209216
1778+373919111+375267023+378143943+382173773+385274094+385622825+383971724
1768+382035825+380748905+380777304+382408357+384667126+386086291+386705473
1758+387466427+388391263+389341188+391235187+394860885+399146488+401745637
1748+401881230+401009255+400673363+401442888+403154135+405081573+406449753
1738+407825806+410953349+416143886+420283264+420232389+417815036+415825577
1728+414943707+415222103+416661612+418878665+421860499+426587386+433756088
1718+441712342+446496945+446495621+444401322+443073643+443736931+446689777
1708+451673320+457616387+463065493+468060954+474232830+481842486+488141495
1698+491347135+492794405+493091488+492651234+493485576+496912815+502305969
1688+508852952+517148445+527030628+534255172+535503246+534500975+535504533
1678+539668816+546252474+553316631+559279268+564832294+571115007+576865831
1668+580028652+581801147+584897348+589697844+594223217+597037270+599230928
1658+602843862+609311460+618881845+628208633+630428593+627503740+627101964
1648+630160644+632595949+631051600+627527725+625289887+625408412+628044641
1638+632974623+638180574+639556075+636232094+632521714+631418724+632559236
1628+634121463+635035888+635604673+635881745+635436561+635217390+637017107
1618+640761330+643554783+642982320+640886697+639945712+640419515+641140446
1608+641395741+641580627+642179723+642965693+643460464+643533374+643364600
1598+643232612+643324503+643539774+643710829+644006220+644677491+645536222
1588+646147605+646425119+646666655+647060927+647530905+648292154+650173020
1578+653582270+656771687+656918611+655131695+655218952+658216199+661615517
1568+662732044+662240363+662255372+664129911+669111688+678077532+688137170
1558+691238522+686900573+682505165+680938156+681902758+684598875+688068013
1548+691951066+697065272+704336019+713597107+723587146+731330593+732430346
1538+728329446+725692040+727136404+730716782+733278042+734444819+736375200
1528+739999059+744265496+748321517+752674548+757266614+760697936+762783626
1518+764580327+765685156+765459879+765362691+767439111+772263886+779181781
1508+786092099+788271447+783886633+778741085+776906275+778075480+780843330
1498+783587490+784504196+783420334+782647755+784192030+787661609+790582636
1488+790762740+788710966+786517860+785601522+786127929+787576266+789728539
1478+793022723+797782018+803277253+807318265+807277580+803606929+800305683
1468+800118516+802443095+804591763+804806078+804817629+807585332+813782370
1458+820221312+821147583+816289922+811314767+808915880+808627846+809503352
1448+810542041+810854280+810571911+810625324+811502596+813172164+815612619
1438+818144597+818766280+816642626+814208425+813606091+814251391+814568633
1428+814445326+814961066+816310301+817782034+819367951+821673107+823933531
1418+823920877+821253158+818049321+815835909+814532362+813460860+812466830
1408+812141568+812921357+814282070+815336209+815968192+816589286+817310585
1398+818112078+819123324+820035690+820064383+819282902+818868986+819362212
1388+819618978+818249510+816222604+816276311+819564462+824552566+829076357
1378+832695434+836522205+841214329+846021225+849921347+852763578+854599934
1368+855203444+855059979+855491110+856900160+857783391+856547162+853800501
1358+851491666+850645221+850736156+850621825+849679074+848079768+846334273
1348+844873503+843975778+843936270+845081123+847313148+849734548+851168171
1338+851221142+850521841+849853661+849436508+849142441+849124048+849826513
1328+851278823+852848259+854045863+855250824+857195846+859916463+862638036
1318+864596153+865684061+866385717+867258648+868415640+869433876+869900542
1308+870009429+870430113+871611899+873364530+875141513+876651356+877993676
1298+879040384+879056496+877564531+875307050+873534923+872513082+871373820
1288+869212350+865783825+861416153+856824455+852818610+849792302+847623033
1278+846086262+845046912+844277423+843510215+842737194+842196661+842099399
1268+842502206+843317162+844368358+845541683+846753119+847660261+847780551
1258+847217799+846842067+847293799+848228898+849013911+849809591+851362842
1248+853818747+856329978+857956800+858607986+858914633+859406462+860141004
1238+861152765+862812916+865329591+868204488+870680184+872514038+874018290
1228+875709047+878060480+881123132+884252515+886621237+888026314+888881808
1218+889593396+890312782+891305341+893269050+896737820+900901771+903821988
1208+904675422+904949551+906414663+908989902+911464862+913307029+914905159
1198+916705244+918859430+921393615+924180447+926855817+929164504+931443174
1188+934207860+937102401+939158295+940356929+941838300+944327754+947257830
1178+949437104+950009715+949233752+948744498+950285095+953868195+957888166
1168+961128715+963762664+966412358+969242376+971986830+974233423+975672269
1158+976351117+976598466+976631206+976580588+976685207+976860235+976561459
1148+975841190+976166599+978842631+982893575+985983155+987379698+988465620
1138+990254742+992009065+992747654+993043413+994457980+997621059+1001543841
1128+1004636437+1006209920+1006653486+1006399957+1005794165+1005811013
1120+1007473371+1010174712+1011902696+1011661822+1010722308+1011060150
1111+1013238468+1016205992+1018551760+1019835738+1020519662+1020713157
1103+1020235307+1019689992+1020414749+1022862266+1025635413+1027206395
1094+1028201750+1030188486+1032692654+1033758418+1033524459+1034572123
1085+1037973354+1041620756+1043502579+1044076588+1044050690+1043219475
1077+1042425413+1043473298+1046675443+1050012151+1051318862+1050416355
1068+1048755101+1048275044+1050007295+1052658754+1053474005+1051521921
1060+1049172254+1049099344+1050954460+1052492555+1053451198+1055529825
1051+1058436947+1059447752+1057597786+1055806677+1057666796+1063418356
1043+1069739068+1073226672+1073741823+1073275377+1072325416+1069490174
1034+1064291066+1058306283+1053242842+1049535184+1047337884+1047694267
1025+1051041717+1055010334+1056212058+1054047572+1050679301+1048236566
1017+1047710968+1049407022+1052553178+1054929184+1054752464+1052768156
1008+1051099397+1050645017+1050763247+1050826004+1050606980+1049452489
1000+1046788081+1043487497+1041077354+1039516820+1037300906+1034064109
991+1031537869+1031431779+1033800206+1037465634+1040642838+1041329264
983+1038831938+1034871487+1031633439+1029236907+1026369073+1022641183
974+1018935364+1015776185+1012543876+1008672152+1004874516+1002185830
965+1000333288+998206471+995380793+992059977+988346875+984328743+979950330
955+974872248+969423069+964950336+962386501+961473694+961681461+962533204
945+962973164+961893201+959345111+956323732+953813163+952715396+953683750
935+955776357+956395244+954378196+952075173+952507114+955635099+958902576
925+960677572+961392324+961577578+960777262+958818777+956948505+956589621
915+957452988+957827837+956548936+954186615+952254027+951480933+951056276
905+949908553+948481994+948174831+949097276+949790250+949325349+948174831
895+946734513+944498809+941281140+938170077+936673403+937244395+938810374
885+939721636+939202365+937787135+936401996+935624267+935816143+936983215
875+938111146+937748510+935834242+933819033+932743705+932401007+932540352
865+933594197+935633537+937793021+939243712+939764087+938965169+936143759
855+931706047+927821890+926805861+929162444+933272393+936755730+938381302
845+938786684+939162563+939567135+939134385+937540375+935251258+932688085
835+930290596+929047745+929820987+931985473+933483324+932964495+931447956
825+930756086+931133951+931970979+933592799+936169583+938318692+939107089
815+939810364+941595807+943243672+942892439+940810133+938915434+938414410
805+938752840+938627547+938033307+938377109+939947649+940858690+939747312
795+938143076+938595912+941502150+944860562+946320009+945446930+944255139
785+945174567+948692041+953046617+955859052+955497666+951826059+946897548
776+943533839+942157529+940972579+939583909+939415062+940762311+942667677
766+945209514+948809021+952126968+953230694+952113284+950560180+950123236
756+950823273+951129185+949341902+945815379+942713071+941067046+939954712
746+938880414+938996879+941350003+945625269+950926789+956274954+960291099
736+961795939+960641228+957333581+952634320+947859869+944767420+944624028
726+947167116+950245734+951463791+951113073+951393677+951960769+950077622
716+945670663+942196816+942034811+943913838+945014769+943865943+941322561
706+939663440+940161743+941226918+940435136+937769257+934580282+931106362
696+927506266+925074346+923984010+922131468+918863403+917174780+919562483
686+923888881+925453756+922302082+916394844+910284768+905084335+901024562
676+897748845+894634398+891363095+887039420+880593561+874884600+876287028
666+883239650+887997621+887557881+884129208+879957753+875208611+871136330
656+870640455+874143289+878163407+879138382+877085136+874522037+872920450
646+871224322+867459131+861787765+857394564+856836153+858528528+858618727
636+855954687+853504962+854535190+858847021+863844542+867378570+868206328
626+865480120+859186923+851199586+844342460+840431818+840075288+843382420
616+849789947+856796203+860576771+860155498+858293539+855607060+849573719
606+840281510+832032624+827624782+826431593+828056723
##END=
