##TITLE=<SNM>
##JCAMP-DX=4.24
##DATA TYPE=INFRARED SPECTRUM
##DATE=2/5/2025
##SAMPLING PROCEDURE=Instrument type and / or accessory
##ORIGIN=Admin
##XUNITS=1/CM
##YUNITS=ABSORBANCE
##RESOLUTION=4
##FIRSTX=4497.3318
##LASTX=599.83466
##DELTAX=-1.4281778
##MAXY=1.8075912
##MINY=0.2681576
##XFACTOR=1
##YFACTOR=1.6834505e-09
##NPOINTS=2730
##FIRSTY=0.28291261
##XYDATA=(X++(Y..Y))
4497+168055202+168263921+168566556+169030077+169688208+170430163+171039753
4487+171154079+170488779+169405560+168784871+169014339+169519586+169455377
4477+168549473+167261801+166342584+166262549+166989757+168148037+169126948
4467+169286153+168617524+168023637+168394110+169617325+170921142+171853193
4457+172397352+172413639+171651130+170301798+169008497+168263443+168137450
4447+168520705+169219766+169821459+169806996+168993697+167881109+167385723
4437+167903150+168799175+169235292+169065289+168428437+167288090+166102689
4427+165961649+167153706+168432650+168496824+167462820+166223088+165218171
4417+164553490+164525820+165280220+166427134+167424068+167924411+167706132
4407+166867464+166093395+166130519+166944526+167746672+167849562+167311246
4397+166739577+166603617+166842397+167118813+167271768+167402877+167563976
4387+167462112+166686839+165297870+163839859+162675578+161750537+161003466
4377+160574944+160608438+161020744+161408902+161362715+161015752+160951348
4367+161478175+162307477+162883165+162808440+162064803+160958500+159945634
4357+159584295+160292137+161774313+163085848+163621137+163607223+163439185
4347+163127291+162573644+161935623+161479184+161186498+160754223+160091596
4337+159523219+159324626+159368884+159391384+159329919+159290459+159421710
4327+159834617+160404304+160678065+160310247+159673289+159631403+160522684
4317+161818163+162903630+163548059+163535631+162651520+161272571+160354062
4307+160516949+161420321+162208216+162446341+162394878+162365420+162205047
4297+161603637+160636445+159805903+159636024+160286100+161517228+162919545
4287+164022856+164343177+163696198+162472346+161361936+160813299+160862956
4277+161315784+161807559+161866935+161330389+160752913+160958677+161941784
4267+162668763+162312629+161261967+160599551+160927201+161906165+162706665
4257+162726864+162005462+161148171+160894804+161543570+162671206+163510847
4247+163630856+163216550+162832747+162970760+163681399+164556269+165015966
4237+164624904+163397989+161920239+160941593+160765677+161202130+161951592
4227+162729891+163228358+163219648+162681296+161901315+161469996+161837212
4217+162750321+163473281+163599575+163373471+163268438+163430262+163510298
4207+163131168+162526040+162336741+162723040+163168327+163257834+163188615
4197+163398308+164012889+164780408+165377924+165657279+165600204+165189740
4187+164500469+163829025+163513042+163574348+163702536+163661677+163563354
4177+163673592+164119303+164912350+166067531+167440567+168529008+168722344
4167+167931953+166876227+166465674+166859869+167409817+167544768+167308944
4157+166951873+166488954+165900095+165440168+165460296+165894943+166171165
4147+165895156+165399681+165230528+165394459+165557734+165650286+165811951
4137+166015785+166107363+166035949+165892607+165860900+166113435+166572583
4127+166839900+166597261+166060060+165801542+166071603+166467285+166375601
4117+165652021+164804378+164511197+164903232+165336392+165074829+164129040
4107+163178294+162833561+163214355+164030026+164823020+165279972+165476070
4097+165687445+165915550+165826539+165286806+164693344+164520810+164765378
4087+165103720+165365001+165537783+165547644+165366895+165176091+165170390
4077+165354963+165648109+165978644+166214219+166189116+165884251+165510095
4067+165357707+165495862+165616916+165346324+164730839+164208155+164092677
4057+164347709+164809742+165291338+165526099+165380154+165099206+165074121
4047+165416286+165892483+166163765+166081552+165824166+165650959+165588166
4037+165556973+165650357+166048128+166814018+167828265+168723193+169073290
4027+168924584+168846673+169202081+169701999+169881898+169624087+169055481
4017+168314074+167593434+167160203+167113608+167208267+167087248+166723414
4007+166525847+166941977+167996888+169236531+170065833+170133017+169517196
3997+168686583+168154587+168041623+168148515+168456602+169111423+169959207
3987+170691408+171333607+171987737+172323512+171950242+171137916+170675883
3977+171035946+171891361+172457737+172272562+171563181+170846523+170431828
3967+170422888+170892693+171781460+172757805+173447837+173771326+173835588
3957+173586399+172918868+172165069+172160873+173526563+175736124+177227665
3947+177170272+176692110+177193516+178226263+178289268+177130298+175826269
3937+175249873+175860683+177987412+181014574+182983356+182497883+180681242
3927+179800123+180561587+181631758+181742881+181517538+182280206+183826715
3917+184320065+182479738+179268109+176726065+175900905+176504599+178200257
3907+181592935+187343705+194424403+200094712+202194372+200333597+195278685
3897+189246737+185455189+185839400+189379457+192348411+192045812+190688213
3887+191702938+194510847+195995962+195949757+196128381+195367660+192140683
3878+189207560+189885023+193646546+198174401+202508124+205616668+205552140
3868+203410948+202548594+203219152+202516002+199242537+195788428+194970880
3858+198383298+206684821+217882946+223722868+217621648+206305957+197463887
3848+193412050+194201397+198642649+204597358+210385729+215443580+218751071
3838+218398956+214613835+210299727+207222854+204865861+202654104+201223161
3828+201052503+202046126+205251223+212120723+220196389+223141144+220284073
3818+216987558+214278981+209458050+203462110+200072388+201235766+206396898
3808+212800098+217269604+220260528+224155550+227589902+227059003+223931499
3798+221777756+220372500+218129940+215809238+215070770+216266049+219108940
3788+223546811+229043947+234286991+238966987+244722059+252699579+261302356
3778+268401183+274887782+283415852+295467409+310561653+326224628+339075109
3768+347698085+352683000+354597203+355027070+356540899+359583321+362044019
3758+363060816+365221446+371798012+383924046+399228569+411732458+418565720
3748+424733804+434898758+447237866+455253449+458500696+463456047+473876314
3738+489179739+506107531+520583901+530109701+534892588+537246536+540281700
3728+546206049+554641761+562999120+569287445+572807391+572524849+568193852
3718+562153584+558237867+559679361+566736779+574107685+574285106+567617191
3708+560325879+556232918+556042538+558164965+559491566+558854466+558435008
3698+559833201+562513170+565907601+570237748+575269859+579458417+580716861
3688+578707628+575338866+572515644+571415713+572942041+577551118+585152802
3678+594393794+600509584+598715691+593345840+591463113+591882075+588387905
3668+580202266+572428473+568131254+566355667+564777363+563220267+563764461
3658+566943764+570154720+572076288+575741010+583917195+593618256+595714446
3648+586220441+573257900+564644483+561504233+561342923+561527672+561466667
3638+562617901+566113913+571023377+576244451+582965582+592122555+598931174
3628+596206806+586502735+577860923+575055156+579103115+586887672+592328513
3618+593067370+593060643+595364350+598607490+600916331+603054655+605946636
3608+608131555+608122845+607071775+606925194+607910478+608954254+609763074
3598+611297580+614095806+617494309+620885943+624648635+629169374+633838536
3588+636962003+636782422+633676233+630000783+627570074+626344027+625233546
3578+623898376+622965918+622465486+621835892+621934817+625241547+632733082
3568+640737724+642952667+637867199+630459789+625691561+624543195+624858027
3558+624190974+622176642+620291614+619622719+619637236+619442997+619325024
3548+619949377+620683278+619981031+617379310+613967706+611132871+609641985
3538+609303997+609336854+609594753+610909670+613672702+616803604+618558762
3528+618044522+615673012+612431430+609021738+605644338+602442764+599674705
3518+597508551+596144066+595769468+596035864+596016957+595101352+593606288
3508+592470102+592602840+594174629+596111067+596655119+595098944+592614701
3498+591279709+592191703+594286088+595507816+594964684+593100227+590536568
3488+587880781+586076409+585889818+586815620+586977427+584894372+581321458
3478+578266785+576723533+576448922+576756178+576689295+575614928+573952358
3468+572627846+572122103+572481654+573443995+574235891+574102445+573052048
3458+571469956+569453040+566944437+564279834+562466433+562407624+563496790
3448+563830600+562589328+561132008+561043952+562310823+563666209+563780111
3438+562092543+559329051+557203296+556930031+558144288+559531504+560061075
3428+559206546+556612012+552677742+549179394+547969031+548699993+548969187
3418+547429936+545359415+544450006+544581080+544538450+543999178+543820306
3408+544522836+545198848+544514622+542621415+541093778+540901805+541411620
3398+541577710+541320201+541121572+540740671+539351897+537039056+534991336
3388+533838544+533005577+532042917+531356638+531354726+531858238+532377789
3378+532439042+531873534+531077637+530781676+531428159+532665677+533501725
3368+533367606+532817393+532504508+531871020+529865894+526936382+525122202
3358+525744502+527907965+529639719+529983053+529511584+529283284+529881048
3348+531012348+531619990+530774383+528583232+525947946+523722133+522447792
3338+522415466+523317617+524157382+524113443+523335816+522557905+522202604
3328+522227530+522386504+522129384+520867789+518837347+517021574+516018834
3318+515694938+515849911+516431069+517241871+517929319+518118672+517587967
3308+516626511+515949615+515908012+516200468+516572269+517124075+517739789
3298+517902729+517445599+516967473+517043243+517402757+517342956+516798939
3288+516406249+516489631+516815793+517516376+519209254+521576976+522921209
3278+522217935+520650642+520110662+521000633+522115823+522161674+521005129
3268+519582507+518800454+518698874+518639603+517952652+516381535+514397405
3258+513119417+513399941+514898474+516367515+516841179+516315467+515326146
3248+514222074+513033947+511728448+510282563+508834909+508007500+508531654
3238+510093565+511114504+510411407+508636457+507309219+506928283+506731283
3228+505937333+504615831+503354342+502478144+501812330+501124316+500601259
3218+500601543+500779459+500075017+498203301+496476999+496230962+496978352
3208+497109036+496120105+494934987+494125176+493214527+491892246+490690133
3198+490053317+489682720+489172658+488513925+487713956+486629888+485351440
3188+484208703+483345181+482632949+481916539+481013220+479567512+477378982
3178+475007968+473572706+473545195+474068464+473873836+472611214+470867705
3168+469205134+467778227+466696567+466071045+465641850+464972814+464188956
3158+463899510+464183468+464331784+463846719+462973212+462037460+460981753
3148+459728336+458448613+457295751+456260614+455413024+454882037+454436804
3138+453588116+452331584+451198337+450396492+449592487+448636590+447738900
3128+446924486+446061777+445379853+445268182+445549414+445477610+444582682
3118+443234200+442226184+441930082+441966515+441719167+441060965+440337722
3108+439648929+438639072+437217866+435946782+435369944+435374086+435406342
3098+435006499+434172186+433403517+433137050+433104865+432678433+431766403
3088+430893250+430528495+430674794+430917149+430745677+430034366+429131011
3078+428344816+427600506+426748561+425919807+425351325+425038935+424707002
3068+424090190+423256798+422585248+422319524+422293961+422205197+421929737
3058+421413549+420584406+419616789+418899176+418497067+418008709+417130846
3048+416049115+415139989+414531144+414063746+413598968+413207765+412928056
3038+412512386+411713197+410687124+409764473+408924283+407856608+406512516
3028+405288806+404586523+404292439+403853119+402994057+402139067+401784616
3018+401712776+401357191+400742291+400392195+400445764+400457448+399932374
3008+398669292+396914452+395414007+394828175+394968065+395015333+394449435
2998+393412492+392367017+391746629+391674046+391748258+391340095+390212973
2988+388681972+387250745+386301079+385962489+386039887+386200880+386301398
2978+386295875+385915364+384913721+383596432+382564199+381972667+381516493
2968+380999420+380438161+379749226+378811138+377811230+377176751+377061326
2958+377053431+376565745+375498531+374322477+373501548+373061909+372743748
2948+372355731+371868294+371299493+370692948+370148153+369674842+369093649
2938+368312162+367581944+367214109+367146270+367048195+366750712+366315605
2928+365772650+365011381+363922426+362567465+361197244+360077168+359293840
2918+358820105+358690412+358886066+359131609+359078676+358620413+357860029
2908+356971474+356197529+355727936+355531857+355491848+355524244+355354755
2898+354569515+353240648+352092707+351686315+351777379+351745443+351349070
2888+350800486+350324768+349902265+349387990+348765194+348254494+348063159
2878+347983708+347528914+346639864+345877922+345641443+345586599+345161901
2868+344407536+343814269+343561221+343349810+342980346+342621964+342373731
2858+342024732+341466234+340902000+340422635+339785004+338837923+337848460
2848+337209201+336996126+336923366+336644754+336060445+335374485+334844985
2838+334497260+334185225+333898257+333788746+333857434+333843767+333516932
2828+332906706+332185162+331462237+330766965+330125687+329544565+328968116
2818+328389118+327943212+327721675+327579306+327323284+326954705+326547144
2808+326065690+325464527+324846759+324430205+324306035+324215856+323767117
2798+322968034+322214518+321643699+320985957+320193389+319646362+319497302
2788+319301328+318592212+317494017+316489436+315822807+315368687+314918107
2778+314391440+313829720+313290235+312768807+312239909+311711294+311164090
2768+310548411+309937583+309525596+309355859+309196247+308756289+307950939
2758+306980844+306190683+305756496+305508829+305139472+304510019+303713096
2748+302971158+302501990+302314160+302109548+301567266+300746124+300000433
2738+299490761+299037632+298477045+297847593+297186098+296471388+295811132
2728+295399110+295253980+295184371+294984096+294554972+293928831+293249049
2718+292659623+292168521+291659025+291062997+290478050+290052768+289789417
2708+289568960+289325577+289029050+288570469+287896493+287182863+286659559
2698+286355207+286172032+286053068+285933536+285693535+285288789+284824630
2688+284437392+284169155+283957231+283696216+283312519+282789250+282154221
2678+281501437+280972060+280617945+280328499+279979730+279601343+279316659
2668+279139557+278909470+278492030+278006540+277707517+277629446+277526148
2658+277204058+276752009+276393397+276231236+276175011+276071288+275875315
2648+275632517+275303380+274797673+274213098+273780098+273517791+273225176
2638+272819102+272379516+271910011+271368349+270858358+270521007+270339922
2628+270217133+270095530+269934627+269721906+269506618+269301953+269054481
2618+268792156+268645645+268646424+268643166+268489149+268228329+268011838
2608+267863804+267646552+267282469+266870252+266542568+266325350+266152426
2598+265949194+265746901+265699386+265858820+266001560+265855616+265416844
2588+264894514+264469586+264238613+264256759+264471887+264669914+264637588
2578+264404810+264203118+264142875+264096368+263975527+263912876+264012208
2568+264102175+263936421+263529762+263118165+262872959+262828701+262992083
2558+263295444+263515423+263483823+263340870+263352961+263511422+263516308
2548+263171115+262625700+262166074+261896809+261726611+261548748+261298603
2538+260917189+260398169+259846770+259434217+259295956+259414248+259574284
2528+259559201+259416390+259380523+259535904+259711466+259688487+259380028
2518+258865504+258357283+258049019+257933435+257878343+257864216+257955847
2508+258078017+258076087+257972240+257926230+257988421+258062703+258022588
2498+257796165+257472357+257276791+257279624+257268453+257073913+256806225
2488+256620660+256473317+256236574+255891310+255521474+255207881+254975120
2478+254823759+254766418+254782386+254790158+254737279+254645081+254505244
2468+254261118+253939063+253631277+253328128+252966666+252636804+252505730
2458+252551440+252601964+252603080+252621137+252638734+252570984+252429518
2448+252286725+252124989+251866754+251521437+251204586+251023041+250981474
2438+250976871+250869519+250615905+250347879+250245042+250308437+250357775
2428+250284006+250195402+250262816+250501365+250752130+250841336+250734427
2418+250544349+250403927+250360873+250398581+250492071+250580038+250540950
2408+250314332+250042713+249977990+250222329+250628704+250960195+251110831
2398+251190973+251404065+251867480+252657233+254026109+256457154+260528836
2388+266840582+275982631+288440262+304544151+324450988+347984416+374523549
2378+403290089+433732512+465268669+496611649+525890553+551650182+573257971
2368+590376461+602833507+611126781+616010859+617338663+614516999+607559532
2358+595947207+577966221+552913512+522955376+493383380+470884169+460102970
2348+462405685+476342429+496977467+516615429+530010706+536811641+538653863
2338+537947686+537306479+537639085+537785384+536303173+532876734+528099902
2328+522724598+517187275+511180395+503742394+494345402+483633742+472657454
2318+461919947+451463459+441248123+431107635+420664035+409595408+397975507
2308+386245067+374888339+364201428+354273307+345030261+336307970+328012395
2298+320212473+313014208+306402624+300269308+294526258+289141642+284143857
2288+279638715+275736930+272426234+269587415+267147395+265134497+263569205
2278+262358135+261322007+260321285+259343648+258451375+257661055+256918533
2268+256173303+255433118+254763533+254263898+253993164+253874907+253714977
2258+253360684+252825767+252243476+251728687+251298023+250886621+250426003
2248+249915941+249425565+249038734+248808629+248716891+248642874+248436049
2238+248069488+247678940+247422492+247328613+247302695+247284691+247342651
2228+247526923+247705530+247715886+247638736+247722950+248051395+248437394
2218+248659374+248691788+248666667+248682582+248753377+248920920+249246551
2208+249661264+250004510+250251468+250539940+250955291+251432602+251876367
2198+252260843+252615259+252990548+253418060+253849875+254192058+254438769
2188+254696491+255027238+255344992+255520128+255552047+255597190+255805591
2178+256152502+256484240+256688251+256733978+256623511+256411073+256192776
2168+256005902+255820780+255635234+255480084+255357508+255248279+255158507
2158+255118551+255143371+255218874+255329838+255475021+255671242+255989615
2148+256511822+257216919+258116379+259525972+261874025+265203982+269190565
2138+273582690+278305988+283274245+288431322+293887954+299817879+306267337
2128+313144680+320381856+328002588+335935957+343910078+351693537+359221611
2118+366342761+372744740+378228882+382766369+386279942+388619125+389738812
2108+389768872+388914555+387361638+385283185+382806625+379918857+376546803
2098+372725479+368566733+364202985+359840796+355621718+351400940+346860905
2088+341773171+336082928+329904186+323436317+316813049+310143258+303642638
2078+297564343+292102311+287383368+283374887+279878698+276785928+274219153
2068+272331098+271054172+270059504+268993051+267803419+266703188+265836142
2058+265202477+264768627+264415715+263994186+263563257+263335329+263406124
2048+263734446+264244915+264873695+265664936+266741781+268122217+269790063
2038+271902541+274629033+277875095+281370115+284899762+288360775+291714418
2028+294942246+298050364+301069135+303927127+306423160+308456576+310027621
2018+310896915+310677927+309400754+307553752+305540766+303444717+301196952
2008+298696386+295878422+292847772+289853608+287062004+284425921+281808763
1998+279248432+277126182+275912863+275539912+275198171+274113908+272358608
1988+270516617+268952245+267765658+267002902+266582046+266296565+266041038
1978+265876151+265877727+265998480+266060954+265994709+266083685+266644980
1968+267407400+267666061+267208417+266570007+266235436+266159968+266187850
1958+266408944+266878927+267374012+267651278+267738218+267847270+268149834
1948+268753722+269851670+271575352+273401570+274123591+273170332+271494077
1938+270374992+270112773+270305932+270650328+271068228+271482534+271806855
1928+272177311+273090792+274891464+277051528+278713620+279974808+281379657
1918+282353594+281846276+280397116+279731992+280687677+282621708+284316020
1908+285066402+285098710+285092302+285435423+286048305+286748729+287571216
1898+288684778+289970166+290934543+291491288+292321087+293659584+294452453
1888+293779080+292296072+291120302+290473394+290077623+289809350+289605641
1878+289372491+289116380+289010834+289613129+291841775+295910270+299941340
1868+300780079+297664684+293237860+290098850+288737604+288363891+288218371
1858+287998977+287726331+287556257+287624520+288070409+289097172+290919584
1848+293828985+297881052+301645407+302226671+298977016+295001622+293003312
1838+292985467+293578220+294139321+295554862+298846721+303069906+305571888
1828+305472538+304520287+303531568+301609328+298903088+297037109+296793425
1818+297379629+297859277+298431123+299961380+302508186+304766502+305391812
1808+304624382+303935022+304610432+307021950+310421622+313179767+314055859
1798+313633215+313956120+316724958+321516449+324907587+323478096+318894900
1788+315594154+315437658+317259203+319397138+321351562+322949906+323799620
1778+324473755+326742374+331910728+339032020+344345965+344558190+340934645
1768+336589839+333392798+332698623+335024246+338501953+340292411+340443242
1758+340903027+341902262+343092690+345926039+351814131+358998623+363265110
1748+362997084+360694652+359208794+359712200+361978199+364636535+366124871
1738+367302978+371283135+378793753+384485766+382758296+376773438+371349805
1728+367705653+366112621+366610397+368420045+371468734+377468888+387597656
1718+398835630+404003312+400446614+393377122+387760099+385471617+387053851
1708+392189455+398837578+404174430+408441236+414819244+423802975+430492806
1698+431559454+428802972+423118324+416233334+412300976+413086675+417162075
1688+423512608+433459246+446293688+453650785+449492535+441152880+436232475
1678+436617801+441061815+446391728+450320510+454298330+459664322+463245486
1668+461711935+458616262+459286998+464030973+468723503+470250468+470736560
1658+474431803+484188947+500795002+519021283+525242406+520563897+519403210
1648+524694565+529259279+526413644+520040487+516690065+518425360+525393343
1638+537187337+550337461+556762560+553693016+549271485+550016432+556194750
1628+564936018+573957704+583303605+592714334+600202470+605929499+613456582
1618+624759456+636068349+641452646+642154186+643300144+646611264+650785730
1608+654192235+656455614+658187616+659892072+661541366+663024250+664610237
1598+666964185+670729992+675728644+680738343+684731813+687926588+691008984
1588+694110004+697033992+699755528+702325738+704863869+708053546+713207844
1578+720857078+728412910+731591611+731971095+735522978+744411643+755233488
1568+763403123+769565932+777147611+787709149+802475745+824133102+851132410
1558+868385231+868509649+864205809+862105936+861606849+861272544+860151865
1548+859157658+861220709+867681214+876412816+884391541+887663219+879845026
1538+863992876+851535050+846259804+844340220+840661866+835454104+832738021
1528+833734140+836283531+838853811+842238435+845940086+846953695+844767644
1518+841832821+838626361+834580986+831223980+831106502+835795208+845538296
1508+857307399+860871249+849592026+834683735+826176821+824958067+828450255
1498+832458170+832633573+828963716+826374033+828559944+834138054+837406616
1488+834456073+828286962+823569222+821391456+820392221+819666535+820041982
1478+822915694+828683724+836270218+842464256+842288995+835123410+827513689
1468+825042334+827696810+831277585+831949666+831252021+833457405+839996866
1458+847057790+846903560+838529277+829550964+824375776+822841766+823076934
1448+822897637+821512899+819895825+818665388+817568786+817524811+820520816
1438+826115780+829489570+827005185+822357692+820243160+820622928+820838623
1428+819754908+818691022+818719064+819572283+821120598+823597052+825497658
1418+823678557+818045212+812071897+808058034+805744873+803931224+802336103
1408+801767903+802378873+802852467+802391549+802274992+803921240+806966884
1398+810181487+812819747+813935469+812404928+809331738+807613827+808154268
1388+808591181+806421203+803045785+802323711+806022317+812776693+820025129
1378+826120666+830864748+834319264+836091062+836566285+837305213+839032188
1368+840980097+842842607+845450347+848666932+850540064+849734855+847338703
1358+845284929+844555844+844960324+845687852+846066628+845891438+845227217
1348+844428523+844183512+844938797+846675544+849501032+853465115+857442580
1338+859497912+859081818+857670455+857086960+858182854+860606977+863073092
1328+864371935+864713109+865623687+868253308+872298045+876694225+880777272
1318+884470568+887820210+890821172+893544124+896084804+898313768+899902800
1308+900938433+902364100+905257923+909522533+913670657+916252904+917309851
1298+917957431+918615491+918537881+917257804+915335104+913570315+912376275
1288+911770758+911266361+909959163+907333649+903815756+900234982+897157826
1278+894963843+894009432+894371638+895532609+896642594+897370192+898102960
1268+899134981+900238381+901244555+902523641+904412422+906406855+907603444
1258+907929819+908349312+909785530+912319909+915405208+918204496+919788358
1248+919575213+917638421+914631936+911735281+910178823+910323493+911413438
1238+912271402+912033685+910567158+908607423+907026889+905826051+904476365
1228+902994544+901992264+901863456+902350858+902839110+902911976+902664770
1218+902569740+903191898+904879926+907293002+909428919+910856569+912348517
1208+914307898+915828100+916482478+917538363+920117707+923447310+925955771
1198+927244204+928219999+929892307+932502030+935445633+937817072+939189843
1188+939965168+940961641+942599180+944483641+946040029+947375977+949078450
1178+951511354+954797973+958822600+962759561+965519406+967122034+968659373
1168+970713218+972827253+974453816+975428904+975498087+974289602+972235969
1158+971046745+972457612+976319087+980301014+982165506+982192698+982511213
1148+984436321+987271156+989473920+990307312+990145576+989896812+990684601
1138+993328880+997273064+1000631062+1002116991+1002219032+1002003904+1001863341
1128+1001645876+1001030374+1000001114+999367201+1000035388+1001959150
1120+1004024183+1004822594+1004361676+1004913022+1008865844+1015470453
1111+1021066408+1023156793+1022930759+1023231287+1025044582+1026305752
1103+1024785479+1021562096+1019141088+1017984012+1018114661+1021193588
1094+1027628246+1034316555+1038465457+1041289176+1045085928+1049158920
1085+1050743773+1048606511+1044501654+1041174176+1039175565+1037070452
1077+1034657092+1033871923+1036407151+1041627872+1047106420+1050684433
1068+1052033977+1052588509+1053738291+1055324491+1056292780+1056952682
1060+1059318526+1064181644+1069094401+1070993733+1070280155+1070074516
1051+1072002031+1073741823+1071659936+1066161136+1061383631+1060221315
1043+1062203285+1065576295+1068997600+1070432473+1068193099+1063429403
1034+1058765906+1055620628+1054076633+1053870427+1054812304+1056887251
1025+1059949466+1063761867+1067553734+1069546609+1068288909+1064381406
1017+1059509933+1054671246+1050719980+1049261031+1051056481+1054345154
1008+1056843276+1058512893+1059728247+1058898113+1055145902+1050983332
1000+1049688030+1051202284+1052181337+1049753744+1044562199+1040261474
991+1039846867+1042448305+1044838509+1045456844+1045122184+1044609502
983+1043891392+1042885572+1041695498+1040521143+1039473048+1038018206
974+1035171757+1031177721+1027750185+1026251227+1026412608+1026829694
965+1025907078+1023060275+1019694912+1017824826+1017234887+1015277489
957+1010266374+1003409389+996706423+991144174+987419438+986247916+986995625
947+987492233+986179441+983586075+981192189+979789677+979247891+978738183
937+977152479+974311624+971576422+970404334+970489663+970091555+968342204
927+966223566+965004246+964932371+965471608+965734322+965098710+964162569
917+964207676+965365318+966617495+967642577+968862959+969914382+969757816
907+967951178+964979178+961896711+959902066+959491070+960006160+960486056
897+960591991+960376580+959804557+958931935+958156821+957966194+958542820
887+959404466+959132830+956409240+952143426+949263554+949222483+949820848
877+947925127+943623695+939988961+939566352+942368331+946300052+948793926
867+948900569+948077445+947968748+947917692+946388143+944344849+944588302
857+947492251+949686942+948130908+943795132+939626401+937004145+935912995
847+936845100+940215986+944689635+947959330+948925495+948488228+948152789
837+948538859+949388821+950335726+951241275+952018584+952515121+952498055
827+951607588+950016786+949061880+949755347+951104112+951841199+953108175
817+956956479+962650581+966401447+965147783+960034202+955308602+953773105
807+954522159+955116488+954790184+954450001+954641903+955397613+956825476
797+958157529+957779249+955657637+953903116+954043891+955434932+956424677
787+955836367+953894265+952605690+954244716+959015210+964566129+967726065
777+967139596+964497582+962391549+961128183+959515005+958321885+959289254
767+961018849+960590504+958627724+957704188+957220964+955171084+952985033
757+953555427+956182782+957370520+956345651+955991801+957745330+959173193
747+957862525+955256555+954242945+954977979+955349461+954519964+953742159
737+954495887+957525599+961708633+963397936+959942570+954869777+954544960
727+959494752+963734720+962915349+959584047+958586653+961119119+964507142
717+965771570+964351213+961834113+960260093+960916383+963911326+968070921
707+970960566+970380258+967209275+965025277+964986897+964132757+960098074
697+954517414+950464392+949087797+950063806+952343117+953240099+950185107
687+944182051+938786849+935892743+934274395+932227985+930235889+929621803
677+929811368+929115494+927143579+924688865+921444662+915915200+909843101
667+909284532+915347779+923383437+929160247+929276238+923096009+914844090
657+910021478+910472624+913376714+914349111+911400409+905750707+899596395
647+895011216+894389979+898972112+905171531+905379012+896989363+887155352
637+883947972+887785158+892431518+891245409+883224693+872469341+863763797
627+859687477+859502444+860249941+860646278+862129020+864519083+865386536
617+864765015+865422013+866808592+866356879+866499920+870776781+875809353
607+875078001+868486139+862149060+861091689+865144286+870123111
##END=
