##TITLE=<SNM>
##JCAMP-DX=4.24
##DATA TYPE=INFRARED SPECTRUM
##DATE=2/5/2025
##SAMPLING PROCEDURE=Instrument type and / or accessory
##ORIGIN=Admin
##XUNITS=1/CM
##YUNITS=ABSORBANCE
##RESOLUTION=4
##FIRSTX=4497.3318
##LASTX=599.83466
##DELTAX=-1.4281778
##MAXY=1.8471017
##MINY=0.34038156
##XFACTOR=1
##YFACTOR=1.7202475e-09
##NPOINTS=2730
##FIRSTY=0.35705712
##XYDATA=(X++(Y..Y))
4497+207561484+207394182+207712328+208260317+208557743+208426043+208216868
4487+208429005+209048493+209563600+209770246+210011038+210367870+210358948
4477+209834225+209397875+209480235+209689566+209445430+208719398+207917120
4467+207387218+207205224+207386022+208185216+209723020+211200898+211325322
4457+209952413+208431795+207907730+208200669+208522644+208386872+207835349
4447+207413412+207703926+208617270+209503900+209952915+210006794+209742319
4437+209093224+207980891+206636931+205819027+206067511+206713886+206650323
4427+206103598+206318352+207569141+208756645+208877622+207967292+206702417
4417+205729685+205317016+205385153+205690947+205922523+205883231+205755775
4407+205953655+206594295+207289975+207570839+207405997+207138629+206904559
4397+206474289+205892482+205681540+205961919+205991491+205117751+203742554
4387+202866215+202917079+203346015+203413494+203130724+203049421+203280442
4377+203290542+202657906+201584189+200707849+200719561+201880801+203542145
4367+204501642+204200041+203257695+202671904+202737286+202824844+202200021
4357+201053784+200353530+200461479+200621678+200238478+199760549+199762247
4347+200085625+200339826+200493269+200670307+200870872+201011893+200988384
4337+200680702+200057663+199315484+198812920+198764377+199127566+199851104
4327+200866940+201686039+201680842+201008065+200489284+200558981+200964823
4317+201366906+201684393+201862939+201699137+201114714+200505587+200432114
4307+200910303+201465742+201779643+201726492+201131415+200161263+199431056
4297+199206877+199174498+199170687+199347725+199650643+199900305+200193071
4287+200623012+200980519+201070727+200862297+200233645+199178812+198198786
4277+197867785+198145773+198501322+198550714+198429426+198650503+199505066
4267+200607801+201360444+201680686+201759703+201482616+200831563+200421061
4257+200816387+201682817+202227913+202192415+201972689+201973209+202143820
4247+202093891+201588451+200917527+200634169+200874822+201127257+200805317
4237+199925547+199084463+198790935+198919933+198943355+198718103+198794331
4227+199643748+200854709+201528248+201288287+200612704+200265522+200498518
4217+200861968+200940673+200981853+201425653+202157870+202690978+202754039
4207+202371446+201722473+201163552+201061511+201407306+201827251+202039527
4197+202133460+202306878+202471599+202295790+201624953+200732745+200133527
4187+200137113+200543545+200890432+201025822+201128833+201204818+201141272
4177+201235933+201940830+203033915+203756725+203812909+203622271+203614804
4167+203794926+203913460+203615046+202614854+201187113+200209079+200271014
4157+200991624+201582751+201781999+201833158+201906770+202001708+202155566
4147+202359423+202432757+202279263+202130636+202219615+202359804+202241669
4137+201993323+201995367+202265524+202496321+202687964+203217918+204105172
4127+204650320+204148881+202713275+201059882+199749202+199000907+198968025
4117+199660397+200660432+201349859+201491434+201352249+201269404+201308678
4107+201312282+201122562+200820580+200778880+201240264+201867582+202080292
4097+201764259+201256029+200802008+200449629+200167760+199730387+198963521
4087+198289999+198402850+199288042+200114574+200170082+199559170+198980949
4077+199023585+199667153+200424422+200954082+201348455+201699033+201722975
4067+201214243+200555100+200202444+199951759+199378649+198662578+198260686
4057+198204381+198336480+198705508+199245199+199627342+199724289+199760012
4047+199989613+200491138+201008446+200962640+200113760+199048983+198467297
4037+198327957+198234855+198256736+198799043+199901813+201054979+201599712
4027+201246865+200383623+199881179+200408241+201853896+203419886+204219738
4017+203924599+202953495+201971685+201292826+200915136+200910909+201357984
4007+201965777+202257850+202148584+201995229+202121298+202502384+202859770
3997+202978425+202932429+202928652+202983778+202955678+202801941+202589387
3987+202371896+202198912+202075458+201918256+201764294+201866040+202355265
3977+203040083+203662377+204054671+204068825+203788550+203692556+204093235
3967+204598780+204685333+204575340+204935723+205885587+206818959+207126294
3957+206731210+205984995+205359704+205296106+206069296+207448841+208576765
3947+208758984+208391498+208405756+208896748+208972819+208064898+206758791
3937+206087798+206569625+207991217+209630507+210563965+210353577+209660444
3927+209561192+210194210+210634164+210342784+210048736+210606964+211694766
3917+212046452+210798659+208473720+206504901+205909564+206602368+208098351
3907+210565299+214368395+218568306+221133605+221267558+219833891+217588349
3897+215089715+213595066+214226733+216402907+217736040+216695916+215170585
3887+215806704+218368763+220478014+221358476+221899293+221530422+219469541
3878+217541470+217916925+220320344+223122226+225315413+226127964+224979457
3868+223183485+222519820+222576818+221649007+219513458+217679251+217449425
3858+219467393+224230591+231026813+235343006+232797318+226650157+221574616
3848+219081283+219028132+220762550+223578621+227004927+230590514+233273463
3838+233750162+232332694+230713517+229508378+228155893+226678968+225957318
3828+226169542+226672194+227708767+230279159+233680899+235410034+235200651
3818+234894563+234290286+231970873+228773891+226962326+227855782+231329332
3808+235375524+237489487+238308257+240252648+242879189+243570711+242509780
3798+241680563+240944881+239438590+238105717+238543384+241025301+244724571
3788+248816620+252856229+256776628+261206141+267139449+274638644+282482613
3778+289987144+298260447+308552862+320735823+333500019+344916858+353525025
3768+359458680+363176158+364551615+364696551+365779571+368115841+369730132
3758+369718975+370181191+373688073+380831425+389756594+397441715+403364733
3748+410091397+419166007+428699576+435053522+439024353+444947856+455066748
3738+468653647+482783494+494273027+502673197+509980334+517752596+526331000
3728+535348890+543688529+550237825+555485155+560485992+564768386+567064463
3718+567154827+566445565+567094504+569457418+570247066+566402843+560113205
3708+554707010+550924323+548913649+549055709+550708668+552214266+552723466
3698+553105054+555124945+560059153+567470409+574850378+578684553+577665945
3688+575302234+575277252+576755650+577513213+577421116+578029170+580506876
3678+584227750+586190401+583552097+578321571+573824840+570549343+567848671
3668+565626257+564002611+563026171+562465240+561677879+560742914+560734945
3658+561687269+561798042+560303982+559187075+560731445+564970978+568169624
3648+566288675+560866299+555921141+553271126+552242713+551383594+550249016
3638+549696401+550532340+552387510+554363467+556428574+558764186+559744853
3628+557595548+554373445+553490072+556491219+562760275+569398446+572424887
3618+570814580+567737310+566117925+566474115+568456204+571828718+575747714
3608+578755757+580274659+581448009+583853473+587360078+589775936+589704005
3598+589043944+590636614+594619364+598762815+601541586+603245618+604022723
3588+602616394+598632120+594577993+593079221+593921050+594883596+594507656
3578+593257386+592209396+591809132+591942738+592638834+594432814+597654813
3568+601490721+604392703+605383523+604301092+601505412+598331021+596687347
3558+597170422+598259298+597796389+595225165+592444454+591896794+593780792
3548+595914054+596461506+595916410+595341169+594125340+591247751+587264447
3538+583502272+580434633+578152831+577421671+578891996+581807526+584478330
3528+585983131+586632936+586735774+586007178+584329410+581994699+579058484
3518+575484244+571943822+569517638+568655054+569059268+570196687+571490545
3508+572278149+571874940+570057502+567479868+565230359+563754005+562491573
3498+560741701+558846130+558376638+560396009+563219269+563193733+559134374
3488+554434462+552917500+554445931+556007729+555798207+554664496+554052978
3478+554281626+554809294+554961298+554179238+552274694+549656313+547037724
3468+544991915+543826882+543286602+542196860+539518432+536160783+534388458
3458+535194737+537455092+539528238+540645872+540855740+540240376+538497330
3448+535557650+532192447+529445415+527657706+526435259+525463462+524952806
3438+525120576+525531027+525468105+524827308+524029795+523203696+522179406
3428+521100025+520236332+519474646+518720929+518324268+518378598+518292357
3418+517656619+516755506+515893164+515033595+514260059+513752591+513266849
3408+512349970+511028012+509786681+508966958+508389638+507541364+506141307
3398+504538104+503479338+503411045+503994220+504465826+504535055+504548048
3388+504551790+503971317+502748732+501833378+501841278+502063931+501409553
3378+499852501+498545580+498505803+499462632+500237416+500188734+499729429
3368+499396765+499231247+499226327+499685424+500885800+502494028+503398294
3358+502675311+500899868+499612731+499364714+499346489+498993590+498719552
3348+498819792+498735976+497799729+496132667+494523850+493692762+493751111
3338+494251857+494774951+495276597+495610301+495071684+493288341+491313182
3328+490665525+491413525+492174102+491878721+490694976+489480880+489048947
3318+489567952+490249461+490047770+488856334+487488431+486476995+485582361
3308+484487491+483303123+482345602+481913184+482164353+482800749+483217783
3298+483436348+484170697+485519612+486594143+486828300+486564033+486127942
3288+485471658+484870465+484952271+485747532+486361303+486063599+485460952
3278+485848118+487379598+488758554+488906193+487966135+486490855+484803143
3268+483265148+482207006+481608308+481380977+481615827+482236388+482849396
3258+483096720+482892707+482378587+481824621+481383402+480889205+480184863
3248+479532355+479304504+479335446+478999490+478048829+477007145+476501029
3238+476510453+476550681+476254086+475463850+474215797+472911890+472111467
3228+471916082+471766260+470929039+469151067+466958520+465293538+464593249
3218+464437121+464272089+464001654+463729834+463411099+462948398+462365465
3208+461840119+461618782+461698336+461587494+460754743+459357700+458079884
3198+457197031+456328972+455266742+454442653+454220103+454152122+453396707
3188+451712391+449720738+448211191+447338212+446648145+445849419+445176954
3178+444770453+444169053+442918090+441301234+439916977+438878827+437906130
3168+436899233+436054008+435536562+435166096+434489196+433296789+432004178
3158+431215431+430951234+430720056+430173851+429363934+428513304+427727156
3148+426925103+426047239+425197857+424438665+423710866+423116048+422741494
3138+422118507+420673753+418818548+417696583+417775790+418386823+418596969
3128+418032989+417006481+416204221+416048544+416184506+415871834+414924395
3118+413866045+413127609+412534766+411695605+410550356+409394989+408561094
3108+408130097+407840502+407352680+406685551+406150780+405809350+405385456
3098+404784332+404235598+403836062+403377518+402728614+402028049+401430737
3088+400967654+400627818+400369545+400094884+399721300+399264939+398811974
3078+398415002+398003893+397415971+396553630+395494483+394461046+393704210
3068+393304466+393069720+392778531+392479303+392332877+392295768+392228272
3058+392104957+391868651+391325080+390392470+389256403+388170507+387238106
3048+386440662+385776374+385265580+384822733+384282661+383623535+382986446
3038+382439929+381918083+381361899+380740922+380050231+379392422+378831110
3028+378160169+377170112+376095200+375386631+375091630+374809380+374240862
3018+373530560+373023369+372851511+372849709+372761251+372392240+371667559
3008+370703523+369752723+368984627+368370545+367762076+367020417+366154957
2998+365354187+364697452+363925995+362781646+361438448+360327778+359688472
2988+359467169+359452859+359359862+358968087+358291914+357482551+356617403
2978+355806862+355391318+355650630+356318453+356739610+356521842+355694669
2968+354366959+352769819+351503506+351089833+351279813+351304136+350800688
2958+350074274+349449382+348792647+347850960+346814889+346169658+345987855
2948+345794688+345289680+344781589+344623174+344644484+344480906+344094571
2938+343652867+343153300+342477543+341733805+341262441+341193871+341210052
2928+340898559+340164176+339168055+338101182+337124672+336282531+335432906
2918+334466410+333534078+332919511+332759191+332898549+332945186+332566682
2908+331820657+331112538+330838985+331099683+331621391+331913377+331639305
2898+330875713+329950484+329115619+328459820+328016141+327781221+327623361
2888+327318936+326792135+326235535+325912573+325935510+326211870+326442874
2878+326234946+325419450+324266301+323289965+322830174+322801970+322844969
2868+322702112+322352886+321804844+321011420+320054799+319190171+318623696
2858+318352534+318223744+318061622+317732839+317205067+316651898+316380043
2848+316451454+316519227+316260504+315754873+315252568+314861071+314582390
2838+314352044+313983519+313358106+312684428+312336865+312405366+312556089
2828+312402837+311924440+311395698+310969655+310497460+309773334+308847446
2818+308032124+307574862+307391708+307245975+307082017+306949623+306739027
2808+306287622+305656562+305096428+304806798+304750320+304633727+304194345
2798+303540797+302996429+302635977+302262392+301789886+301345271+300987764
2788+300558222+299879901+299025321+298293190+297897223+297746015+297594773
2778+297332862+297014820+296694491+296347344+295902037+295286326+294529110
2768+293834296+293407421+293178011+292853074+292280986+291603809+291017792
2758+290524011+289985117+289351181+288726826+288201289+287730307+287274172
2748+286945874+286864830+286899427+286720119+286151756+285347590+284543511
2738+283772279+282945002+282097785+281395158+280940807+280682881+280470206
2728+280185150+279844153+279533422+279284764+279080630+278857249+278446712
2718+277754843+277021309+276575170+276345812+275960516+275283391+274555279
2708+274051883+273820394+273724434+273646456+273612050+273657475+273617213
2698+273217451+272416924+271504567+270783974+270261157+269764985+269311709
2688+269130997+269295614+269542678+269558270+269281893+268874388+268514126
2678+268243917+267937257+267440929+266795299+266251918+266025730+266073667
2668+266147209+266040889+265761966+265449260+265168742+264851688+264423254
2658+263920274+263450868+263066214+262712518+262326096+261949584+261703456
2648+261624526+261566281+261319633+260873009+260487575+260391113+260442150
2638+260295586+259891285+259534211+259477404+259659034+259838896+259797906
2628+259463891+259010441+258736403+258734134+258808958+258767587+258615323
2618+258451122+258333749+258246503+258095884+257801559+257434680+257154803
2608+256995107+256838009+256588242+256254730+255909748+255654264+255578626
2598+255700694+255943912+256149154+256154248+255966399+255793657+255776835
2588+255786450+255609446+255237317+254886463+254803877+255043682+255384159
2578+255538017+255435058+255179471+254846755+254523914+254388368+254508929
2568+254698007+254752406+254722937+254810668+255113309+255566326+256020676
2558+256303775+256304503+256081468+255828358+255665543+255508999+255190368
2548+254669509+254077983+253575990+253216820+252953454+252726850+252515042
2538+252325599+252170233+252045809+251947666+251887758+251853594+251764166
2528+251559010+251318910+251193932+251219174+251275980+251222517+251014381
2518+250696426+250316882+249919858+249634438+249635720+249919823+250219987
2508+250248918+249970463+249578757+249273275+249103548+249003464+248919198
2498+248869425+248900609+249013565+249134714+249163698+249064187+248886611
2488+248701292+248551089+248466390+248469681+248545683+248625618+248625445
2478+248511520+248311907+248061881+247781329+247486606+247162916+246774658
2468+246361141+246033034+245836366+245720154+245628317+245517943+245341875
2458+245110074+244906858+244788377+244718542+244633998+244541139+244518427
2448+244608584+244726615+244703556+244406754+243843172+243209514+242769958
2438+242587341+242476725+242308037+242177185+242188585+242293242+242428823
2428+242586856+242666722+242497306+242101131+241757691+241721431+241983307
2418+242336882+242589178+242691825+242720982+242730926+242640891+242345215
2408+241936358+241685050+241730007+241906803+241995538+242047772+242307534
2398+242860565+243549593+244265889+245207524+246869423+249916982+255043509
2388+262785003+273424911+287148136+304225875+324848333+348732635+375076627
2378+403004696+431907854+461170148+489695287+515928818+538285140+555735112
2368+568545910+578120712+585358758+589598256+589740594+585810649+578426696
2358+567435483+552142058+531980708+507263376+481522587+461235981+451263688
2348+452763048+464137235+481171074+497518969+508477785+513731248+515445570
2338+515650449+515338921+515012840+515159405+515729102+515849472+514702664
2328+512233966+508537277+503204572+495917255+487222466+478053091+468799103
2318+459413485+450034692+441002838+432373120+423623412+414022728+403385903
2308+392239533+381171850+370364934+359845604+349815447+340556262+332163611
2298+324454756+317126796+310026548+303225839+296830696+290837306+285214937
2288+280025886+275421258+271544032+268407771+265850875+263633814+261593671
2278+259710071+258047601+256621419+255309266+253962897+252623631+251509375
2268+250751223+250278405+249971034+249740255+249431655+248874155+248098159
2258+247324068+246688971+246152919+245679875+245308075+245012832+244686647
2248+244282797+243837144+243377318+242938040+242585990+242317426+242043198
2238+241745183+241506140+241351624+241215228+241077378+241006659+241043058
2228+241112096+241086508+240935439+240780662+240752735+240831250+240897377
2218+240896476+240868999+240865084+240909920+241030082+241252528+241556814
2208+241848038+242013331+242021352+241956403+241954618+242117416+242455883
2198+242873714+243228900+243450618+243571941+243651408+243727237+243830924
2188+243965916+244098639+244206449+244278761+244303743+244341978+244510770
2178+244798217+245033465+245097254+245004776+244795462+244499405+244171367
2168+243871879+243660781+243579061+243557423+243426537+243103315+242711454
2158+242469448+242468738+242575197+242581174+242437987+242272625+242209513
2148+242240350+242283575+242403200+242913145+244103368+245922486+248130226
2138+250639377+253500698+256702272+260170261+263877812+267901724+272402943
2128+277469319+282988435+288793767+294861531+301220466+307727976+314041382
2118+319825804+324964164+329494019+333370640+336400407+338307446+338769905
2108+337598808+334995291+331470010+327503026+323339859+318979540+314286835
2098+309163756+303609264+297687944+291548024+285421843+279580527+274299605
2088+269744612+265866276+262557793+259844284+257736385+256033930+254476012
2078+253008476+251796147+250996884+250556791+250257147+249939885+249597814
2068+249281747+249034666+248864124+248709607+248498959+248230119+247957536
2058+247747148+247631456+247556215+247442636+247310728+247243024+247268439
2048+247362840+247504849+247712621+248027527+248393662+248637208+248693253
2038+248701829+248789092+248952375+249167700+249419199+249683362+249981290
2028+250335662+250696461+251016096+251299888+251558230+251836617+252201175
2018+252567812+252725187+252632640+252498289+252509411+252645806+252759628
2008+252757878+252691699+252657310+252653966+252638877+252661866+252789669
1998+252975352+253195649+253597022+254232638+254760947+254752094+254256823
1988+253737090+253527707+253623459+253850028+254064227+254255437+254503229
1978+254813371+255073134+255195860+255207883+255222903+255417907+255898591
1968+256476881+256772003+256671157+256472203+256475114+256702895+257075215
1958+257576064+258149988+258647460+258970231+259165755+259371517+259732281
1948+260354506+261301702+262527545+263661326+264061988+263492949+262524877
1938+261882210+261757682+261939883+262212933+262467360+262654758+262788156
1928+263002702+263568467+264599288+265726191+266484343+266993716+267584601
1918+267941831+267507490+266575902+266051890+266367299+267184753+267879480
1908+268112996+268036145+268005411+268183039+268479702+268794817+269192274
1898+269791422+270477799+270931318+271176147+271715197+272674192+273319336
1888+273048070+272329730+271954569+272052383+272285223+272429466+272496166
1878+272586305+272785397+273167592+273975361+275635856+278198210+280660931
1868+281463642+280276744+278408841+277148522+276792211+277013149+277413794
1858+277730571+277901616+278068589+278428972+279106652+280130335+281515251
1848+283435336+285999041+288400919+288942775+287233286+285047617+283932738
1838+283907947+284279538+284790696+285918725+288076276+290623003+292173228
1828+292371143+292158572+291950991+291303646+290262603+289556129+289536743
1818+289893869+290294826+290881726+292021605+293651003+295070845+295638844
1808+295531363+295509292+296227147+297882636+300069777+301882849+302647792
1798+302719307+303227745+305062022+307961301+310160812+309947271+308128205
1788+306902501+307193863+308393061+309724444+311109429+312585263+313839864
1778+314872574+316443346+319357178+323331335+326532233+327237477+325952592
1768+324155043+322829862+322842544+324574606+326959870+328385671+328929173
1758+329726375+330875124+332115034+334233847+337995017+342375225+345151535
1748+345636897+345171493+345120732+346062731+348004177+350300462+351989422
1738+353344089+356013265+360431170+363752993+363095634+360234157+357788812
1728+356373995+356010805+356644256+357905025+359871002+363493404+369264313
1718+375431189+378364217+376878265+373576019+370954381+370038715+371164007
1708+374143429+377873485+381003456+383871517+388091473+393529961+397356306
1698+398144083+397148066+394793398+391828285+390367489+391359867+394126961
1688+398259845+404458563+412143546+416802711+415411247+411856861+410225973
1678+411552817+415023387+418757705+421535297+424236247+427560148+429784052
1668+429332161+428293873+429470583+432845280+436127256+437789571+439124107
1658+442454938+449255196+459780797+471035446+475773576+474521019+475069580
1648+479376193+483766552+484451145+483176898+483511917+486662159+492656553
1638+501261533+510749400+517122472+518937103+520180963+524333527+531793084
1628+541205486+551274692+561864359+572870541+583074150+591895408+600901275
1618+611654900+622880444+631396514+637000069+641879948+646992112+652077528
1608+656824632+661088662+664708360+667583940+669929600+672353289+675382224
1598+679000745+683019391+687546475+692667163+698016465+702993222+707300424
1588+711240625+715261488+719156299+722255919+724567969+727216183+731596286
1578+738106948+744958972+749248711+751610655+755450375+762243980+770876887
1568+779667307+788447055+797766079+807834904+819405758+833945397+850177703
1558+860419565+861834625+860853646+860558784+860523858+860143552+859063615
1548+857540867+856849344+858119641+861233744+864597388+864440220+857570041
1538+848621691+843826217+842796591+841487349+837191304+831764943+828398597
1528+827761820+828672254+830239769+832333947+833891622+833121585+830588614
1518+828476418+827267865+826490067+826411484+827592109+830286822+834384467
1508+838076167+836775586+829554622+822878684+820655404+822308710+825858487
1498+828697547+828480368+825525928+822802526+822525612+824462969+826355560
1488+825963820+823569444+821048738+819383167+818283481+817504851+817649337
1478+819271944+821947738+824729558+826572324+825979689+822506001+818467050
1468+816410085+816691711+817588632+817290929+816526644+817646357+821616287
1458+826177326+826549663+822141772+817543796+814991491+813904555+813456892
1448+813043669+811910097+809832827+807610033+806287693+806531967+808428993
1438+810921426+811721538+809994360+808054578+807645652+807897687+807347741
1428+806214722+805783413+806359000+807184336+807805175+808350687+808364061
1418+806869586+804326982+802198294+800735418+799124522+797184047+795940221
1408+796058928+796459123+795541898+793704191+793019598+794315397+796387469
1398+797919157+798792863+799092022+798398628+796916557+795711262+795191875
1388+794414354+792601525+791200324+792678307+797440448+803512110+808863490
1378+813070626+816633778+819679900+821843237+823150678+824407600+826169634
1368+827943726+829220260+830635736+832822704+834759091+834850841+833333151
1358+831948305+831986627+833446037+835184302+835754969+834717305+833154571
1348+832484462+832793114+832921245+832251205+831595926+832049272+833687679
1338+835782065+837854206+840001397+842402079+844861041+846856262+848106670
1328+849082036+850731531+853619930+857434564+861344759+864769246+867750921
1318+870657823+873670404+876691786+879654542+882684725+886004504+889859953
1308+894337974+898962075+902918007+906092814+909115859+911976540+913663109
1298+913731367+913152038+913065901+913647655+914514709+915339976+915693810
1288+914981152+913129932+910880457+908704854+906105149+902815792+899686860
1278+897417082+895766825+894845095+895556714+897941458+900402983+901251049
1268+900313728+898776218+898021289+898840527+901093189+903799613+906033634
1258+907981663+910566192+913785280+916465025+918005999+918957111+919619458
1248+919739413+919533460+919520155+919699082+919611697+918825445+917206926
1238+915098889+913242679+912251929+912102038+912088456+911420980+910112430
1228+909097911+909276699+910550669+911746263+911510235+909636978+907418480
1218+906410960+907057092+908542905+909823320+910695571+911706625+912998820
1208+913866428+913916115+913776688+914272444+915753753+918178204+921043597
1198+923491401+925181227+926698709+928665657+930952483+933087616+935025597
1188+937016036+938845428+939919196+940406429+941388447+943515750+946365135
1178+949285412+952011516+954291412+955834049+956729030+957304063+957749855
1168+958145129+958529801+958889249+959353128+960224894+961522979+962933258
1158+964562795+967173657+971120857+975364374+978263654+979263204+979130430
1148+978570573+977904483+978146887+980583535+984978398+989421909+992164090
1138+992817152+992122581+991409646+991723842+992683823+993014997+992551326
1128+992485285+993778035+996443850+999837916+1003098444+1005829538+1008271453
1118+1010410813+1011416670+1010806711+1009632668+1009387770+1010403121
1110+1012448998+1016081656+1022052212+1029300411+1034613677+1035564096
1101+1033061546+1029191475+1023949792+1017127567+1012063148+1013252506
1093+1020437505+1027907387+1030809508+1030108838+1029469566+1030497114
1084+1031921598+1031988609+1031096747+1031143523+1033237424+1036839798
1075+1040091180+1041173680+1040087368+1038415907+1037439432+1037377688
1067+1038063389+1039507554+1041752316+1044806545+1048540031+1051772633
1058+1052212327+1049214576+1046153971+1047908659+1055613530+1065327205
1050+1071968632+1073741823+1071789775+1068162176+1065759415+1066185942
1041+1067274471+1065574112+1061103021+1057577775+1057871320+1060824583
1033+1063045022+1062406651+1059252217+1055515474+1052582862+1050304214
1024+1048388131+1047615183+1049220258+1053141887+1057064417+1057824614
1015+1054552512+1049736457+1046317375+1045026774+1045253308+1046134221
1007+1045954324+1043627028+1040917417+1040299835+1041628343+1042569267
998+1041454405+1038893229+1036783667+1036422834+1037825212+1040282788
990+1042671967+1043555860+1042483685+1040921575+1040248763+1040012735
981+1039285039+1037991319+1036590119+1035264037+1033440466+1030189639
973+1025131596+1019055985+1013759696+1011090485+1011549929+1013660462
964+1015273575+1015358049+1013702733+1010351286+1006238187+1002673372
955+1000022871+997918368+996022104+993720171+990002624+984531497+978681727
945+974941311+974433913+975064731+973616061+969827068+966515397+966012989
935+968180137+970985588+971848137+969528325+965431996+962053246+960478177
925+960349630+961259994+962820372+964183043+964616292+963898160+962032041
915+959587354+957822410+957414939+957718186+957839734+957546743+956786131
905+955749645+955175028+955414244+956147344+957151885+957961005+957394843
895+955377377+953949497+954539290+955780898+955399691+953119171+950370545
885+947928769+945400441+942968090+942137487+943874088+946942870+948890692
875+948241302+945523306+942721667+941819549+943431622+946750361+950388285
865+952903032+953143911+950992977+947467177+943703547+940429713+938198880
855+936993168+935874148+934210378+932928855+933270770+934665387+935540826
845+935905540+937006750+938821589+939983158+940171163+940601571+941725789
835+942215100+941223657+940055644+940313847+941825162+943303283+944326464
825+945515406+946997546+947806459+946799978+944078586+941699040+942360556
815+946707189+952312337+956072988+956828056+955664963+954617527+954401942
805+953458869+950621403+947765573+947265936+948625835+949938335+950535127
795+950168889+948077067+944935591+943405358+945155473+948873436+952256206
785+954686201+956758273+958383098+958463830+956479558+953907572+953208635
776+954976420+957120978+957752558+957103099+955697394+953566765+951893017
766+952813152+956321559+959574257+960427867+959277178+957267335+955221665
756+953964812+954390785+956626261+959520205+961381543+961288753+960142221
746+959558942+959611955+958978920+956927360+954717247+954536241+956848430
736+959794832+961380295+961183212+960068350+959555339+960603952+961667326
726+959924141+955439052+951880820+952024613+954870187+958278112+962245270
716+967587988+972143900+971494233+964933676+956700756+950543720+947097404
706+945796408+945455394+943946851+940572466+937367792+935916974+935488922
696+935589473+936665736+937546372+935813997+931814962+929072781+929418092
686+930385766+928873896+925625010+923804488+924359148+924935289+923174295
676+919482595+915614880+912059073+906897707+897939448+888224526+885936938
666+891323730+896517458+897376958+895094013+892220789+890237696+890122107
656+891595516+891755940+888010951+882639197+881465154+887000936+895189159
646+899337807+896799985+890825895+886446693+886021412+887850457+887710614
636+882091952+872423737+865673097+867668456+877191077+888133885+896307902
626+900665968+898585303+887271128+870464343+857251687+852475131+853143855
616+854181727+853888528+853407048+853228398+853192017+854350329+857435534
606+860691905+860966809+856714768+850798334+847913191
##END=
