##TITLE=<SNM>
##JCAMP-DX=4.24
##DATA TYPE=INFRARED SPECTRUM
##DATE=2/5/2025
##SAMPLING PROCEDURE=Instrument type and / or accessory
##ORIGIN=Admin
##XUNITS=1/CM
##YUNITS=ABSORBANCE
##RESOLUTION=4
##FIRSTX=4497.3318
##LASTX=599.83466
##DELTAX=-1.4281778
##MAXY=1.7552375
##MINY=0.19086644
##XFACTOR=1
##YFACTOR=1.6346923e-09
##NPOINTS=2730
##FIRSTY=0.20764843
##XYDATA=(X++(Y..Y))
4497+127026004+127539593+128900202+130278651+130613046+129469033+127529511
4487+126103662+126044812+127244057+128952453+130260574+130497215+129668299
4477+128536865+128062918+128621649+129621017+129976278+129198127+127872558
4467+126922806+126776847+127335623+128215249+128902800+129110034+129043262
4457+129122322+129463718+129697432+129340831+128533547+128175259+128866092
4447+129989067+130424217+129844257+128769421+127792004+127246354+127274248
4437+127768002+128297781+128326249+127630202+126538065+125693261+125512362
4427+125821234+125994403+125507567+124436624+123380256+122870723+122954076
4417+123341688+123799236+124313819+124925529+125447049+125441288+124586393
4407+123086826+121698296+121255552+121952639+123045952+123523052+123140963
4397+122564212+122480531+122849420+123070892+122753861+122182944+121953587
4387+122261137+122789986+123157271+123140380+122667664+121901145+121120797
4377+120448532+119967567+119905736+120272866+120625967+120586542+120276029
4367+119996345+119813769+119610246+119258348+118639975+117755736+116936766
4357+116759860+117594901+119215879+120795052+121343499+120539077+119166673
4347+118274704+117956133+117624390+117318772+117719137+118867281+119889547
4337+120110973+119669497+118953596+118151644+117528895+117556844+118392049
4327+119477733+119948443+119423194+118359616+117670004+117872170+118514772
4317+118686045+118149794+117533061+117374897+117563626+117790695+118014719
4307+118295287+118585391+118905502+119400706+120009307+120362308+120230807
4297+119813322+119447122+119307426+119456211+119886867+120409964+120726348
4287+120702875+120453965+120176359+120037119+120081913+120087337+119743479
4277+119206453+119097941+119641430+120217088+120154382+119612014+119262714
4267+119355639+119518926+119450477+119367425+119526975+119734527+119743698
4257+119760151+120119642+120792481+121492257+122019729+122406813+122784563
4247+123051613+122894542+122395118+122169143+122553856+123169914+123507346
4237+123409818+122923484+122200327+121562492+121332725+121632737+122396248
4227+123435087+124465156+125144275+125171257+124566120+123904757+123914429
4217+124626201+125295813+125383650+125187264+125188969+125280836+125106537
4207+124794720+124843051+125421225+126135202+126455934+126249475+125868508
4197+125736779+125893740+126029981+125926829+125736295+125773842+126080317
4187+126339090+126345261+126344596+126621910+127028966+127265816+127326745
4177+127374082+127488236+127792569+128549353+129839453+131205039+131911022
4167+131750880+131329549+131216561+131157073+130600749+129682437+129108521
4157+129266174+129912724+130668998+131411151+132013208+132098594+131512498
4147+130718413+130185316+129727696+128953638+127971334+127204970+126915577
4137+127192782+127970714+128870641+129413610+129519952+129521447+129623624
4127+129669229+129569714+129591847+129905960+130190612+130056595+129592904
4117+129183214+129060946+129225555+129530007+129757887+129804167+129769910
4107+129775462+129792599+129811833+130051864+130720875+131642760+132445669
4097+133000224+133349943+133410699+133122154+132700513+132442770+132429662
4087+132546551+132669703+132777485+132928111+133140732+133345522+133487889
4077+133616738+133794045+133941243+133893997+133648633+133412968+133322013
4067+133255980+133029175+132591646+132034192+131576827+131448188+131603645
4057+131753168+131738683+131657445+131651520+131781563+131985515+132055304
4047+131866092+131584156+131389812+131183226+130877134+130692361+130781776
4037+130864609+130660894+130442922+130711659+131468033+132173615+132400602
4027+132264515+132189056+132403154+132722673+132793793+132537946+132308288
4017+132505768+133033514+133352933+133179190+132860236+132926516+133480934
4007+134103911+134264901+133928837+133734812+134258256+135176249+135644124
3997+135431439+135066279+134891013+134687663+134332785+134160874+134453174
3987+135023125+135531401+135891685+136176483+136352650+136320901+136175188
3977+136247721+136763006+137475717+137820687+137538031+136944862+136461190
3967+136225051+136337172+136959046+137874906+138500718+138640241+138703229
3957+138995310+139365293+139694402+140296140+141560680+143172003+144008239
3947+143555122+143032280+143846082+145390643+145671157+144060471+142030998
3937+141271187+142423460+145066165+147906260+149338709+148790316+147430646
3927+146845827+147295115+147710065+147442869+147395423+148716862+150972311
3917+152155066+150720357+147414320+144367502+142958553+143366211+145682114
3907+150444054+157551660+165000398+169816777+170800493+168615198+163839858
3897+157669743+153005832+152424076+155388625+157967841+157307126+156074900
3887+157926657+161711918+163735977+164203824+165412386+165547861+162100806
3878+158207325+158342619+162556968+168215571+173560635+176903973+176335124
3868+173642493+172498998+172782821+171237877+166981012+162976357+162337483
3858+166634675+176358807+189218259+195980047+189087450+176256165+166455390
3848+162173512+163008937+167466799+173510882+179516004+184787961+188474027
3838+188942348+186120020+182399972+179403992+176721935+173966296+172014979
3828+171463688+172061761+174680684+180867662+188581208+191937380+190176251
3818+187994292+185551883+179816399+172497704+168271267+169321254+174900643
3808+181743450+186293727+189438090+194114326+198547084+198193983+194359425
3798+191186621+188520115+184972953+181966125+181446884+183195306+186099911
3788+189942856+194702298+199496964+203971818+209471719+216753314+223837119
3778+228687371+232796727+239353597+250255424+265427243+282280648+296530061
3768+306194449+312515299+316943719+321196572+327603181+336444123+345059253
3758+351586954+358286318+369286631+387096168+409971851+430320332+442718281
3748+452568244+465864952+479861044+486706695+487822405+492008168+503081624
3738+519118109+535161923+546292771+550542087+549794428+548181445+549224157
3728+554012205+560370829+564073868+563163623+559398854+554984363+550919691
3718+548012552+547417049+550056191+555259945+559204218+557435359+550848808
3708+544204064+540881692+541829420+545688736+549386852+550947475+551462979
3698+552895401+556251902+562431059+572388658+585259195+596111908+597908515
3688+590383206+581524908+576936237+576797790+579541140+583861814+589733922
3678+597737142+604766053+604640112+599359095+596120002+594230161+587398183
3668+576036201+566462805+561088334+558077970+555755905+555015720+557413481
3658+561526502+563537763+563621990+567181149+577617243+591256952+597195130
3648+589525284+576683261+567566847+563837337+562799802+561565188+560141263
3638+560626977+563927508+568861842+574626642+582681310+593921617+603225521
3628+603072707+596533631+591793386+591873347+595752171+600924567+604290257
3618+604663011+604857537+607987060+613783144+619856232+624677643+627626203
3608+627980981+626520010+625550696+625856323+626176170+626249533+628194724
3598+633464328+639874985+643021317+641218183+638152287+639322654+646162982
3588+653252493+653504521+647929799+642917910+641603517+643131798+645823153
3578+648706154+650819072+651092977+649954332+650041914+654144944+662112031
3568+669290948+669759342+662937975+653309593+644907803+639669191+638031888
3558+638839893+639930553+640258495+640595626+641818717+643898308+646949619
3548+651212209+655000861+655156700+651120469+645929623+642308989+640385165
3538+639078502+638045088+637694904+637955828+638176716+638171539+638391479
3528+639114308+640158516+640976657+640483322+637923668+634493586+632376002
3518+631938819+631772988+631350973+631618023+632955606+634311639+634787035
3508+634886504+635388955+635684008+634209764+630822853+627582303+626109080
3498+625441309+623502171+620232815+618087373+618925277+621693495+624257451
3488+626093766+627375780+627244516+625030817+621653313+618418597+615787039
3478+614177083+614525152+617243708+621149988+623789494+623280407+620078580
3468+616423671+614036338+612972368+612416756+611757955+610846726+609885251
3458+609490765+610230257+611579071+612046299+610801950+608773588+607764239
3448+608777745+611168031+613073879+612924822+610909878+608708576+607812004
3438+608549819+610379279+612406036+613430335+612327277+609072142+604721059
3428+600440020+597339120+596369113+597487084+599203328+599720874+598646512
3418+596972673+595631116+594613125+593355686+591778472+590782687+591406302
3408+593435392+595096287+594593071+591960419+588797570+586400429+584894390
3398+584105309+584263774+585460248+587048218+587973814+587746872+586936899
3388+586189421+585138104+583214973+581296180+580893381+581754949+582214884
3378+581881546+581891063+582397670+582231110+581253592+580731270+581162509
3368+581655881+581505802+580967363+580519023+580318152+580321980+580525294
3358+580994528+581758085+582773633+583833628+584394492+583835780+582170145
3348+580151665+578513888+577621291+577825224+579344499+581681259+583664225
3338+584295606+583666339+582898042+582958132+583586997+583701307+582835509
3328+581861200+581963696+582813377+582497394+580160671+577594855+576755931
3318+577080628+576936164+576430286+576698174+577573051+577982596+577589240
3308+576497012+574674626+572838567+572467563+573972107+575975127+577021705
3298+577149651+577411304+578543459+580345973+581943131+582548150+582034287
3288+580707825+578952311+577377321+576746451+577272529+578432431+579833130
3278+581500734+582969618+583319109+582583810+581806142+581553021+581661095
3268+582044788+582555661+582700599+582416557+582245367+582292403+581944225
3258+580670268+578555710+576258585+574617599+574029644+574349236+575435813
3248+577205839+579124777+580264151+580090846+578928318+577462242+576063876
3238+574895150+574335964+574734388+575782314+576516410+576078972+574511603
3228+572801995+571935323+571867284+571733832+571032990+570126063+569446770
3218+568701627+567376842+565780887+564797353+564616135+564552034+564132208
3208+563377037+562042188+559895653+557691725+556662285+557049697+557872979
3198+558101999+557634188+557059578+556745528+556392282+555516457+554226348
3188+553157382+552522756+551791505+550587702+549237138+548173606+547471050
3178+547010276+546513295+545596268+544241110+542802453+541447915+540208817
3168+539397494+539240268+539386227+539299775+538749340+537751586+536484119
3158+535228431+534103678+532989900+531919185+531280584+531272307+531299873
3148+530450155+528692709+527019016+526233910+526266689+526594923+526669343
3138+526134477+525159147+524167153+523095089+521694462+520439393+519987480
3128+520011800+519772571+519386909+519323137+519403062+519377320+519392816
3118+519068265+517460970+514564587+511568881+509500848+508625352+508722524
3108+509151977+509195623+508728540+508037252+507141045+506020193+505139738
3098+504900691+504855077+504226759+503048552+502043505+501511046+501097673
3088+500622387+500273042+499920415+499201269+498417730+498376309+499113650
3078+499659819+499322360+498402562+497429493+496485046+495523134+494747326
3068+494410706+494553492+495026335+495539797+495690970+495165548+493960506
3058+492346064+490687066+489362573+488639197+488374444+488063858+487429414
3048+486637161+485804107+484854884+483913537+483192239+482557905+481781878
3038+481030791+480625950+480500118+480211701+479414417+478159822+476719233
3028+475292536+474062699+473286526+473005729+472842707+472400747+471678173
3018+470888983+470148835+469448613+468775154+468197263+467763034+467310391
3008+466622383+465796585+465162907+464804081+464432166+463811213+463076060
2998+462489819+462003558+461295897+460271234+459227537+458377856+457510308
2988+456415163+455423279+455070178+455326435+455627796+455557168+455043706
2978+454126534+452970241+451839982+450864324+450088807+449589019+449182500
2968+448478049+447543265+446860909+446428904+445700715+444566191+443570296
2958+443040754+442755035+442563025+442627454+442848160+442697789+441939920
2948+440955292+440102731+439312738+438436075+437507344+436657408+436081850
2938+435897825+435842512+435457980+434579494+433355199+432080113+431207132
2928+430966918+430778736+429714365+427775555+426007389+425158656+424916400
2918+424690006+424439182+424342557+424253734+423863369+423050807+421976153
2908+421060111+420680465+420657202+420398539+419723366+419052934+418695457
2898+418460312+418055289+417414610+416533535+415405209+414297083+413708217
2888+413793757+414074590+413948941+413315955+412538105+411951317+411514900
2878+410888331+409911616+408955210+408493305+408374329+407945167+406947996
2868+405877791+405285461+405039085+404535650+403487177+402188462+401073518
2858+400373952+400173920+400405492+400776132+400950166+400747071+400112809
2848+399145355+398166561+397463276+396949814+396342790+395588676+394859138
2838+394228851+393613003+392959453+392317971+391767135+391333671+390868412
2828+390070544+388908564+387893161+387508593+387485221+387119614+386232522
2818+385311266+384754669+384398213+383810404+382816916+381648992+380702285
2808+380234328+380191083+380210700+379864964+379002121+377826904+376642608
2798+375610543+374743324+374041023+373564971+373288222+372941284+372286749
2788+371542298+371143984+371092244+370917772+370268743+369226176+368142662
2778+367405394+367157487+367085146+366669330+365704683+364401557+363072470
2768+361938383+361105474+360495752+359903713+359271530+358736810+358306482
2758+357773549+357123827+356662506+356485117+356167129+355295717+354037293
2748+352878412+352036680+351407377+350889284+350462237+350047807+349552576
2738+349003782+348458998+347834873+346992339+345962680+344965728+344203921
2728+343718316+343432488+343239237+343031986+342756076+342436192+342058041
2718+341496886+340711889+339883357+339180582+338537679+337796254+336931770
2708+336059373+335278824+334532732+333682286+332785204+332126038+331844039
2698+331737204+331540927+331172585+330649752+330003531+329319863+328743613
2688+328411113+328319009+328217790+327806167+327112435+326470990+326035448
2678+325556114+324754454+323714039+322766675+322129934+321773734+321551496
2668+321352120+321151724+320986330+320876251+320747648+320442094+319867375
2658+319142104+318490522+317980196+317482121+316893619+316256404+315649307
2648+315107769+314661725+314341914+314106915+313792282+313222194+312455282
2638+311835642+311649392+311759581+311716519+311263001+310614227+310139269
2628+309890086+309654175+309356314+309084889+308779663+308233677+307408863
2618+306533950+305902897+305638290+305584763+305435341+305001840+304344425
2608+303706626+303346616+303279872+303202262+302849325+302334094+301941268
2598+301753268+301634784+301434733+301112534+300744447+300424381+300184477
2588+300028546+299922933+299743830+299397220+298967110+298604584+298367688
2578+298248566+298171558+297921736+297318887+296530553+295998714+295931988
2568+295995032+295680654+294951590+294281103+294068801+294286043+294680639
2558+295044824+295271674+295365492+295415974+295464469+295404306+295046665
2548+294326243+293476653+292887896+292687026+292597912+292303752+291787027
2538+291253875+290892770+290758279+290775799+290814304+290769218+290581072
2528+290244890+289868417+289669168+289813103+290221372+290594527+290676585
2518+290437539+289989690+289491634+289177110+289251766+289652450+290050856
2508+290154154+289937112+289590975+289297654+289066118+288803736+288488592
2498+288175071+287885068+287586369+287237406+286832037+286440067+286136318
2488+285873315+285558208+285227750+284970381+284741379+284446800+284135175
2478+283943894+283909583+283908179+283750097+283345602+282825285+282448174
2468+282337055+282345861+282236857+281954875+281666422+281532241+281505642
2458+281397677+281116297+280783287+280598022+280613081+280662433+280537950
2448+280256170+280064579+280115571+280263863+280288457+280158177+279970561
2438+279798495+279683183+279646228+279667778+279698442+279644132+279375259
2428+278891823+278408789+278130417+278034339+277974705+277884206+277796623
2418+277756223+277766414+277821655+277945371+278135559+278296576+278319110
2408+278218437+278127883+278157874+278283286+278386857+278418907+278432963
2398+278436391+278370759+278298272+278392581+278688619+279073971+279539649
2388+280195278+281064758+282129238+283535753+285498774+288020088+290951074
2378+294332843+298438626+303407253+308968939+314578701+319722000+324103566
2368+327691456+330649935+333154348+335162764+336358181+336449629+335540951
2358+334019051+332102483+329762114+327187037+325150034+324572325+325833155
2348+328798634+333163135+338365832+343284268+346524199+347252279+345668684
2338+342802492+339767479+337020081+334297441+331251490+328018633+325028286
2328+322386301+319776220+316928623+313881724+310788080+307754562+304922899
2318+302442023+300280118+298238667+296139714+293891230+291527506+289310416
2308+287572841+286328474+285221369+283946045+282551818+281290405+280299177
2298+279470243+278579141+277558324+276603103+275934056+275540190+275254854
2288+274969026+274659662+274320453+273959987+273600213+273254587+272942689
2278+272669878+272379674+272032024+271730317+271636518+271736680+271802202
2268+271644157+271354974+271206609+271316980+271526857+271620164+271553967
2258+271455136+271454261+271508243+271404271+271033851+270604434+270422870
2248+270532950+270724669+270831540+270860910+270880654+270927782+271033486
2238+271245223+271598324+272069435+272553818+272943782+273274623+273708725
2228+274323935+275027822+275724361+276436342+277210419+277999810+278707397
2218+279322097+279956030+280732860+281706640+282889714+284248774+285676820
2208+287086179+288499986+289984859+291567414+293226303+294885611+296470372
2198+298025964+299693932+301541586+303469822+305291278+306907433+308401658
2188+309896029+311390765+312823770+314124089+315147585+315791327+316191756
2178+316592404+317057262+317446607+317589101+317428594+317071956+316681810
2168+316291262+315754282+314908174+313778681+312529118+311163386+309493449
2158+307488059+305380902+303381091+301494313+299572603+297456113+295193062
2148+292985488+290907519+289198622+288746472+290412890+293924666+298224264
2138+302718370+307445690+312384654+317337949+322226486+327053767+331794632
2128+336476611+341222617+346189293+351485406+357090318+362881407+368761099
2118+374679405+380605733+386614574+392916536+399756864+407528476+417036240
2108+429332933+445291171+465539745+490333710+518785062+548570498+577116981
2098+602718841+624383100+641889746+656098303+668014913+677787466+684792677
2088+687969491+686392278+679774954+668010464+651185008+630309245+606674052
2078+581043132+554302846+527625092+501827320+477572633+455583239+436137492
2068+419127062+404483363+391936758+381005797+371588022+363770686+357205175
2058+351459153+346504364+342360970+338928518+336268046+334438842+333314709
2048+332930141+333576436+335539529+339171503+345022755+353713982+365994923
2038+382787527+404694881+431501419+462158012+494877204+527386337+557683959
2028+584609619+607814411+627615556+644462672+658332348+669238150+677823272
2018+684599500+689223357+691018907+689737184+685713715+679580245+671682437
2008+661558168+648238781+631519065+612695036+593430470+574215128+554510316
1998+534079795+513664333+494381827+476655314+459925498+443576859+427816794
1988+413308991+400465509+389363103+379826205+371442865+363823265+356830634
1978+350436203+344557787+339131285+334187835+329897316+326546030+324188559
1968+322247015+319835690+316690816+313412563+310665056+308572776+306951079
1958+305672692+304625385+303613684+302494401+301311673+300266244+299570233
1948+299345534+299720422+300769606+301933301+301901487+300011555+297326963
1938+295388645+294620895+294433698+294219627+293882351+293628665+293547518
1928+293666440+294349287+295904860+297702871+298751855+299207379+299769062
1918+299870464+298410276+296021248+294570796+294892521+296203942+297173457
1908+297124415+296360420+295565013+295126518+295055398+295260845+295768345
1898+296693959+297871819+298750342+299250641+300184277+301837368+302942559
1888+302342316+300770864+299585438+299093653+298942498+298926838+298976044
1878+299064009+299271698+299755699+301005481+303945764+308804494+313534019
1868+314699610+311518456+306883477+303587085+302199639+301996800+302222045
1858+302448805+302548857+302620925+302820228+303345011+304476182+306481444
1848+309700300+314237195+318501023+319131311+315310827+310626078+308229483
1838+308111965+308636877+309080258+310638475+314663767+319963672+323064062
1828+322704945+321157922+319735090+317529340+314548036+312379732+311812306
1818+312146847+312637885+313547036+315539409+318341537+320429733+320559612
1808+319311216+318421135+319265127+322195858+326270302+329448356+330210017
1798+329373790+329474791+332431483+337612010+341126976+339288401+334026089
1788+330150547+329632600+331254407+333329987+335379679+337148027+338044380
1778+338587596+340796701+346312353+354234263+360258346+360344761+355787374
1768+350299360+346197242+345069973+347507332+351420868+353497979+353547750
1758+353642589+354125496+354798663+357473027+363839308+371932554+376841875
1748+376495191+373621269+371456612+371354262+373138727+375438186+376665507
1738+377767908+382073814+390296027+396396462+394102218+387083552+380801973
1728+376580477+374694646+375222766+377316359+380877596+387896735+399883936
1718+413453053+419936999+415811654+407363812+400844754+398629596+401127227
1708+407562021+415438171+421755994+427010285+434823463+445782755+454271945
1698+456135533+453243417+446877026+439313577+435250619+436522497+441461681
1688+448978312+460680888+475949258+485316096+481551144+472839644+467915628
1678+469016097+474879892+481977534+487375122+492315545+498456563+502713573
1668+501583752+498932286+500674091+507097071+513179749+515007130+515103063
1658+518525925+528422815+545305481+562982660+567146510+560462897+558316653
1648+562853657+565614911+559556772+549780353+543809104+543863178+549897361
1638+561007972+572678534+575725944+568187071+559932516+557769207+561353926
1628+567172945+572700338+577920026+582219734+583700505+583714834+586543106
1618+593380735+599419002+599413679+596147130+594976472+597108969+600568622
1608+603010612+603822117+604049058+604771085+606077456+607464227+608770124
1598+610449250+612948522+615938212+618378780+619569930+619849232+620037888
1588+620606700+621516288+622521408+623509828+624872060+627773219+633672966
1578+642525138+650201328+651064828+647841706+648166439+653743349+659530791
1568+660840882+660106239+661753679+667492408+678889868+698814693+724792552
1558+739946140+738015388+734579837+737015227+743639698+751751175+759934118
1548+768090297+777468110+789149830+802662905+816549646+825976610+821782351
1538+807396660+796973254+794743803+795519721+792890060+787709350+785614736
1528+788702000+794587818+800537226+806307093+811317160+813127586+812007099
1518+810535918+808275474+803754440+798950167+797833546+803163022+815411585
1508+830120259+834432072+822389157+808378152+801994040+802054568+805262959
1498+808695885+809429069+807055373+805554366+808667371+815705981+821558035
1488+821272462+815539421+808778435+804331055+802766750+802981513+804790189
1478+809628809+818251706+828743661+836278596+835258016+826088184+816463084
1468+812243594+813494105+816405839+817511157+818261551+822841800+832758525
1458+843532042+845503631+837117375+827511381+821652181+819283152+818970378
1448+818943542+817930328+816552125+816201212+817154556+819481215+824367820
1438+832012506+838180470+837691218+832828897+829153206+827799069+826359974
1428+823641418+821214268+820298044+820502524+821933086+825298046+828554495
1418+827096878+820783867+814301818+810204111+807912893+806475112+805905206
1408+806613741+808200289+809048111+808236678+807537259+809347174+813517587
1398+817633962+819615980+818597077+814769119+810390361+808569652+810013632
1388+812053406+811448205+808804907+807789796+810224166+814926344+820293304
1378+826095039+832576578+838841312+842961990+844134034+843767078+843529562
1368+843940493+845430269+848902137+853943415+857591541+857011791+853147734
1358+849323495+847380492+846606543+845575973+844158537+843224300+843086181
1348+843196662+843035717+842756780+843267763+845640730+849716705+853373582
1338+854329696+852768308+850725762+849530236+849235840+849720424+851087760
1328+853148318+855365955+857510814+860004981+863397507+867442270+870851860
1318+872456712+872605478+872789977+874020653+876016964+877884782+879387758
1308+881238584+883916522+886711941+888564955+889406651+889964524+890752912
1298+891749208+892620146+893125587+893402992+893624756+893472562+892392549
1288+890266578+887399838+884000531+880067853+875811462+871936467+869268521
1278+868025958+867629467+867215037+866280362+865079148+864413711+864941102
1268+866747444+869459875+872424333+874881528+876403975+877073714+877154296
1258+876918895+876645647+876440364+876177835+875694637+874874746+873605274
1248+871996703+870628492+870104164+870239658+870248117+869950512+870000757
1238+870605448+871173093+871685461+873016554+875393750+877929557+879963498
1228+881632523+882946843+883531188+883597914+884168403+885810738+887852992
1218+889508599+891191189+893774397+896964630+899497666+900881337+902036244
1208+904045901+906856707+909541645+911578867+913399211+915674094+918518591
1198+921450670+923690696+924678095+924809359+925226488+926557508+928618284
1188+931412974+935318524+939993356+944391512+948126345+951491378+954222988
1178+955796410+956721604+957845081+958671900+958041831+956118882+954438626
1168+954407706+956355960+959508564+962580367+964970106+967376910+970699574
1158+974631085+977794190+979264277+979600532+980137039+981545577+983255805
1148+984444549+985359024+986998150+989604038+992285840+994410718+996573297
1138+999374331+1001696761+1001535160+998831699+996371733+996973070+1000563294
1128+1004861178+1007973528+1009372294+1009250802+1008263476+1007589798
1120+1008257496+1010386384+1013483784+1017218399+1021071954+1023549275
1111+1023455713+1021636463+1019935715+1019338827+1020226101+1023017655
1103+1027239698+1031033236+1032608772+1032106759+1031880182+1034193059
1094+1038054855+1040100025+1039549809+1039081779+1039866083+1039881251
1085+1038455794+1038483141+1042120620+1047260784+1050065172+1049555575
1077+1047910396+1047132728+1047336698+1047700082+1047751858+1047821574
1068+1048766239+1050820598+1052724295+1053381784+1053919165+1056175015
1060+1059888554+1063339566+1066209732+1069299621+1071842283+1072205302
1051+1071062427+1070579812+1070401366+1068481261+1065730180+1065375548
1043+1068279405+1071953128+1073741823+1072759018+1069208319+1064258561
1034+1060295911+1059317263+1060997081+1062831281+1062829604+1061404146
1025+1059920933+1059089155+1058515822+1057266331+1055409160+1054324188
1017+1054932379+1056968945+1059917505+1062587275+1062858992+1060122715
1008+1056429376+1053909393+1052901575+1052995137+1054058305+1055963606
1000+1057943582+1058733793+1058399361+1058625719+1060132852+1060535104
991+1056285714+1047739461+1039626161+1035839405+1036148605+1037643924
983+1037781679+1035821611+1032326408+1028330577+1024992745+1023501364
974+1024432611+1026528829+1027295850+1025881477+1023761851+1021619399
965+1017835195+1011416590+1004208941+998691757+995329786+993004877+990817066
955+988733027+987202412+986590648+986796076+987222320+987083034+985672964
945+982429351+977382458+971861992+967906270+966322566+965986675+965511717
935+964694451+963782237+962652708+961576851+961447046+962284366+962693035
925+961695354+959958363+958731917+958803310+960353104+962544561+963825700
915+963600436+962645197+961464256+959865748+958308006+957596845+957254245
905+956176055+954744180+954480777+955356383+955268873+953118399+950648005
895+950283164+952076963+953839478+953905402+952616386+951175469+950185955
885+949821915+950260119+950820983+949810466+946669458+943610198+943483965
875+946293750+948852018+948144504+944304950+939916785+937422545+937471915
865+939037971+940706631+941670257+941785405+941474309+941341075+941089631
855+939299259+935237869+930555308+927974360+929040809+933450123+939496739
845+944994963+948161203+948013021+944813308+940742510+938885266+940385107
835+943079525+944003553+943096590+942792567+944351768+946570791+947961025
825+948333743+947930689+946524921+944075384+941748068+941645171+944930716
815+950048346+953851656+955053235+955429161+956960068+959062484+959782396
805+958569295+956927543+956559711+957397907+957970803+957687782+957698940
795+958851221+959811420+958436572+954862172+951985807+952351670+955333120
785+957927194+958098348+956584652+955569395+956467681+958806883+960842574
776+961321688+960330643+958511830+956411237+954607228+953687795+954184703
766+956456304+959576748+960964649+959145618+956067981+954493612+954539773
756+954722376+954892145+956217914+959173621+962852886+965910980+967716666
746+968064516+966347506+962748604+959766425+959828484+962318859+965116466
736+967327248+968421263+967278243+964111492+960717945+958002233+955460811
726+953277083+953218817+956389651+960951231+963239605+961390456+957051807
716+953460562+952868924+954921387+956679235+955915860+954020185+953323536
706+953444445+952821013+951623882+950620148+949363147+947481036+945773506
696+945430031+946980189+950123459+953712589+954560192+949307870+939307865
686+930215989+925792529+924683054+923375953+920499879+917024512+913646790
676+910133282+906894409+904282906+900435695+893401825+887020412+889193346
666+898384982+906478155+910109655+910765757+910995251+911304962+909802350
656+904807015+897200760+889431810+883405029+880437508+881176890+884173508
646+886467352+886876531+886910223+887025225+884452882+877690438+871168571
636+871394565+879132011+887256177+888389498+883414582+878343477+876440510
626+875834944+873094948+868720930+867216422+870417156+873812088+872131760
616+866589125+862655718+862990587+865604570+866974531+864732756+858907976
606+852401789+849235038+851247757+856346937+861091193
##END=
