##TITLE=<SNM>
##JCAMP-DX=4.24
##DATA TYPE=INFRARED SPECTRUM
##DATE=2/5/2025
##SAMPLING PROCEDURE=Instrument type and / or accessory
##ORIGIN=Admin
##XUNITS=1/CM
##YUNITS=ABSORBANCE
##RESOLUTION=4
##FIRSTX=4497.3318
##LASTX=599.83466
##DELTAX=-1.4281778
##MAXY=1.7629684
##MINY=0.28754395
##XFACTOR=1
##YFACTOR=1.6418923e-09
##NPOINTS=2730
##FIRSTY=0.304281
##XYDATA=(X++(Y..Y))
4497+185323360+184750762+184188765+183806646+183377733+182715105+182267569
4487+182689947+183831476+184722483+184619329+183683417+182705194+182503825
4477+183277211+184292027+184675108+184579034+184903323+185905742+186828022
4467+186922536+186271416+185458351+184874009+184616480+184780476+185402772
4457+186180115+186621970+186490828+185819796+184739327+183629780+183085371
4447+183418428+184479856+185921842+187227839+187699425+187053751+185961103
4437+185472291+186001961+187126519+188115161+188447600+187996778+186962160
4427+185785635+184987617+184716384+184521531+184026910+183638366+183962220
4417+184823694+185484652+185525111+185061928+184453046+184021919+183752156
4407+183283237+182467123+181746175+181776560+182792030+184249971+185043160
4397+184436420+182865397+181485669+181051747+181436679+181953771+181993213
4387+181559418+181084945+180694531+180108156+179247390+178429442+177979183
4377+178046325+178583419+179262110+179772831+180228444+180857619+181427476
4367+181402773+180560575+179277739+178359451+178310897+178589118+178251451
4357+177528525+177676730+179080145+180673711+181428838+181378051+180935415
4347+180179345+179157251+178216093+177646236+177338373+177003828+176492400
4337+175845963+175285436+175129608+175484409+176001682+176156730+175816159
4327+175403909+175388099+175691424+175894300+176005294+176474521+177283357
4317+177726301+177391701+176719835+176345756+176429942+176800517+177261938
4307+177592454+177614762+177437098+177436680+177974700+179183443+180747750
4297+181723178+181141631+179207965+177328753+176627881+176966364+177601547
4287+178205601+178862602+179394923+179262274+178291656+177134553+176719472
4277+177453833+179010680+180622144+181623310+181887973+181636687+180990105
4267+180041941+179086715+178345003+177753782+177343092+177500863+178535572
4257+180096231+181312035+181602980+181175737+180658900+180516431+180785722
4247+181058245+180893014+180507900+180570867+181146913+181629245+181774891
4237+181845372+181801028+181388742+180871560+180757588+181043996+181450565
4227+182016683+182788127+183309811+183117154+182501374+182217762+182560384
4217+183147085+183570389+183862461+184205155+184516684+184601668+184486281
4207+184363452+184451612+184970446+185807961+186236112+185591562+184214884
4197+183099420+182753549+182969349+183450555+184095740+184721049+184914141
4187+184361219+183284871+182399691+182274266+182763060+183228167+183299210
4177+183207783+183404306+184126706+185278273+186412088+186953955+186755127
4167+186265880+185937307+185703828+185268743+184713298+184526305+184982190
4157+185705951+186062278+185836731+185303067+184875770+184911292+185545132
4147+186550527+187487075+187973618+187836267+187228093+186558150+186079757
4137+185727678+185469223+185473816+185793422+186201824+186504895+186713797
4127+186710747+186092844+184798155+183616748+183447433+184211762+185075633
4117+185523241+185651661+185692755+185791571+186030259+186340300+186569186
4107+186721765+186932410+187224263+187471592+187533160+187338688+187017485
4097+186949508+187377568+187962364+188156527+187970151+187855762+187960295
4087+187996833+187722496+187182171+186598991+186204837+186104171+186297045
4077+186810525+187586343+188265144+188379660+187800364+186845157+185983556
4067+185476901+185272755+185209661+185212511+185247906+185308331+185532698
4057+186103354+186937020+187668115+187951872+187717631+187278735+187252071
4047+188103417+189569290+190700673+190741930+189903671+189064868+188780765
4037+188706091+188110441+186999896+186393483+187172841+188964546+190588825
4027+191354479+191457905+191390255+191451933+191674013+191898071+192022280
4017+192156962+192309577+192149828+191473424+190651102+190227453+190286208
4007+190550381+190944661+191686410+192767332+193605991+193569107+192834909
3997+192252147+192284274+192666103+193115454+193652676+194193618+194613927
3987+195143144+195952125+196599451+196543255+195858718+195040952+194620334
3977+195091794+196473790+197887551+198303341+197703026+196893991+196418102
3967+196344753+196874841+198287186+200171862+201412715+201301157+200242597
3957+199146228+198655166+199072480+200462844+202515455+204387389+205034243
3947+204294345+203437554+203707499+204564690+204380074+202844482+201428633
3937+201598674+203729008+207183690+210432012+211539399+209912361+207428587
3927+206631531+208003217+209539789+209405815+208441787+208750557+210746863
3917+212609666+212326925+209765282+206442450+203979458+203329155+205077534
3907+209798263+217501597+226481325+233482027+236053598+233810001+227688253
3897+220093480+214593248+213679516+216752552+219968146+220020186+218765375
3887+219844083+223031670+225419697+226838486+228850420+229412654+225840878
3878+221174421+220384934+224205037+230071942+235673948+238969825+238130042
3868+235054847+233629832+234128318+233311187+229680801+225708156+224512010
3858+227815130+236462835+249157606+257603870+252803221+240332055+229347600
3848+223585663+223498828+227663967+233804991+240434246+247110132+252467351
3838+253755814+250502393+245713796+241639504+238242688+235553188+234712714
3828+235999018+238250420+241630157+248001066+256003424+259564236+257286242
3818+254279967+251708794+246486003+239322104+234633739+235131826+240539614
3808+247618275+252236050+254769904+258684048+263308358+264265561+261736100
3798+259362812+257250121+253824880+250220595+248800499+250082210+253280834
3788+257941319+263630578+269186335+274172362+280083828+288024072+296266588
3778+302469545+307383094+313647220+323156236+336413694+351726631+365348420
3768+375162123+382271550+387946742+393011981+399060942+406828206+414292344
3758+418923950+421941298+427509869+438807723+455116580+470392525+479539353
3748+485995663+494359085+503425793+508379148+509502635+512428209+520736851
3738+534674108+551106102+563658132+567446651+564299559+560366702+560217317
3728+564963530+572873317+580071613+583041331+581542586+577998709+574707097
3718+572479037+571676390+573566294+578957056+584774190+584809549+577759948
3708+569126545+564371765+564928753+567954195+569032522+567568482+567613062
3698+571954285+579115879+586177097+592214006+597942345+602798844+604280999
3688+601608343+597875693+596151438+597032788+599612183+603046826+608205035
3678+616404806+624266455+625206833+621774585+621713670+624089372+621339392
3668+612059044+602363651+596148207+593127955+591494637+590691919+592011838
3658+595567550+598159324+597914610+598553568+604500302+614884896+622258133
3648+620646161+613126989+605189866+599104421+594730852+591520957+589557251
3638+589542149+592304835+597635262+604014648+610370039+616431669+620054722
3628+618275251+613315689+610148521+611215231+616714175+624705642+630396770
3618+630484477+628035880+627244850+628329493+630164072+633183779+636709904
3608+637054414+632683387+627782852+627311864+631852933+637761730+641688344
3598+644247809+647679040+651959530+655548676+658519811+662216630+665830753
3588+665801057+660828354+655038773+652524105+653800135+656868777+658926398
3578+658801517+658069225+658944622+662077011+666936960+672954302+679038949
3568+682499294+680772897+674776973+667897594+662644926+659664716+658325593
3558+657916392+658534186+660246934+661867256+662158401+662029673+663453235
3548+666320545+667999894+666297820+661889328+657066190+653490765+651931577
3538+652547193+654395131+655714578+655764095+655622516+656294764+657096103
3528+656833854+655573507+654391719+654043506+654543318+655265518+655107094
3518+653653473+651913281+651079487+651212499+651679203+651994816+651942250
3508+651716304+651843870+652711643+654101082+654979527+654236998+652021680
3498+649977128+649582956+650465250+650988513+650323090+649158363+648351143
3488+647566140+645976457+644111240+643573746+644812602+646518234+647383611
3478+647333514+646818601+645869510+644062885+641476483+639284471+638629866
3468+639403108+640503942+640582718+638924714+636821498+636858091+639598197
3458+642517636+643092521+641188097+637984918+634620556+632074595+631058273
3448+631744751+633451836+634507002+633421850+630638835+628057080+626880955
3438+627025947+628130338+629753347+630578863+629385168+626840659+624579600
3428+623157126+622313531+622003363+621673084+620108886+617432309+615457894
3418+614997144+614771415+613901972+613489359+614495952+615912545+616298803
3408+615664963+614671366+613433018+612072839+611166078+610804288+610125578
3398+608508233+606772905+606404763+607553625+608645057+608396930+607294898
3388+606508406+606614373+607595046+608690253+608677765+607502947+606689700
3378+607073998+607406637+606307763+604244443+602521458+601511271+600735089
3368+599878534+599078029+598607768+598834476+599998622+601389186+601459794
3358+599460003+596360576+593841298+592844216+593127955+593777623+594034064
3348+593959898+594159089+594558089+594026767+592091340+590332017+590628063
3338+592653229+594631710+595945494+597179740+598233199+598099207+596157174
3328+592797204+589299866+587392356+588270076+591383588+594234816+594413823
3318+592119111+589600886+588261146+587705247+587529144+588290260+590060111
3308+591410452+590865081+588828697+587243988+587429820+588818497+589870105
3298+589762323+588802560+587512808+586212201+585495120+586189113+588358327
3288+590610565+591133719+589879580+588938476+589944053+592032167+593222414
3278+593015890+592611445+593040104+594080385+594936832+595218539+594934436
3268+594046152+592716722+591768684+592020151+593292224+594866877+596523392
3258+598343268+599854719+600046577+598171776+594483996+590407671+587697406
3248+587048318+587705392+588479396+588726797+588296758+587207105+585744009
3238+584306688+583050806+582140015+581937339+582236253+582007003+580820713
3228+579715050+579746742+580461101+580551676+579600008+578471729+578074545
3218+578327572+578625180+578919737+579491936+579779632+578506797+575361157
3208+571945682+570275662+570578351+571292166+571130366+570324017+569752726
3198+569746010+569901783+569599384+568663544+567532543+566607521+565797869
3188+565005786+564427053+563999302+563269297+562149949+561137983+560478041
3178+559737799+558562363+557300891+556421428+555681222+554308665+551969773
3168+549386711+547775719+547606659+548136420+548226922+547435493+546285796
3158+545594162+545432726+544836132+542919728+540122663+537845450+536983485
3148+537210702+537585379+537562944+537266608+536911643+536426134+535750619
3138+535084688+534625753+534282441+533701748+532626398+531366450+530529970
3128+530088823+529397552+528305177+527346103+526685291+525857777+524740825
3118+523881946+523630733+523605902+523252716+522519226+521675268+520783862
3108+519778648+518781421+517892412+517022098+516244210+515925511+516320009
3098+517239948+518107068+518190200+517112600+515285753+513706526+513273148
3088+514045772+515075200+515251702+514411446+513279646+512389438+511611805
3078+510764615+510086559+509844313+509798899+509485863+508860046+508229872
3068+507726866+507297554+507040714+507033163+506884832+505979958+504256428
3058+502397600+501147054+500651635+500524287+500329887+499887724+499311242
3048+498939541+499024561+499225386+498644185+496838067+494614363+493234037
3038+493067881+493582649+494209265+494502625+494009057+492877148+491956555
3028+491574617+490956061+489343726+487027668+484924198+483681929+483377570
3018+483686540+484191651+484626228+484843425+484610436+483637060+481986062
3008+480384654+479757639+480276037+481095601+481158295+480135656+478525027
2998+477017678+475990647+475398192+474785044+473552287+471685762+470113650
2988+469810307+470616075+471384525+471197495+470040138+468495906+467277343
2978+466835688+466927714+466757456+465895201+464763764+463972626+463615555
2968+463425984+463107104+462399316+461360304+460536131+460348956+460516999
2958+460467955+459987057+459136491+457950927+456573469+455434698+454975001
2948+455151213+455348625+454990393+454152860+453283890+452488322+451509791
2938+450264437+448991420+447940611+447191474+446755664+446651803+446801623
2928+446913507+446624031+445835942+444846956+444138732+443963137+443932680
2918+443150218+441184878+438898153+437747294+438230116+439382826+439870186
2908+439302852+438294625+437524252+437161627+437033044+436849898+436296323
2898+435271687+434048151+432946482+432018338+431220230+430589657+430086760
2888+429568688+429020739+428509674+427928255+427178102+426524586+426265350
2878+426150489+425694531+425016003+424740504+424984492+425077027+424534161
2868+423753804+423416845+423573563+423619195+423039228+421978326+420977432
2858+420262638+419601970+418856319+418213113+417763508+417284824+416547486
2848+415544995+414410182+413274678+412213632+411311335+410757905+410646892
2838+410660869+410374261+409874849+409607082+409640118+409558365+409031254
2828+408093780+406922374+405671538+404517557+403636643+403084846+402743858
2818+402393612+401854848+401100266+400267453+399570556+399134927+398863893
2808+398517640+397974847+397354003+396856479+396569653+396388141+396042324
2798+395325642+394377569+393559349+392978147+392373095+391564459+390731754
2788+390069780+389445850+388668616+387843208+387103256+386285217+385319827
2778+384591565+384352295+384164866+383467025+382303279+381074043+380007333
2768+379235544+378983423+379320128+379883179+380093732+379700468+378978196
2758+378285945+377664375+377044439+376492316+375962555+375174030+374017181
2748+372807440+371954914+371575300+371480768+371385293+371098540+370607841
2738+369996689+369324478+368641303+368055418+367658197+367379794+367026535
2728+366480692+365796392+365142404+364711821+364570786+364495350+364094172
2718+363205489+362088936+361154730+360533704+359965245+359167971+358271701
2708+357697833+357613502+357726802+357643125+357252620+356751247+356375699
2698+356104738+355643189+354792878+353754375+352909436+352406031+352113070
2688+351854779+351531143+351102738+350584448+350017514+349438890+348901251
2678+348427613+347918871+347253085+346503912+345934037+345771148+346019856
2668+346388761+346433921+345961482+345255908+344739942+344502670+344302317
2658+343893080+343217601+342401958+341652168+341085814+340648770+340207114
2648+339660037+338995667+338341098+337886193+337662352+337515400+337333416
2638+337136766+336986401+336978959+337176226+337376144+337210859+336598002
2628+335805665+335061538+334418260+333944187+333727897+333714211+333711670
2618+333523514+333040003+332313737+331577197+331086461+330889593+330801124
2608+330670835+330559023+330500250+330287155+329757430+329091644+328571648
2598+328276001+328160523+328140158+328023881+327670441+327200942+326836102
2588+326641993+326550402+326434816+326152165+325711563+325310385+325043853
2578+324771911+324380716+323935213+323506191+323068856+322629779+322308248
2568+322218509+322283635+322238076+321891714+321317882+320711015+320215886
2558+319958103+320022975+320320655+320632529+320805220+320786742+320526526
2548+319972805+319194264+318437722+317959074+317783407+317756834+317803482
2538+317920993+317989641+317887087+317735198+317735306+317825954+317764784
2528+317479665+317133957+316897265+316797470+316755904+316659485+316420542
2518+316053525+315697471+315497699+315482778+315613213+315865587+316159419
2508+316309239+316196883+315898078+315546634+315206444+314910652+314679624
2498+314529985+314549153+314794775+315065046+315038836+314681112+314243378
2488+313929398+313807531+313878793+313992456+313868846+313383773+312724848
2478+312228848+312138201+312430181+312795384+312858586+312478609+311840122
2468+311297982+311128087+311336426+311677923+311902018+311966817+311979414
2458+312000470+311976909+311803348+311403622+310845618+310391329+310270987
2448+310392672+310478673+310466620+310508731+310599778+310516028+310159393
2438+309713345+309415557+309355549+309503808+309763588+309956898+309910359
2428+309628470+309313075+309184419+309311732+309578119+309791250+309871370
2418+309889957+309885128+309789435+309622626+309557390+309684594+309895838
2408+310080907+310268954+310504556+310720628+310814289+310787570+310734205
2398+310695362+310611104+310446545+310272511+310181646+310209382+310335242
2388+310452172+310357495+309889594+309026867+307760820+305973762+303583139
2378+300762224+297898890+295323143+293095718+291021562+288841875+286484287
2368+284195566+282376561+281228715+280659221+280585999+281237028+283110577
2358+286555966+291292632+296688241+302638442+309250381+315523909+319719487
2348+321022235+320168584+318768509+317954174+317554339+316803787+315323774
2338+313255517+310931436+308567133+306260732+304200589+302635773+301575144
2328+300724034+299829034+298954110+298379988+298346517+298881523+299728967
2318+300453672+300789578+300870986+301002365+301312932+301764661+302324571
2308+302956741+303567892+304084766+304496290+304756723+304759192+304520867
2298+304305430+304389125+304738391+305070231+305195111+305162367+305118150
2288+305140331+305189484+305179029+305078254+304903676+304648143+304314905
2278+303989490+303780824+303704226+303671971+303591561+303443647+303249556
2268+303014426+302775320+302627460+302589687+302542186+302401314+302225720
2258+302088043+302004983+302022027+302200798+302506029+302805796+302968812
2248+302930694+302735714+302536904+302474318+302535742+302605297+302641890
2238+302716147+302873681+303061401+303203398+303279506+303326826+303382877
2228+303391989+303216557+302847616+302523635+302481506+302670533+302871594
2218+303008762+303160071+303331781+303421775+303400738+303374546+303430724
2208+303520118+303534113+303446951+303340748+303298329+303318404+303356667
2198+303396835+303446751+303529139+303688198+303924981+304143866+304253191
2188+304260397+304202858+304092408+303960721+303843663+303741726+303677598
2178+303694842+303755757+303782494+303795672+303873522+304027063+304200552
2168+304314978+304302526+304206343+304188101+304337449+304558839+304700491
2158+304699220+304604217+304529761+304545770+304595904+304592165+304560618
2148+304606903+304788670+305087039+305447667+305796316+306039832+306095484
2138+305963561+305778092+305714708+305826410+306033697+306267847+306536957
2128+306840808+307104110+307254329+307329874+307429379+307556438+307631729
2118+307660989+307745973+307906683+308041692+308083948+308089974+308180585
2108+308447444+308874723+309323929+309649417+309838661+309993927+310181864
2098+310355245+310439974+310460485+310538499+310767458+311105143+311386632
2088+311454845+311302193+311073960+310938443+310982223+311203378+311535581
2078+311873847+312117472+312229429+312279091+312379322+312535712+312664513
2068+312792625+313030405+313304126+313392449+313269965+313139167+313134448
2058+313204730+313220812+313083552+312835062+312680341+312786489+313111832
2048+313502881+313859189+314170591+314473680+314759961+314919692+314864040
2038+314681221+314570499+314657443+314932906+315309579+315680844+315958485
2028+316095309+316102533+316067429+316129143+316407873+316922822+317512301
2018+317854052+317730079+317308281+316987912+316958108+317088071+317204166
2008+317266098+317286645+317268385+317240069+317254590+317320733+317356890
1998+317325162+317521159+318462008+320118487+321519978+321698077+320828344
1988+319819754+319202069+318968027+319009303+319226682+319462611+319589996
1978+319594643+319561063+319604735+319755790+320014263+320583339+321681995
1968+322922376+323392601+322793176+321924604+321607503+321759719+321895708
1958+321955425+322169863+322501885+322668695+322559788+322388658+322484133
1948+323092126+324393967+326385045+328379282+329074037+327930802+326037704
1938+324806798+324555077+324743777+324907864+325006316+325175703+325438242
1928+325837532+326788510+328626102+330707537+332035951+332861250+334030078
1918+334947549+334245787+332340963+331110530+331501071+332880998+334058394
1908+334357962+334003832+333666001+333694717+333959506+334322204+334968096
1898+336187022+337833663+339259731+340292534+341761112+344021880+345732051
1888+345558852+344265107+343398641+343307485+343551256+343955846+344549536
1878+345231586+345870690+346538981+347870843+351007916+356274706+361501708
1868+362969015+359773568+355036249+351799635+350595484+350455430+350478663
1858+350312870+349991449+349744338+349783363+350280888+351464165+353555002
1848+356833835+361398791+365790656+366749657+363292615+358791624+356379039
1838+356106480+356392979+356543416+357732865+361362198+366490784+369853041
1828+369942345+368626745+367186992+364914752+361897804+359704884+359139837
1818+359462711+359778542+360320754+361982533+364726015+366982573+367249577
1808+365941892+364807551+365286234+367834445+371677164+374854605+375660664
1798+374634358+374291337+376793807+381743931+385225804+383264022+377648620
1788+373362504+372564250+374053847+376043219+377976322+379581397+380235058
1778+380410362+382157815+387253221+394938078+400875518+400813151+396010887
1768+390357730+386199398+384972812+387180979+390800366+392621512+392474850
1758+392369210+392571850+392884922+395215101+401336958+409243006+413842448
1748+412924360+409267038+406283633+405530939+406919470+408918208+409680087
1738+410169334+414011254+422141832+428410823+426107435+418737174+411931780
1728+407131984+404680628+404770585+406620120+409964770+416488277+427591441
1718+440166051+445979881+441435909+432417955+425092310+421952406+423544085
1708+429266652+436724437+442684748+447272683+454091292+463944165+471341760
1698+472184122+468392843+461119402+452437463+447143882+447357122+451540503
1688+458445584+469408476+483647841+491722695+486622316+476648120+470537335
1678+470570770+475436854+481372806+485304284+488632380+493121645+495556847
1668+492346007+487453169+486793481+490569549+493955039+493529212+492028216
1658+494348158+503516150+520181896+538339308+542929057+535707020+532746740
1648+537074568+540555061+535672932+526881324+521477928+521497749+526945833
1638+537563634+549671504+553944588+547048437+538385738+535341600+538043988
1628+543100550+547850212+552211983+555734478+556639896+556254147+558897870
1618+565809304+571820729+571101832+566596957+564279920+565707113+569017311
1608+571851767+573463703+574671012+576293657+578272175+580223792+582257816
1598+584806971+587872891+590835204+593082505+594618133+595883599+597217712
1588+598690937+600287553+602016237+603837892+605828934+608823229+614434529
1578+623170195+631395087+633241790+630520997+630511341+635305219+640434895
1568+641262735+639583458+639447251+642887122+652043098+669835271+692704337
1558+702261018+692985826+681405866+675088593+673437196+674620074+676997083
1548+680485019+687232039+699180759+715764788+734312197+748796060+749358820
1538+738468170+730486795+731051442+736166887+739128946+739191168+741257937
1528+747727680+756630337+765620556+774642576+782784553+787165309+788350656
1518+789550378+790421926+789380991+788377665+790843760+798392991+811010764
1508+825635407+831523949+821339526+807089378+799645932+799838045+804853150
1498+810477918+812416539+810552047+809708161+813653943+821183571+826651875
1488+825484462+819726900+814448893+812431713+813509532+816075459+819091390
1478+822972481+828656058+836174650+842956884+843823495+837657531+831003299
1468+829603406+833281058+837393975+838051194+837768979+841888722+851793616
1458+862028209+862524899+852705097+842340251+836319134+834423349+835178439
1448+836340262+835823098+833600446+831262862+830232236+831647014+836446918
1438+843481236+847700665+845114481+839757988+837684976+839834369+842800638
1428+843465916+842323625+841392758+841734437+843978361+848397163+852728113
1418+852600837+847585078+841644479+837205203+834225138+832307935+831727024
1408+833102377+836151054+838814416+839232765+838646046+839715369+842959062
1398+846795501+849783624+850889323+849154286+845622207+843296674+843669791
1388+844949741+844411739+842563729+842514067+845442437+849716102+853812393
1378+858185454+863737036+869404495+872576019+872699738+872340271+873267290
1368+874622604+875729537+877601289+880241345+881284967+879238237+875761047
1358+873178857+872264690+872463772+872535869+871380581+869084599+866826226
1348+865525002+865121102+865389159+866726902+869457787+872683982+874597265
1338+874162797+871985161+869371170+867375191+866697860+867572676+869423591
1328+871138081+872024440+872309559+872752521+874057883+876402220+879101159
1318+881053648+881899494+882190639+882270868+881895356+881231312+881303409
1308+882735974+884711842+885988162+886556875+887443816+889132676+891023669
1298+892328523+892815846+892641159+892061773+891464162+891067667+890312214
1288+888142347+884329069+879912155+876011969+872882484+870332821+868317311
1278+866778524+865526091+864533947+863884279+863350996+862600771+861903401
1268+861969544+862988916+864476153+866035850+867635770+869145587+870278585
1258+871003544+871456888+871678333+871822308+872234559+873051000+874081044
1248+875238438+876793343+878965824+881430975+883605272+885358388+886968545
1238+888481919+889736748+890878024+892190428+893630835+895108271+896959839
1228+899578912+902626136+905037125+906142315+906652800+907892817+910184007
1218+912687567+914590612+915968143+917593910+919913997+922139262+923117321
1208+923480491+925474437+929979711+935131894+938716902+940655523+942140873
1198+943793068+945690377+947931107+950196595+951678895+952240130+953023754
1188+955188031+958463234+961532821+963672267+965365556+967252120+969349891
1178+971377017+973218929+974926231+976697281+978605553+980308789+981566668
1168+982624810+983558218+983814658+983213200+982948192+984621951+988207322
1158+991758569+993511903+993527368+993277607+994353175+997407442+1001520287
1148+1004487936+1004726878+1002943196+1001065563+999996675+999501728+999752505
1138+1001494802+1004812770+1008681082+1011852315+1013679851+1014065818
1130+1013436625+1013082313+1014575214+1018271234+1022913078+1026745887
1121+1028769818+1028978702+1027810999+1026010400+1024796302+1024986091
1113+1025540864+1024500292+1022246493+1021924491+1025376923+1030474507
1104+1033863990+1035151056+1036398987+1038327952+1039355165+1038217593
1095+1036103776+1035945788+1039432271+1044598830+1047355345+1046172975
1087+1043772805+1043419510+1045862880+1050007817+1054208949+1056914713
1078+1058055334+1058612649+1058731358+1058174479+1057763027+1059333252
1070+1063807959+1069193349+1071709324+1070063445+1067089842+1065831964
1061+1066311519+1066839936+1066595549+1066544798+1068137893+1071001645
1053+1072964516+1072237161+1069027520+1065667296+1064917361+1067049474
1044+1069018371+1068280852+1065940581+1064163941+1063209478+1062589433
1035+1062713877+1063710669+1064234004+1063158872+1061474440+1061199922
1027+1063242150+1067031541+1071176187+1073741823+1073045833+1069002035
1018+1063332035+1058684746+1056902007+1057663994+1059182452+1060307971
1010+1061172332+1061526135+1060434667+1057971331+1055438149+1054100405
1001+1054664617+1056726666+1058362017+1057768763+1055013846+1051257418
993+1047634147+1045379550+1045079256+1045881540+1046743068+1047384750
984+1047230174+1045462610+1042619623+1040012021+1037878093+1035723690
975+1033971445+1033740417+1034908774+1035397404+1033418269+1030084474
967+1027947278+1026941339+1024625608+1020630818+1016935161+1014093118
958+1010941923+1007446437+1004785761+1002976158+1000517977+996188552+990395196
948+984846010+980806641+978004385+975622148+973557630+972128332+971483601
938+971745632+972809656+973803035+973712351+972635331+971472856+970291357
928+968088164+964860662+962817926+963917018+966820557+968266917+967485109
918+966914435+968170426+969593553+968498382+964729756+960934049+959464890
908+960212938+961708887+962984554+963826625+964200539+964051046+963279112
898+961713316+959660705+958239756+958229084+959016846+959471352+959048066
888+957440160+954629990+951845813+950741349+951381070+952307362+952159756
878+950540306+948227480+946692759+946685426+947427738+947681927+947331899
868+947211012+947642067+947922394+947347509+946317682+945842411+945828036
858+944901816+942307718+939059306+937014464+937389541+939783249+942198158
848+942885508+942524299+943277065+945243567+945680067+942909249+939226733
838+938098091+939873424+941710471+941282611+938914605+936306422+935176401
828+936196861+938407025+940244507+941046065+941293574+941793241+943001966
818+944931076+947404286+949969269+951378746+950354293+948023242+947762881
808+951076710+955612116+958336757+958910552+958533806+957533820+955738375
798+953549340+951727830+951123250+952410897+955336580+958545858+960703020
788+961699303+962018765+961406488+959629267+957320289+955363952+954282068
778+954217667+954939868+955613059+955394882+954477302+953622018+952886313
768+951866070+950588443+949343851+948513833+948383798+948373560+947605619
758+946642444+947143127+949659464+952690425+954211569+954195886+954591800
748+955979278+955778163+951790851+946265625+943798949+946615798+953190745
738+960030046+964070722+964062808+961211181+958372914+957654199+958281795
728+957608748+954140997+948324770+942070518+939055894+942460842+950249887
718+955593964+955145412+952863079+952851680+953919552+952626242+948676032
708+945335121+944912924+946121141+946426009+945072655+942647146+939691839
698+936968070+934790288+932018817+927940677+923510985+919295622+914854675
688+910828738+909552709+912083132+916250140+918706216+917928400+915287763
678+913133360+912529942+913253304+914225482+913103883+906800986+894273969
668+880927896+875916349+878261339+880044296+878361389+875235025+873609694
658+874756342+877798774+880485660+881118774+879449880+876157034+872465515
648+869537653+868083378+867933812+868067333+867474877+866124210+864226756
638+861113316+856621837+852574554+851311230+852724192+854140422+853495110
628+851237899+848985625+847955072+848364709+848412192+845059084+838474771
618+833166052+832356581+834548665+836296481+836050786+834621851+833747398
608+835171106+839175262+844029911+847808556+848929647+845042820+834604208
##END=
