##TITLE=<SNM>
##JCAMP-DX=4.24
##DATA TYPE=INFRARED SPECTRUM
##DATE=2/5/2025
##SAMPLING PROCEDURE=Instrument type and / or accessory
##ORIGIN=Admin
##XUNITS=1/CM
##YUNITS=ABSORBANCE
##RESOLUTION=4
##FIRSTX=4497.3318
##LASTX=599.83466
##DELTAX=-1.4281778
##MAXY=1.8626399
##MINY=0.39753413
##XFACTOR=1
##YFACTOR=1.7347186e-09
##NPOINTS=2730
##FIRSTY=0.42258447
##XYDATA=(X++(Y..Y))
4497+243604050+242562689+241253081+240055297+239305995+238955989+238423239
4487+237393217+236535613+236900600+238857462+241763617+244292483+245180633
4477+244175660+242325125+241054533+240996344+241747760+242460778+242543069
4467+242014873+241394850+241229699+241663217+242381166+242928707+243131636
4457+243173727+243254266+243335253+243196044+242604711+241543817+240375428
4447+239692955+239859772+240592444+241167748+241220456+241113236+241280981
4437+241531825+241347296+240591362+239630352+239024777+239169380+239878980
4427+240442498+240351908+239759425+239179396+239033882+239355765+239680758
4417+239492689+238859970+238286470+238125013+238430987+239008576+239370780
4407+239114886+238600124+238756306+239853124+240923106+240854833+239596353
4397+237780521+235898839+234506905+234374586+235535175+236909208+237599325
4387+237753223+237716681+237257084+236170746+235062865+234790563+235272528
4377+235565412+235217106+234740913+234489176+234109551+233512944+233257960
4367+233584670+234069230+234397194+234571210+234369019+233474564+232179679
4357+231314086+231411359+232211857+233013438+233394420+233428178+233205475
4347+232637421+231894458+231463242+231587917+232039989+232422827+232497954
4337+232391250+232510118+232993612+233409641+233310169+232781732+232179989
4327+231681221+231229114+230716277+230266988+230279615+230892526+231650297
4317+232119567+232462426+232924240+233190597+232810148+232019477+231621950
4307+231955413+232422174+232307670+231671635+231157732+231212330+231690911
4297+232069178+232014632+231759235+231703315+231803594+231752741+231551771
4287+231407889+231260485+230887973+230421177+230354399+230949340+231860270
4277+232486375+232504912+231967954+231075595+230070999+229311303+229163470
4267+229643477+230323836+230809169+231103856+231265175+231127117+230750997
4257+230611565+230932520+231359562+231591405+231809143+232252316+232805578
4247+233209701+233345423+233169397+232675681+232079486+231792014+232026039
4237+232555988+232985727+233110453+232988458+232826005+232815388+233021530
4227+233337108+233518098+233343189+232885894+232618781+232984524+233845410
4217+234578769+234768023+234601618+234558205+234849576+235240677+235349288
4207+235068208+234692981+234570900+234653124+234573254+234186775+233739152
4197+233467297+233416101+233676445+234326430+235071764+235390778+235064394
4187+234281144+233344564+232468577+231709156+231109851+230980366+231655743
4177+232837395+233669625+233707627+233422200+233579447+234376647+235238237
4167+235475715+235122015+234781681+234661662+234350946+233673765+233090559
4157+232990589+233176819+233416049+233965137+235032903+236108641+236458888
4147+236047377+235399608+234867649+234495721+234229243+233925554+233520263
4137+233263079+233398663+233733380+233956770+234246836+235053742+236302550
4127+237247085+237274470+236579010+235784438+235197933+234774981+234543670
4117+234624760+234924772+235182591+235300188+235293694+234992616+234285216
4107+233638804+233754356+234700145+235879065+236724661+237052041+236944512
4097+236617080+236210947+235654489+234913365+234192272+233658630+233192745
4087+232650083+232230085+232319318+232961744+233688763+233934763+233533474
4077+232854352+232582102+233209942+234522316+235717574+236134891+235703521
4067+234812742+234020748+233695515+233689708+233584498+233317059+233196267
4057+233343670+233581646+233818489+234122522+234461808+234694905+234819683
4047+235020413+235371210+235589635+235363238+234972584+235084717+235709190
4037+235981544+235395554+234561177+234262401+234473559+234734161+234914946
4027+235191061+235575342+235841441+235922067+236057754+236350963+236518931
4017+236415594+236403345+236780770+237235368+237262787+236822861+236267795
4007+235876317+235787823+236166073+236983837+237743413+237826787+237151324
3997+236289459+235991663+236603560+237811772+238987170+239772052+240180436
3987+240288429+240138310+239766090+239108374+238185933+237519284+237901760
3977+239473087+241343842+242404823+242341171+241672134+241035085+240715453
3967+240749194+241203998+242210879+243608242+244687432+244718665+243769784
3957+242674410+242261061+242811592+244155937+246070897+248244792+249858742
3947+250126062+249582060+249521432+249963986+249621848+248112610+246586363
3937+246053648+246668071+248308547+250546729+252143259+252001920+250884710
3927+250707155+252040849+253433007+253574982+253143285+253465528+254499313
3917+254927557+253712249+251192299+248601619+246946987+246690302+248295078
3907+252425405+258978461+266106666+271154418+272852120+271332351+266969562
3897+261202195+256794344+255776537+257615475+259300120+258560697+257322059
3887+258660890+262146369+264788520+266012039+267404420+267816292+265139626
3878+261588881+260899193+263464636+267441254+271616575+274667694+274716348
3868+272898936+272392266+273175189+272127317+268307706+264616120+263811859
3858+266790135+273812753+283836582+290624041+287176392+277545794+269089375
3848+265080012+266001508+270360929+275529370+279875941+283553474+286366187
3838+286624127+283885441+280352237+277765972+275749084+273473999+271378273
3828+270345193+270627441+272906306+278497562+286096016+290369709+289168455
3818+286207754+283161995+278494864+272911563+269527995+270315866+275069343
3808+281177801+285354548+288073957+291999362+295866527+295644391+292205761
3798+289539576+288107320+286298825+284180077+282986038+283324397+285396707
3788+289349016+294647440+300058530+305018613+310079164+315165725+318874216
3778+320886981+323479637+329185122+338836731+351594984+365109360+376802115
3768+386430875+395137519+402854395+409667503+417095756+425461208+432343964
3758+435913263+438061440+442122189+449687056+458971427+465411457+467894711
3748+471049390+478270659+488007206+494927139+497675686+501199871+509721934
3738+523998549+540651284+553396309+558938825+560085756+561123251+563819365
3728+568245255+574311243+581670845+589095043+594026710+593816634+588796388
3718+582836537+580282227+582978855+588783125+591660624+587335888+579654816
3708+574286229+572336343+572460451+572991619+572116990+569487191+567264522
3698+567512531+570366047+575362792+582489434+590582618+595633170+593751007
3688+587492501+583137048+582838667+585033642+588136610+592240068+598828085
3678+608518040+617327008+618336981+612940357+608618508+606818602+603149247
3668+595735150+587755216+581878310+578095910+575244456+573268938+573593466
3658+576405029+579105471+580030919+581400571+585514130+590842585+592163170
3648+586928243+579207039+572862186+568128019+563816891+559762808+557177918
3638+556939254+558531523+561180048+565362465+572209727+580531817+584792092
3628+581092225+574692259+571915263+573800450+578832860+584535562+587618739
3618+587007202+585661259+586314096+588691934+591692716+595269231+598687966
3608+599763772+598261079+597064876+598365052+601368239+603752743+604432655
3598+604579784+605867728+608442998+611216661+614025165+618197824+623871251
3588+627647603+625950365+620483783+615563043+613545708+614673467+617735065
3578+620324629+620624521+619661278+620320712+624088405+630157245+637030449
3568+642801871+644593324+641267979+635272944+629629135+625534885+622947178
3558+622014583+623147220+625743175+627872179+628202995+627653925+628007282
3548+629672565+631480924+631802051+629793718+626417521+624192928+625092399
3538+628329783+630646598+629577183+626443428+624754299+625771762+626999370
3528+625707922+622361480+618939859+616267488+614652645+614893851+616673965
3518+618138656+618578806+619367089+621323538+623070461+622806027+620564873
3508+617912981+615904373+614162605+612119844+610328597+609435653+608825972
3498+607763498+606737169+606457549+606733596+607376812+608723305+610218164
3488+610186828+608230929+606170644+605368617+604943242+603619702+601868312
3478+600977155+600927402+600368437+598398175+595642241+593485749+592590263
3468+592341567+591870012+591233874+591252360+592438461+594196998+594926251
3458+593282202+589810209+586682502+585524782+586353953+588503985+591292905
3448+593447335+593389129+590986209+587879392+585603328+584292432+583128183
3438+581362706+579048777+577122977+576656371+577929746+580196052+582019391
3428+581962972+579757483+576851260+575036442+574500703+573998088+573032954
3418+572669255+573678816+575232808+576068852+575880182+574976347+573573641
3408+572021160+570908554+570422431+570055297+569207090+567800192+566332786
3398+565335801+564625996+563477484+561708365+560070638+559468585+560144202
3388+561531755+562646732+562815508+562296434+561743515+561065836+559857126
3378+558828083+559238305+560837687+561832919+561004435+558834543+556547827
3368+554842617+553646826+552651078+551863379+551583140+551836509+552175263
3358+551978313+550833752+549220145+548656644+550127932+552676504+554490051
3348+554876908+554404804+553676685+552710589+551371518+550047908+549478566
3338+549819862+550338215+550257022+549502652+548427395+547376465+546741736
3328+546739194+546999985+546951366+546489810+546000698+546039627+547000328
3318+548503743+549245675+548372660+546841345+546352233+547121481+547729856
3308+547252942+546506200+546656249+547480198+547915399+547892344+548193989
3298+548694303+548469727+547568709+547091932+547694431+549143935+550798946
3288+551780125+551482569+550399444+549641912+549604254+549963314+550523620
3278+551152921+551482328+551316302+551007750+550899551+550693289+550030625
3268+549295187+549053260+549077037+548687190+547836166+547163881+546896149
3258+546442909+545465097+544654857+544710933+545180700+545296493+545141427
3248+545120467+545127099+544929358+544734847+544997287+545973244+547374266
3238+548379498+548340328+547516104+546736548+546457305+546397897+545928679
3228+544637059+542518019+539843553+537216640+535498064+535105847+535506517
3218+535873892+536038407+536305727+536717460+537026458+537130397+536999005
3208+536304936+534665938+532288237+529951665+528289989+527418487+527195079
3198+527358803+527366878+526663670+525344836+524145025+523580871+523384436
3188+522904188+521843500+520609639+520053559+520680523+522021450+522970571
3178+522777641+521570683+520088056+518934219+518017945+516860671+515399141
3168+514074295+513082704+512047339+510533445+508548855+506594537+505442211
3158+505588584+506622815+507425014+507312520+506649547+506032410+505393317
3148+504394992+503243662+502436275+501971764+501386479+500363003+498928239
3138+497335626+496004251+495321350+495262972+495303448+494955074+494364360
3128+494049589+494066632+493829068+492812910+491230090+489923110+489520585
3118+489661701+489329097+488158458+486956894+486621096+487077669+487529948
3108+487327568+486433972+485323016+484476286+483903886+483209576+482034436
3098+480278339+478137275+476261812+475473357+475857122+476556241+476880117
3088+477078270+477545701+477945237+477744267+477064973+476418767+476003254
3078+475651237+475159823+474518978+473985541+473781410+473648334+473087066
3068+472156602+471468237+471271114+471199165+470998916+470758191+470338932
3058+469422830+468260780+467567124+467482943+467352856+466746955+466091438
3048+465968224+466247741+466287907+465705749+464638979+463491979+462646315
3038+462191837+461863529+461403623+460831669+460188075+459325815+458231797
3028+457261682+456752263+456579673+456370731+456034142+455698756+455208063
3018+454243033+452994362+452105233+451766960+451397248+450443316+449107852
3008+448044312+447564374+447373540+447037638+446448298+445747426+445058512
2998+444431032+443861655+443275374+442625870+442046941+441750759+441720041
2988+441612358+441126131+440420930+439886257+439531182+439041039+438405382
2978+437887236+437331122+436191406+434424211+432832561+432299914+432863347
2968+433609230+433513710+432450342+431175145+430274093+429626651+429041125
2958+428689280+428582593+428307989+427637835+426835429+426175892+425681729
2948+425362664+425299064+425478113+425700249+425605553+424901452+423707791
2938+422504235+421657024+421186844+420915814+420615337+420129592+419485655
2928+418773100+417972585+417061912+416147356+415331069+414581888+413808860
2918+412968693+412113168+411391577+410934385+410722247+410615251+410454000
2908+410131396+409649155+409087750+408527719+408071661+407801661+407591310
2898+407226959+406827904+406726473+406827251+406586560+405729763+404551908
2888+403518811+402938611+402875629+403044714+402987333+402603293+402241278
2878+402119953+402018145+401666094+401099329+400506072+400005861+399630549
2868+399300317+398814950+398015465+396945053+395816813+394852505+394111707
2858+393455021+392738344+391993869+391275543+390493891+389662452+389132073
2848+389262847+389918501+390544400+390731180+390507051+390049549+389306552
2838+388134848+386745473+385708425+385437394+385816968+386366313+386660192
2828+386553745+386126893+385498692+384669521+383585468+382383905+381434817
2818+381008412+381008309+381159217+381294492+381249961+380722332+379612887
2808+378344940+377479313+377143377+377040916+376792288+376157284+375215550
2798+374358959+373870362+373628194+373391764+373122658+372857365+372509060
2788+371942157+371122847+370164894+369267209+368597983+368226690+368110623
2778+368068532+367848183+367348213+366708501+366087516+365464709+364784625
2768+364169481+363795680+363610687+363380854+363021313+362644351+362257803
2758+361677603+360829808+359928825+359236955+358754612+358236534+357486012
2748+356592347+355870413+355574300+355647864+355737475+355490977+354855011
2738+354027145+353195568+352480197+352007371+351799356+351647555+351295263
2728+350720011+350123077+349684990+349387159+349067131+348612207+348054787
2718+347527536+347184934+347031723+346775055+346122905+345289301+344811253
2708+344825031+344937869+344782494+344313517+343684010+343131229+342795155
2698+342498458+341950659+341158700+340383336+339802242+339423047+339171258
2688+338933179+338653009+338396650+338224885+338082979+337879569+337586136
2678+337253258+336960684+336687214+336267818+335609243+334851436+334182794
2668+333651282+333266417+333077713+333043937+332996693+332806064+332501155
2658+332223493+332071829+331945385+331587183+330865249+329975295+329312528
2648+329138117+329331735+329470583+329219275+328606639+327873985+327202319
2638+326683313+326375758+326256942+326211759+326133522+325993815+325837168
2628+325741235+325725327+325667327+325379495+324809878+324121444+323538667
2618+323167856+322992449+322945960+322925344+322818313+322577038+322223475
2608+321795421+321338538+320906669+320524553+320188720+319901026+319661847
2598+319456031+319277498+319129097+318973963+318730008+318336794+317818888
2588+317285005+316857019+316586951+316443361+316362444+316297881+316229505
2578+316136493+315976789+315721220+315429986+315244581+315224102+315225889
2568+315061889+314715164+314270617+313769994+313333246+313207764+313432821
2558+313678253+313656813+313439659+313170243+312785722+312244452+311753140
2548+311540041+311557495+311570277+311440054+311202661+310943863+310723720
2538+310564428+310413931+310186950+309900218+309669835+309553733+309513257
2528+309524321+309614653+309789235+309970002+310013364+309815521+309428354
2518+309035243+308795102+308723565+308712226+308656014+308569118+308549395
2508+308643988+308789020+308832245+308630759+308233422+307886044+307720430
2498+307609001+307444864+307307768+307265024+307282617+307348484+307435827
2488+307410779+307187921+306870161+306597928+306397816+306263229+306217668
2478+306206810+306085589+305811741+305503121+305238894+305016208+304942609
2468+305162340+305534113+305706565+305572528+305364479+305279369+305249786
2458+305125712+304927112+304809567+304821147+304844374+304801115+304721847
2448+304591967+304356258+304098731+304002764+304105363+304240878+304250018
2438+304134053+303958303+303734311+303523376+303503172+303729363+303978644
2428+304032451+303950675+303894668+303863023+303750735+303537841+303323951
2418+303236299+303332060+303559591+303798186+303943012+303976479+303978575
2408+304063341+304289016+304603615+304878871+305034040+305116676+305211337
2398+305310053+305346371+305324690+305339534+305463469+305663238+305848987
2388+305937944+305775319+305072455+303576359+301253393+298212273+294551267
2378+290346894+285675640+280622838+275370593+270255118+265649285+261764631
2368+258548156+255833007+253664197+252337821+252036297+252688927+254335382
2358+257367380+262201156+268957657+277548285+287336749+296474902+302549687
2348+304161507+301847818+297939971+294949772+293554110+292867051+292029461
2338+290755776+289178179+287604464+286258418+285264869+284766685+284812401
2328+285153405+285347968+285163146+284854904+284967192+285833885+287345546
2318+289134645+290842982+292279635+293472609+294578686+295728813+296970749
2308+298285769+299567837+300613235+301223947+301366265+301225940+301099049
2298+301204499+301547479+301929492+302113626+302012986+301737936+301501643
2288+301482917+301705947+302021817+302242750+302274911+302093629+301691481
2278+301142445+300627082+300290802+300128384+300045851+299957753+299799800
2268+299545435+299249768+299024024+298962657+299108343+299415967+299711874
2258+299794784+299641539+299421877+299275023+299183900+299101471+299072506
2248+299148682+299277943+299378961+299470358+299613158+299754755+299759771
2238+299620683+299514133+299571342+299697546+299738743+299739877+299863332
2228+300100483+300259191+300250842+300220880+300324097+300475658+300434736
2218+300117045+299711221+299461287+299444245+299586941+299777535+299921709
2208+299983488+300003760+300046676+300137008+300236033+300253213+300130583
2198+299932945+299793616+299783239+299878691+300000874+300057499+300031729
2188+300022555+300110001+300222770+300217960+300057705+299859999+299786469
2178+299874671+299998297+300023655+299954179+299892641+299948304+300174151
2168+300475658+300640139+300596674+300530978+300611277+300765381+300863890
2158+300937626+301079979+301273528+301411036+301424333+301372484+301415022
2148+301642140+301949627+302169152+302273399+302344696+302408090+302419222
2138+302361876+302272575+302216774+302268039+302442965+302663624+302840749
2128+302947608+303005814+303100784+303371471+303816431+304181470+304242905
2118+304108799+304047260+304139860+304286920+304434702+304637047+304942849
2108+305305998+305615752+305814661+305962031+306150082+306401596+306679533
2098+306939843+307156516+307350305+307599964+307967339+308392611+308707107
2088+308789570+308684395+308532765+308439650+308439134+308501738+308540908
2078+308528332+308607085+308938658+309459690+309949902+310306866+310611569
2068+310948845+311246883+311307699+311031240+310615795+310423106+310607652
2058+310964170+311169126+311108172+310943073+310915448+311128238+311491593
2048+311831721+312062585+312287848+312677798+313192371+313535213+313478829
2038+313123892+312748614+312537747+312536132+312732636+313070703+313428766
2028+313697598+313875307+314008348+314087754+314153999+314427091+315053952
2018+315737266+315946380+315564058+315009044+314683210+314616311+314652389
2008+314706025+314782200+314896756+315037116+315187784+315357556+315512038
1998+315590893+315785679+316552282+317940900+319160468+319353742+318605660
1988+317650388+316993599+316749610+316844443+317055344+317161481+317178627
1978+317264492+317450482+317592560+317548682+317454193+317785216+318825253
1968+320051968+320531803+320053136+319306257+318900673+318847450+318973413
1958+319248773+319629239+319977854+320218029+320379761+320544551+320844615
1948+321489068+322754816+324702744+326613906+327163183+325886681+323908413
1938+322550512+322100502+322161009+322361087+322538830+322690116+322869200
1928+323192114+324032486+325680247+327565605+328748786+329361181+330125791
1918+330597551+329711789+327900373+326734991+326928471+327882128+328591693
1908+328537439+327969608+327493140+327400987+327535437+327710982+328056126
1898+328867259+330090263+331171292+331881097+332838603+334340849+335339312
1888+334788146+333299403+332123162+331592509+331405523+331407413+331590413
1878+331896388+332249126+332695494+333768483+336480264+341101628+345654134
1868+346842126+343975519+339916179+337353382+336664330+336849392+337046927
1858+337075480+337131349+337347919+337682068+338227531+339352128+341363656
1848+344420376+348507993+352436113+353496629+350702350+346742379+344383026
1838+343966207+344370760+344941752+346376653+349597853+353803737+356523009
1828+356749475+355973973+355034541+353236800+350768046+349136469+349084758
1818+349848027+350446953+350996195+352333824+354529451+356341967+356600353
1808+355705417+355141091+356166663+359115459+362983792+365728284+366074597
1798+365064658+365017070+367463593+371853818+374994238+373654720+369250545
1788+365969833+365719213+367370443+369148668+370576628+371733764+372343033
1778+372785656+374626588+379164422+385623522+390591129+391019012+387869074
1768+383678068+380035238+378518561+380143128+383403876+385365548+385629466
1758+385859608+386307076+386807046+388993122+394291168+400822251+404359871
1748+403451637+400617913+398491314+398047420+399084846+400510470+401096511
1738+401704715+405175539+412212262+417758008+416168556+410205407+404665296
1728+400926293+399243314+399590829+401201378+403931507+409337099+418633565
1718+429210897+434299142+430923700+423728063+417648606+414794369+415763213
1708+420136705+425979938+430799798+434809522+440746318+448907466+454759633
1698+455330247+452353620+446660298+439835920+435804515+436355440+440162510
1688+445970387+454672393+465755227+472201098+468609773+460976599+456083689
1678+456060840+460062111+464913617+468005453+470758706+474888586+477509933
1668+475016680+470456992+469128298+471678519+474375835+474230389+473153999
1658+475144567+482811930+496600738+511311970+514790800+508845724+506394872
1648+509655105+512014904+507677662+500412446+496176257+496671382+501752171
1638+510891578+520958597+524627781+519349045+512520303+509977743+511737757
1628+515141271+518443113+521904386+525068514+526117829+525739940+527299224
1618+531968004+536083109+535363064+531756931+529509076+529823709+531519573
1608+533082121+534107728+535210404+536765530+538263275+539137321+539776585
1598+541102772+543397047+546008222+548109120+549429981+550195449+550696588
1588+551166012+551839911+552861876+554145971+555663886+558131403+562968168
1578+570564990+577564913+578526164+574940853+573469496+576334522+579956908
1568+580220997+578294785+577637207+580178048+587625748+601992832+619901247
1558+626493319+617722971+606955629+600707156+599027853+600315591+602528227
1548+605212624+610363094+619778376+632816490+647166326+658309083+658734870
1538+650068907+643555863+643867026+647710998+649637485+649478811+651684094
1528+658184150+666848601+675346338+684200112+693633330+700648783+703561535
1518+704539485+704636174+703531711+703042290+706199821+714404606+726909868
1508+739926610+744314087+735589643+724351366+719046620+720151632+725449094
1498+731522470+734484906+733573065+732708228+735707017+742205217+747520203
1488+747399394+743296898+739393621+737996825+739175779+741974663+745850315
1478+751306107+758947322+768197608+776332574+778923168+775062978+770116605
1468+769010081+772053331+776093429+778130761+779289100+783175679+791584561
1458+801728684+805703704+800431737+792842475+788202797+786889908+787315214
1448+787660668+786977869+785427278+783531990+781997617+782186459+785457034
1438+791197188+795663280+795670770+793593993+793121683+794179965+794375061
1428+793052070+792032544+792501900+793955046+796106728+799500105+803068924
1418+803287796+799034735+793594130+789934533+788355630+787581434+786824281
1408+786719277+787928193+789637252+790754565+792066629+795126923+799602978
1398+803436780+805310216+805343957+804115799+802861802+803181624+805242527
1388+807048617+806484429+804472248+804185068+807232373+812493964+818098946
1378+823455851+828987097+834463642+838646196+840849211+841794519+842427290
1368+843236464+844957892+848438337+853060697+856236645+855970700+853364094
1358+850681759+848581136+846655817+845206794+844937345+845516239+846003668
1348+846321153+846993506+848027806+849235829+850932311+853194013+855001547
1338+855157334+853710304+851712417+850177426+849627462+849965425+850707529
1328+851666100+852974591+854281089+854899085+855022506+855638647+857068497
1318+858634893+859855904+861102548+862861702+864985896+866846000+867951081
1308+868404700+868953770+870486012+872973252+875127545+875776396+875281889
1298+874811984+874644514+874066307+872708544+871067518+869670791+868488125
1288+867413693+866793773+866920630+867182245+866358365+863906310+860540627
1278+857562385+855940601+855751965+856114805+855992896+855385071+855275326
1268+856292858+858075927+859957059+861520363+862473505+862724469+862656574
1258+862850157+863604493+864825298+866088297+866997321+867796050+869200267
1248+871410223+873811014+875716198+876925320+877610318+878119462+878829749
1238+879928782+881402750+883288831+885836063+889204976+892924771+896063199
1228+898176191+899526464+900350413+900774070+901387186+902873112+905093307
1218+907289038+909049292+910624141+912568701+915310410+918672314+921917875
1208+924566262+926730588+928406180+929213293+929431340+930449628+933246450
1198+936911889+939612847+940916115+942122420+944280493+947026187+949516588
1188+951528356+953347916+955477745+958699598+963239837+967459225+968811147
1178+967001415+964737583+964707415+967320686+971287529+974896068+976702914
1168+976278639+974689016+973669284+974140014+975555296+976944189+978671733
1158+982069233+986713034+989532808+988161644+984244692+981738142+982823157
1148+986413897+990089300+992440612+993294729+993078949+992676733+993778653
1138+997581462+1002653386+1005798341+1005631147+1004162126+1004357153
1130+1007224343+1011492247+1015287566+1017652828+1018443311+1017594279
1121+1015251007+1012634780+1011980638+1014417300+1018469768+1021245218
1113+1020861143+1018103561+1015795336+1016186350+1018969016+1021783018
1104+1023107933+1024143882+1026481519+1029031500+1029488829+1028144260
1095+1027505855+1028641310+1030133695+1030663386+1030822609+1031781455
1087+1033773088+1035910545+1037264391+1038060234+1039019973+1039859590
1078+1039854985+1038976817+1037369326+1036176353+1037950282+1043078694
1070+1047990982+1050243544+1052108252+1055457099+1057565281+1055475654
1061+1050755299+1046969258+1045932828+1047584162+1051002690+1054950979
1053+1058564053+1061928568+1065609606+1069414820+1072272871+1073571329
1044+1073741823+1073229037+1071881582+1069644069+1067338662+1066121636
1035+1066060063+1065846139+1064485215+1062654729+1061368778+1060724943
1027+1060743635+1061765359+1063381233+1063917315+1062030823+1058466334
1018+1055067734+1052408145+1049859951+1047904189+1048381516+1051887525
1010+1056234869+1058299826+1056896845+1053554320+1050573948+1048883582
1001+1048438003+1049566037+1051860862+1052558229+1049236251+1043976722
993+1041550437+1043686244+1047644360+1050039928+1049888401+1047501973
984+1043114703+1037813805+1033826484+1032731985+1034428399+1037575485
975+1039963906+1039751700+1037110459+1033754397+1030910021+1028667492
967+1026799622+1025358434+1024688348+1024671168+1023679406+1019472388
958+1012270841+1005576583+1002500416+1002214061+1001249168+997681999+992653849
948+988336605+985785730+984568911+983209224+980421748+976777819+974066278
938+972928005+972717311+972884368+973175259+973132721+972253934+970392662
928+967907209+965718762+964928623+965991854+968396905+971184312+973307888
918+973503326+970963310+966705645+963173248+962064937+962767596+963137995
908+961923924+959513032+956827330+954534979+953202917+953319260+954783882
898+956768025+958197325+958423894+957664061+956806164+956488611+956128039
888+954436023+951457644+949226385+949380386+951013783+952151300+952279669
878+952071998+951602093+950565800+949502569+948861827+948019530+946289512
868+944283997+943499425+944599352+946884075+949346301+951588830+953578814
858+954958224+954915480+953085475+950468149+948736895+948703222+949649148
848+950129980+949005589+946143002+943104768+942124688+943455994+944900825
838+944358833+941818679+939219220+938985161+941757175+945377121+947560139
828+948967587+951310996+953752331+953802909+950867685+947071954+945373617
818+947279694+951319930+954091875+954001990+953011945+953300156+954333150
808+954450317+953478621+952519706+952152262+951911675+951249011+950204816
798+949101659+948025302+947087623+947361058+950072461+953943647+955424006
788+953349359+950966229+951424452+953867918+955824504+957494529+960431196
778+963206921+962455334+957920042+952781803+949396466+947824916+947819831
768+949470821+952351412+955504202+958250102+960222975+960986794+960201260
758+958068407+956032999+956147349+959109442+963382087+966125926+965409524
748+962285871+959913324+960249982+962461450+964091068+963175447+960233902
738+957828919+957201921+957197729+957673407+960933605+967268184+972151473
728+971112157+965459070+959943492+956367458+952858219+949087228+948364365
718+952854302+960101135+966183170+969126021+968584372+965473364+961756867
708+958183238+954067686+950155131+948207135+948097596+948328631+948218405
698+947593674+946231582+944679136+943387206+941250505+936771219+929956840
688+922646235+916991431+914091186+914290816+917451440+922289992+927145724
678+931191869+932837980+929851149+923076283+914606033+903217947+888246955
668+877537269+881132888+893126326+901894681+905776106+907795433+908931988
658+908734006+907929505+907517118+906696812+903801240+898899191+893852418
648+890776388+890491064+891615181+891781070+890178184+887781723+885310426
638+882721687+879871676+876065019+871501208+870013427+875234542+883345662
628+884483797+875056351+862750377+856538668+859665069+869451232+879527391
618+884167618+882061016+875779626+869230023+866035727+867326626+870530886
608+872985759+876201084+883576216+895111912+906760171+912608902+907810139
##END=
