##TITLE=<SNM>
##JCAMP-DX=4.24
##DATA TYPE=INFRARED SPECTRUM
##DATE=2/5/2025
##SAMPLING PROCEDURE=Instrument type and / or accessory
##ORIGIN=Admin
##XUNITS=1/CM
##YUNITS=ABSORBANCE
##RESOLUTION=4
##FIRSTX=4497.3318
##LASTX=599.83466
##DELTAX=-1.4281778
##MAXY=1.7154622
##MINY=0.27233425
##XFACTOR=1
##YFACTOR=1.5976487e-09
##NPOINTS=2730
##FIRSTY=0.29407743
##XYDATA=(X++(Y..Y))
4497+184068894+184681599+185127613+185298147+185296412+185171767+184870302
4487+184447474+184189268+184502727+185612259+187169297+188255791+188132452
4477+186969831+185562789+184508920+184040074+184298467+185118864+185778670
4467+185614199+184813818+184234802+184504928+185413745+186073364+185815941
4457+185064731+184900521+185571631+185995764+185145129+183446844+182243129
4447+182158496+182589699+182716377+182413438+181997009+181626245+181331533
4437+181228321+181327336+181470504+181687057+182273889+183252060+183928039
4427+183366744+181477779+179332473+178082030+177828636+177855329+177590314
4417+176963152+176192710+175642384+175634661+176127049+176717182+177146632
4407+177604491+178310633+178982284+179123083+178727080+178122024+177304742
4397+176194874+175278801+175171057+175796950+176601790+177255477+177633199
4387+177450447+176540344+175251231+174116106+173368273+173039554+173170336
4377+173644872+174089916+174220997+174058093+173649685+172976392+172205782
4367+171695562+171696401+172160006+172777729+173142934+173010212+172564105
4357+172344269+172704326+173386721+173837436+173828146+173543917+173229077
4347+172997975+172860682+172756146+172660843+172741950+173228107+173974878
4337+174386811+174165576+173854280+173989521+174067046+173278921+171922020
4327+170995128+170788723+170827952+170799691+170804989+170998355+171363989
4317+171725763+171927056+171936719+171676237+171063159+170477297+170688813
4307+171927448+173483628+174480752+174618082+174077250+173159555+172235405
4297+171716529+171801217+172356151+173071919+173578408+173613590+173428469
4287+173682366+174499835+175077377+174750655+173881963+173112416+172423492
4277+171555751+170756582+170459408+170597857+170787193+170933197+171217874
4267+171656930+172067688+172378890+172682277+173065744+173566806+174138752
4257+174580848+174698778+174505692+174099803+173521607+172949363+172814085
4247+173335628+174103552+174602114+174927232+175444989+176005444+176092856
4237+175517478+174518153+173481091+172788324+172608277+172830575+173412538
4227+174417030+175477745+175818849+175170516+174208723+173807888+174120396
4217+174597544+174861123+175163838+175749961+176245202+176158331+175571835
4207+174962376+174741533+175089390+175778184+176197355+175944465+175256100
4197+174626494+174212901+173844039+173498029+173449846+173730139+173766216
4187+173153884+172565075+173073915+174610322+175849293+175789805+174854221
4177+174225268+174559079+175540161+176433588+176902490+177225239+177677054
4167+178031981+178039592+177937649+177951490+177841805+177516873+177415993
4157+177657151+177547410+176648275+175650666+175467970+175991454+176354868
4147+176029228+175176504+174283525+173857694+174154048+174925777+175730393
4137+176486565+177298082+177909873+177921886+177425264+176922990+176690675
4127+176556255+176257551+175815324+175519791+175562210+175740932+175712168
4117+175520966+175591683+176105485+176699890+176940171+176828191+176669167
4107+176650084+176702464+176690787+176662620+176849905+177329477+177779091
4097+177758087+177184163+176401466+175865540+175818327+176133111+176466213
4087+176628502+176732423+176945692+177221788+177307577+176998725+176511020
4077+176532267+177482065+178691936+178926080+177886239+176525290+175783892
4067+175789134+176227500+176723972+176948807+176940637+177082630+177435580
4057+177640269+177646816+177871819+178521011+179259909+179603010+179424119
4047+179106836+179108981+179324675+179226668+178683262+178056903+177512266
4037+176948173+176595335+176935806+177956825+179073800+179832919+180201407
4027+180227821+179956463+179659829+179684490+180063667+180548033+180868339
4017+180822170+180362800+179753099+179418952+179542086+179892555+180099240
4007+180045442+179967301+180166450+180687172+181273128+181542657+181263595
3997+180625130+180149624+180143058+180421579+180723753+181048871+181514397
3987+182223262+183148811+183835049+183599750+182452779+181379399+181322822
3977+182257250+183447739+184230306+184396866+184131403+183779890+183587998
3967+183608647+183874278+184480529+185343065+186052528+186171502+185586666
3957+184535185+183514147+183178284+184054120+186155460+188711785+190422214
3947+190646247+190281732+190529642+191066388+190531488+188692329+186772212
3937+185875316+186396822+188340648+190974368+192533999+191747441+189649310
3927+188498833+189210534+190691893+191629418+192254602+193645882+195826220
3917+197199536+196076611+192697071+189007953+186619456+185864926+186831979
3907+190346200+196900739+204831410+210813761+212859027+211216890+206686575
3897+200758209+196161467+195205830+197743147+200568741+200540779+199273641
3887+200413877+203720647+205672812+205592078+205743342+205391829+202147754
3878+197907413+196698120+199487395+204572029+210245676+214497750+214959638
3868+212797525+211697917+212207746+211366792+207721137+203657747+202065807
3858+204429700+211749103+223406108+231777217+227490092+215551507+205251999
3848+200195011+200452285+204449715+209878605+215148882+220083556+224201304
3838+225507783+223258705+219547146+216006269+212469198+209073803+207059671
3828+206865913+207718973+210060667+215712956+223460559+227365111+225388044
3818+222271114+220007617+216174676+210553614+206371548+206104052+209834340
3808+215096837+218726842+221249610+225478385+230265190+231039363+227792602
3798+224285731+221188164+217369009+213759150+212210003+212926852+214976501
3788+217958993+221846757+225914941+229534537+233395943+237992871+241789137
3778+243265050+243871562+246572772+253194614+263475319+274644208+282925386
3768+287574582+290993462+295020533+300724438+309615839+322006669+335287400
3758+346482629+356552060+369225868+387211925+409675879+430635697+444724700
3748+455147621+467200070+479614179+485686759+485655196+487032225+494415200
3738+507738089+522912710+533981614+537947351+536335023+532379509+528818113
3728+527419894+528619859+531087057+532790640+532707481+531220880+529667386
3718+529690218+532799071+540220250+551633170+562592129+566600732+563583470
3708+559325576+558393853+562336384+569531590+575396141+576503174+574292803
3698+572001138+571771882+575255864+583380294+594923119+606018139+611513642
3688+609153854+601964244+594355668+589232496+587997125+590755846+597081632
3678+605851001+612218087+610081697+603443160+600916419+602244612+599592144
3668+589896574+578622178+570824937+568096698+570162464+575662556+582610225
3658+588635759+591483794+591800686+593822802+600961785+611947009+619508428
3648+616959041+607628415+599080058+595345704+596163191+598743169+600992788
3638+603651262+608728807+616531271+625479604+634568663+643349783+648555032
3628+646462068+640615499+637162744+638120284+642129074+646127642+647534591
3618+647982358+651479510+658055744+663960960+667316119+669794695+671826922
3608+671232088+667715013+664180181+663106613+664450289+666730612+669494890
3598+673832884+679654606+684302552+685738751+685615933+687157862+691042193
3588+693822216+691647399+685462076+679169755+675510762+675485691+678770189
3578+683658695+687772171+689614651+689770000+690596366+693879372+698596263
3568+701679896+701443141+699307572+696950917+694310873+690911989+687354847
3558+685255466+685813441+688719414+692455634+695334299+696877794+697807428
3548+697819665+695593886+692112627+690553164+691864978+693614412+693190447
3538+690003397+685196072+681161764+680760109+685450884+693499579+700425983
3528+702885308+702090728+701341067+701293686+699905838+696093063+691532342
3518+688640770+687560188+686026095+683117286+681123038+682103933+684907534
3508+687220240+688558543+689378791+689535857+688944902+687966022+686843955
3498+685971700+686067357+687318807+688925054+689990712+690098308+688676585
3488+685577581+682421571+681538572+683484841+686404917+687881781+687249117
3478+685506771+683308600+680563422+677982399+677353540+679619164+683700256
3468+687552055+689487804+688841858+686312543+683428656+681451421+680659900
3458+680564840+680755259+681403294+682835165+685208011+688610700+691989810
3448+692259769+687529969+681051930+677976206+679405017+682428958+684454469
3438+685098848+684712042+683283380+680910384+678547536+677765790+679266307
3428+682042151+684594075+686128542+686422079+685465882+683369710+680664452
3418+678633717+678361147+679614164+681212801+681958582+681386207+680269512
3408+679825028+680136025+680131623+678978590+676786089+674543149+673819379
3398+675291915+677644316+679060742+679112525+678133122+676203641+674188352
3388+673771699+675214091+676787134+677064256+676322056+675518746+675290795
3378+675675513+676004194+675680512+675315642+676055455+677749599+678998214
3368+679089842+678693111+678367116+677651256+675905776+673584862+672314161
3358+673249391+675435624+676678195+676386001+676214609+677479864+679442698
3348+680498656+680271228+680102075+681401727+683608852+684324265+682177355
3338+678963965+677836003+679752278+682444105+682974397+680961048+678398604
3328+676960839+676977403+678044628+679419567+680391359+680751006+680848677
3318+681193848+682252940+684029460+685525276+685701890+685061914+685026695
3308+686213305+688368871+690978099+693032785+693105087+690459223+685844630
3298+681292565+679012018+679601405+681523276+682869935+683002602+682351880
3288+681806068+682338599+684116984+686200993+687744936+688573839+688019820
3278+684870749+679792122+675957858+675779079+678287576+680529920+681013428
3268+680886731+681728095+683261666+683884631+682956340+681503129+680296150
3258+678778173+676795342+675710209+676671778+678949565+680929038+682016782
3248+682564161+682636613+682086995+681442318+681280701+681093714+680403297
3238+680237651+681506189+682868518+682337032+680174079+678281234+677496428
3228+677056570+676400999+676044710+676654095+678359058+680641321+682195486
3218+681799651+679887257+678104694+677255943+677087685+677534930+678490083
3208+678895095+677751986+675538519+673396384+671767677+670687469+670481456
3198+671273051+672285359+672403774+671501076+670496230+669854089+669105845
3188+668291865+668518174+670161580+671622326+670960413+668263288+665506172
3178+664369331+664821650+665560940+665228080+663452083+661356732+660426725
3168+660714815+660875163+660157437+659291450+659057158+659135429+658618941
3158+657139242+655152755+653538748+653089115+653689098+654274531+654071726
3148+653377951+652582998+651198285+648911619+646736653+645791723+645624062
3138+644859776+642997822+640762193+639368526+639814353+641910003+643843439
3128+643591686+640925303+637532463+635312579+634726624+634721997+634340414
3118+634046131+634741770+635998593+636465462+635815188+635017549+634634697
3108+634006435+632314977+629717240+627174793+625637938+625506839+626423490
3098+627436917+627605175+626651813+625195655+624264604+624494009+625698638
3088+626995716+627312906+626206732+624428571+623165369+622550873+621523455
3078+619495631+617475529+616949416+618119237+619675007+620207052+619562598
3068+618600507+617914231+617275560+616270191+614974643+613671932+612276399
3058+610686567+609473245+609355838+609942950+609857963+608354648+606162669
3048+604518480+603876452+603851381+604014640+604205543+604206588+603768968
3038+603088177+602692827+602715771+602647199+601832361+600066101+597789397
3028+595665095+593928047+592446259+591291361+590624783+590199923+589633219
3018+588902472+588115801+587233847+586336670+585660692+585284033+585167707
3008+585227288+585126557+584456958+583182861+581565721+579938805+578813268
2998+578658329+579301291+579986074+580117733+579599603+578508501+576827079
2988+574596749+572205547+570327028+569415153+569348260+569676307+570045504
2978+570304233+570486482+570767148+571099485+570909103+569529874+567046373
2968+564415954+562644210+561924805+561621568+561045723+560091093+559054274
2958+558120723+557266189+556505671+555949152+555599914+555261346+554660207
2948+553694459+552613057+551770014+551198124+550730323+550344374+549917089
2938+548988425+547401317+545742615+544622338+544046717+543782392+543701472
2928+543661067+543548547+543238184+542303253+540387837+537995889+536158110
2918+535273283+534915166+534636775+534328315+533894949+533190541+532310564
2908+531567469+531129028+530913576+530753563+530376606+529379855+527576474
2898+525322043+523269558+521867981+521250799+521390965+521964459+522168420
2888+521317244+519764348+518642952+518493721+518696376+518375978+517328787
2878+515973920+514854800+514165204+513544142+512629282+511764862+511510759
2868+511605669+511289449+510487706+509675927+508776139+507262900+505244366
2858+503505527+502524782+502093989+501847870+501715651+501793550+501997735
2848+501979529+501411705+500283706+498851201+497406721+496155196+495167100
2838+494371923+493637372+492844993+491916664+490872869+489878021+489144849
2828+488731442+488439883+487991369+487301549+486434779+485337633+483934340
2818+482454827+481307838+480636113+480236435+479806352+479098326+478056544
2808+476951527+476138293+475594048+474941685+473967431+472869352+471970609
2798+471346339+470786910+470152156+469655180+469466328+469087281+467780765
2788+465727608+463922175+462829544+462010229+461033289+459924764+458769120
2778+457556954+456389223+455468953+454949405+454819798+454818977+454611360
2768+454110205+453437995+452661919+451781121+450829214+449829516+448764716
2758+447629032+446420187+445113036+443717690+442400204+441507393+441273772
2748+441433412+441382300+440827422+439982738+439099478+438151899+437039307
2738+435874635+434968467+434466940+434025962+433162102+431986983+431084695
2728+430561529+429839550+428545718+427011997+425747340+424904894+424347031
2718+423890683+423433664+422976495+422524138+422007314+421364316+420616482
2708+419817836+418967854+417950173+416632539+415164181+414031780+413604644
2698+413705785+413750442+413260331+412231197+411022650+409911365+408896371
2688+407992293+407407494+407210808+407091087+406730545+406190180+405625192
2678+404855422+403625460+402154790+400975194+400269779+399772952+399266985
2668+398800713+398437709+398085374+397649359+397181222+396728343+396135598
2658+395240100+394223577+393436421+392905047+392376508+391785927+391281825
2648+390850585+390294364+389576713+388886743+388323658+387782435+387208194
2638+386679469+386167793+385547515+384876647+384316547+383810281+383190152
2628+382502645+381918256+381458327+381036861+380618903+380197064+379761944
2618+379325108+378829102+378110480+377148501+376249608+375740208+375528935
2608+375207044+374542406+373673882+372877698+372321477+372004287+371813234
2598+371603565+371238508+370646248+369918151+369254670+368746016+368305785
2588+367817129+367229345+366588622+366093810+365990244+366251622+366461776
2578+366167567+365344596+364402762+363723836+363331769+363014281+362580466
2568+361986602+361375464+360945381+360665311+360319394+359912180+359678149
2558+359611592+359407257+358959154+358509708+358210015+357890101+357375367
2548+356766579+356287734+356011956+355823365+355542363+355035053+354309641
2538+353563076+353045655+352862400+352967570+353260473+353565576+353655301
2528+353447572+353060392+352600910+352076177+351525627+351028464+350577078
2518+350119125+349690534+349372448+349180463+349098498+349158377+349376477
2508+349611180+349590698+349158265+348455723+347818880+347500608+347476843
2498+347490796+347302429+346872793+346295493+345713679+345366083+345445922
2488+345785049+345933608+345650032+345110077+344637612+344404439+344325794
2478+344152500+343749651+343258607+342891461+342686866+342567966+342485740
2468+342403215+342259468+342044576+341845577+341735034+341632400+341374753
2458+340954743+340567973+340355954+340227354+340024325+339764178+339603680
2448+339591966+339550890+339266717+338773397+338351894+338244784+338434941
2438+338689566+338788245+338730269+338685985+338698222+338590179+338295634
2428+338039479+337986913+337957775+337721170+337356002+337099735+337016277
2418+336986543+336900810+336750199+336612645+336607236+336785231+337027246
2408+337126634+337021389+336859137+336778403+336745050+336704497+336756168
2398+337008219+337335221+337440839+337155174+336605557+336094665+335778519
2388+335448234+334717002+333417798+331624191+329287347+326144022+322069607
2378+317286458+312136126+306817741+301422876+296103409+291084456+286503515
2368+282380320+278883000+276372078+274925676+274279861+274646503+276967976
2358+281791865+288480563+296173622+304938737+314882049+324527291+331424819
2348+334079301+332889483+329866923+327049331+324732185+322033941+318540408
2338+314528633+310411371+306469529+302892446+299998243+298233270+297658899
2328+297645598+297453258+297024817+297021907+298116571+300314052+302984129
2318+305475651+307558206+309331592+310949889+312495437+314012220+315584330
2308+317300709+319096741+320735968+322017190+322898324+323436712+323790202
2298+324227598+324911076+325717706+326438977+327043847+327599434+328092455
2288+328477434+328777724+329028357+329194899+329214933+329086632+328878716
2278+328667516+328494371+328363906+328226763+328008401+327757208+327698001
2268+327990456+328489223+328870657+328936319+328731798+328479075+328415950
2258+328592640+328860771+329121887+329410090+329658484+329662775+329409754
2248+329192697+329283243+329672064+330175234+330634082+330973246+331179521
2238+331297264+331410605+331551926+331626393+331540100+331423438+331550807
2228+331973839+332410489+332588074+332550207+332551438+332766852+333155674
2218+333505322+333569789+333280319+332898885+332855645+333319193+334010618
2208+334545051+334846087+335104891+335470581+335904992+336241284+336332800
2198+336223787+336149320+336288777+336584963+336869845+337087647+337325745
2188+337664313+338061416+338417481+338695125+338897818+339017800+339111666
2178+339298466+339585213+339844688+340004142+340100470+340194821+340380502
2168+340760407+341307301+341862402+342279428+342477868+342482009+342496484
2158+342753982+343224433+343648547+343867581+343962231+344087473+344306805
2148+344596089+344917905+345239759+345514419+345700659+345778595+345732408
2138+345607016+345555420+345686258+345923162+346165662+346458976+346839776
2128+347185171+347378350+347472366+347581192+347738332+347912634+348057351
2118+348139614+348200277+348336636+348562908+348780860+348959041+349215495
2108+349612001+349973625+350054769+349856255+349655017+349692138+349937138
2098+350230489+350525332+350852856+351181724+351450974+351618971+351606398
2088+351356958+350991119+350735673+350680383+350703215+350640501+350496978
2078+350457357+350640762+350917921+351087447+351121994+351123972+351194819
2068+351420978+351772081+351987235+351813195+351359159+350986418+350899864
2058+351039395+351273202+351503727+351630275+351567187+351334798+351076926
2048+350951946+351010593+351199445+351451906+351722798+351960112+352107664
2038+352142099+352108933+352128221+352274430+352427802+352410715+352296591
2028+352349232+352634562+352946827+353160041+353460293+354159627+355278672
2018+356310231+356593135+356078923+355445960+355312025+355676932+356196704
2008+356624922+356876600+356950581+356915661+356862646+356839590+356836941
1998+356853208+357054707+357725127+358764595+359434007+359094507+358018253
1988+356925286+356095264+355420143+354903730+354665930+354658730+354634181
1978+354378064+353962791+353693467+353715777+353898324+354210365+354766251
1968+355291805+355150520+354245099+353261182+352737419+352544053+352418027
1958+352381652+352450373+352445038+352255552+351964365+351689034+351519695
1948+351622888+352298680+353703614+355256623+355675589+354324303+352115872
1938+350367296+349497728+349203631+349155019+349192252+349219076+349165017
1928+349147744+349630692+350908892+352367960+353133403+353430708+353910187
1918+353967604+352530398+350163484+348499820+348224340+348752431+349132933
1908+348817906+347962365+347146259+346709982+346522324+346428831+346615929
1898+347299332+348162559+348558729+348568206+349141849+350532271+351439259
1888+350692396+348928710+347460763+346716809+346448940+346366714+346217856
1878+345896189+345598660+345691817+346723525+349461502+354030729+358544143
1868+359790557+356943567+352691978+349711874+348494747+348224042+348157410
1858+348017133+347785900+347527917+347349362+347539296+348524929+350544881
1848+353692459+357899913+361789990+362442764+359059326+354773675+352456604
1838+352144748+352384600+352579234+353861799+357446699+362227908+365053111
1828+364749650+363340873+362039616+360028357+357260645+355170927+354541919
1818+354780316+355169808+355891750+357574030+360085288+362132475+362488092
1808+361444707+360469297+360918519+363287224+366807917+369598162+370176283
1798+369210908+369068840+371698401+376713791+380490154+379247844+374472678
1788+370718364+370050183+371499028+373552520+375685739+377493709+378291274
1778+378545265+380235193+385025020+392143447+397564969+397583511+393557335
1768+388911143+385475101+384463949+386550086+390104393+392162250+392410458
1758+392678850+393249920+393828264+396052066+401640540+408983783+413601323
1748+413413554+410756199+408610631+408350447+409937928+412123042+413320583
1738+414280399+418155814+425939960+432410500+431488738+425927909+420717139
1728+417232634+415780393+416536546+418868503+422707506+429818434+441581524
1718+454899264+461823243+459156262+452628790+447786545+446557255+449292957
1708+455627734+463647814+470483822+476179108+484177400+495617591+505421913
1698+509104970+508333073+504566708+499478232+497197685+499909883+506272940
1688+514824282+526841102+542416071+553581864+553037097+547340803+544684493
1678+547517978+554862004+563422636+570246779+576437363+583862683+589742568
1668+590082254+587853826+588948995+594422785+600257192+602834447+603804299
1658+607318276+616406999+632165075+649620690+655176557+649654416+647243516
1648+650728133+652897801+647483703+638749665+633135524+632409366+636457628
1638+644503487+652066137+650244326+638024403+625496206+618685121+616679756
1628+616354171+616111820+616066752+614870741+610480964+605074179+603169694
1618+605195317+605869244+600792072+593442524+588695899+587252911+587196054
1608+586569545+584968932+583145069+581619257+580215890+578694145+577348044
1598+576744779+576973438+577396806+577234144+576220642+574626184+572909171
1588+571460176+570473536+569921493+569602176+569474957+570335385+573684090
1578+579796887+585069924+584275829+579586210+577846662+580828968+584235909
1568+583669317+580649592+578736377+579834642+586223404+600700370+619630499
1558+626278661+616378458+604859137+598254960+595776571+595691173+596845661
1548+599532713+605394690+615428865+628928032+644390892+657540225+659145801
1538+649782829+642339340+642727788+647507729+650275739+650262159+652310876
1528+658925685+668114579+677201847+686260536+695326389+701472987+703324271
1518+703432165+702996485+701408146+699962695+701550438+708219642+720534327
1508+735769162+743316814+734916158+721570138+714444959+714849226+720092379
1498+725902760+727959983+725965884+724432089+727274640+734182539+740534777
1488+741449189+737585899+733416163+731948477+733260516+735922795+739271761
1478+744083562+750991238+759137306+765887468+767484910+763179151+757764232
1468+756127766+758991806+763034546+764397994+764203546+767172719+775690447
1458+786005363+788452451+780443153+770627191+764360239+761779962+761585961
1448+761717732+760111485+756727525+753298348+751321635+751777759+755378627
1438+761020376+764291369+761840400+757077994+754710371+754947200+755162093
1428+754217909+753657621+754680823+756842284+759972402+764615274+769019527
1418+768685324+762764140+755566061+750457066+747949240+747158764+747164584
1408+747777699+749001691+749953113+749922894+750356559+753290439+758264902
1398+762614461+764544837+764063045+761758845+759069480+758060978+759418830
1388+761437924+761722582+760661476+761466726+765963427+772704784+779458752
1378+785998423+793237018+800450990+805279879+807055354+807966632+809944166
1368+812865585+816071811+819468158+822317274+822785859+820212596+816406834
1358+813503547+811944606+810628688+808367765+805224365+802267503+800282658
1348+799223342+798658204+798335493+798484276+799667752+801950015+804167810
1338+804904190+804408893+804248022+805129156+806348820+807238908+808101313
1328+809585713+811922818+814870054+817999203+821084552+824274662+827700780
1318+831092276+834016754+836285512+838009278+839518003+841162901+842932108
1308+844592153+846335244+848788526+852174426+855818347+858836094+860966440
1298+862267659+862522695+861646113+860139850+858464062+856497049+853939082
1288+850642272+846637213+842459792+838987860+836425714+834073761+831387604
1278+828555798+826042451+824366737+824061634+825053572+826402097+827247118
1268+827608853+827834789+827926939+827972828+828587137+830136825+831875589
1258+832689196+832622714+832835890+834111665+836154711+838303412+840298630
1248+842134543+843627748+844530520+844896211+845030444+845228473+845807638
1238+847161312+849473570+852508554+855865429+859172386+861980091+864023286
1228+865711014+867695486+869855007+871495279+872642939+874131890+876142031
1218+877728057+878413102+879338184+882007477+886446426+891211593+895024592
1208+897803197+900017485+901898690+903679985+905783097+908217426+910415373
1198+912003563+913179130+914280827+915548096+917165237+918967574+920489580
1188+921931225+924512547+929123185+934771128+939086587+940835350+941368477
1178+942837880+945638720+948450753+950281518+951323000+951942906+952279720
1168+952928650+954675025+957303728+959670456+961408847+963614629+966992769
1158+970364418+972071246+972109673+971772561+971935222+972896717+975076384
1148+978627035+982639332+985456961+986000013+984843025+983639553+983422048
1138+983935552+984619104+985659095+987773398+991537450+996976021+1003090236
1128+1007778400+1009248548+1008030674+1006848766+1007895546+1010441649
1120+1011943061+1011556777+1011125425+1012306439+1014550424+1016705169
1111+1018801864+1020923927+1021901539+1021099721+1020439225+1022432876
1103+1026807356+1030702059+1031829723+1030286600+1027485909+1024656118
1094+1022560394+1021969514+1023721932+1027636782+1031856435+1034444920
1085+1035318145+1035649736+1035988639+1036097578+1036207561+1037486992
1077+1040600472+1044182536+1046320120+1047279674+1048709903+1050703330
1068+1051931202+1051277496+1048766462+1045796991+1044444511+1046254383
1060+1050950233+1056245990+1059821115+1061370207+1061851775+1061820511
1051+1061991007+1063974659+1068222816+1072404042+1073741823+1072025220
1043+1069154987+1067126640+1066946892+1068389880+1070450460+1071919191
1034+1071640502+1068862644+1064353034+1060830140+1060219263+1061851850
1025+1063770437+1064326471+1063050398+1060571225+1057865892+1055442829
1017+1053218169+1051413520+1050858083+1051890835+1053815317+1055720772
1008+1056902009+1056460584+1053646313+1048890100+1044083148+1041470861
1000+1041823195+1043709026+1044901904+1044523081+1043097776+1041089576
991+1038773960+1036661596+1034846351+1032658924+1029697586+1026371751
983+1023152990+1020097412+1017253668+1014776360+1012489097+1009951500
974+1006979193+1003680742+1000052566+995908945+991254806+986441438+981777076
964+977405804+973499312+969965673+966422110+962817139+959299318+955529148
954+951257040+947284215+944533889+942659474+940884447+939463097+939012718
944+939083155+938535701+937196578+936199342+936458258+937420499+937685682
934+936598535+934738073+933043705+932298819+933120335+935315597+937505038
924+938437209+938316332+938072787+937943031+937565029+936913711+936024444
914+934287172+931345383+928447915+927681614+929684965+932860002+935111971
904+935592047+934396110+931801134+928633857+926214376+924991727+924006430
894+922387573+920608890+919527637+919041144+918512046+917842223+917283353
884+916749181+916020561+915341113+915119132+915313281+915727994+916524738
874+917764175+918767231+918894376+918490258+918161055+917708736+916711426
864+915625547+915274407+915459826+914973259+913328212+912004608+913100784
854+916650764+920093148+921000322+919633516+917946088+917106813+917068834
844+917480562+917782232+917285741+916287386+916184641+917465788+918505256
834+917445567+914808209+913079220+913980649+916861254+919431383+919948692
824+918852293+918203810+919541068+922520165+925988664+929470072+932192567
814+932215474+929200188+926448967+927313238+930868888+933192265+932285612
804+929604306+927080214+925317051+924668866+925638494+927641322+929196084
794+929838747+930324867+931066097+931742934+932170331+932786506+934244641
784+936399312+937746643+936493700+932351647+927041563+923273259+923057993
774+926439939+931731667+936436022+938143672+936458929+934005125+933468043
764+934339328+934132569+931988344+929508947+928607443+929675638+931693613
754+933819482+935973556+937273059+936703220+935911849+937055928+938423853
744+936938334+933423722+930897392+930283605+930733611+931924697+934191515
734+937418036+941031589+944201776+945574476+944124847+941139109+939743278
724+941254465+943257815+942722076+940141874+938677172+939964214+942584635
714+944456662+945178193+944981283+942960547+938547491+933646598+930875455
704+930316286+929666833+927065888+922629327+917658296+913327093+910217941
694+908544092+908132364+908057376+907190046+905546118+904345257+903988371
684+903347723+901578441+899310728+898184781+898798716+899224622+897712017
674+895454675+893598765+889848592+881783258+873727698+873638831+877951680
664+878181644+873785824+869346726+867683772+866975671+864466278+860432343
654+857608372+858257302+861694090+864430314+863270640+858523306+854036231
644+853124057+854944600+855600768+852425955+847367027+844578946+844646622
634+844904642+844977318+847012380+849925442+849258156+844776677+841070900
624+839301394+835435716+828468274+823439192+824640277+830632943+836085617
614+836624639+831626299+824186466+818586874+816759169+817725140+821095819
604+827579156+834962431+839849818+842013517
##END=
