##TITLE=<SNM>
##JCAMP-DX=4.24
##DATA TYPE=INFRARED SPECTRUM
##DATE=2/5/2025
##SAMPLING PROCEDURE=Instrument type and / or accessory
##ORIGIN=Admin
##XUNITS=1/CM
##YUNITS=ABSORBANCE
##RESOLUTION=4
##FIRSTX=4497.3318
##LASTX=599.83466
##DELTAX=-1.4281778
##MAXY=1.8465312
##MINY=0.35789934
##XFACTOR=1
##YFACTOR=1.7197161e-09
##NPOINTS=2730
##FIRSTY=0.38466993
##XYDATA=(X++(Y..Y))
4497+223682222+223221302+222850496+222541263+222148380+221690943+221300485
4487+220927288+220645835+221152385+222916575+224843821+225065971+223307258
4477+221280088+220528096+220883357+221197529+220781284+219674275+218149842
4467+216653935+215861322+216273494+217756231+219636496+221174913+221901915
4457+221818507+221372993+220996711+220626287+220041788+219573987+219794266
4447+220626772+221421274+221686714+221283121+220374208+219567922+219462782
4437+219816396+219817713+219171624+218311997+217802813+217869308+218290300
4427+218675403+218901938+219096638+219246801+219158107+218679614+217771082
4417+216642462+215765090+215454921+215806664+217010408+218890951+220287195
4407+220101575+218872841+218114178+218381628+218969021+219043713+218323019
4397+217013770+215605448+214499426+213727817+213345712+213801416+215247154
4387+216822346+217426947+216959338+216029664+214870526+213431339+212121709
4377+211560137+211731615+212019827+212077397+212188706+212626335+213148638
4367+213416920+213376022+212979031+212158205+211223246+210696160+210758929
4357+211241615+211911308+212515650+212868692+213035076+213116630+212898898
4347+212073549+210834885+209903652+209797922+210364052+211180597+212012722
4337+212574658+212432311+211601261+210750281+210479607+210724096+211052721
4327+211262377+211460733+211684461+211698550+211315111+210720162+210268790
4317+210088439+209934551+209417672+208567421+208115356+208788358+210288650
4307+211429418+211388693+210500680+209778998+209807714+210162697+210096757
4297+209638627+209444880+209734669+210168399+210604018+211181464+211745323
4287+211840446+211356841+210816238+210876373+211580517+212162521+211914393
4277+211153233+210813240+211209365+211728080+211714234+211165936+210449575
4267+209741774+209066900+208648507+208714724+208998898+209057490+209096534
4257+209772378+211163891+212582283+213331727+213265267+212760658+212294175
4247+211989327+211745271+211682884+212011457+212587776+213024227+213067985
4237+212699657+212112836+211539740+210951203+210229729+209596030+209486610
4227+210187427+211691376+213456709+214461751+214186207+213285075+212738130
4217+212788230+213090496+213315177+213314830+213074432+212651758+212073723
4207+211423821+211044368+211300242+212037157+212629506+212734074+212731908
4197+213229585+214233431+215032507+215000465+214352868+213777103+213433262
4187+212853407+211793292+210650964+210026658+210260125+211313135+212785024
4177+214082124+214768505+214794812+214421199+213985909+213684960+213512061
4167+213408793+213423159+213614081+213768715+213527935+213002444+212859299
4157+213372348+213838953+213530985+212732289+212212898+212195638+212375053
4147+212518700+212637617+212780414+212858450+212700749+212376959+212304902
4137+212719240+213263915+213556876+213843840+214488300+215134043+215087703
4127+214333112+213465790+212795093+212145225+211486225+211193785+211520036
4117+212185049+212685984+212863476+212995616+213305230+213550498+213288610
4107+212466468+211560622+211175606+211594935+212604517+213630371+214111290
4097+213893697+213328573+212883371+212668516+212487939+212229032+211930145
4087+211644602+211567346+211961010+212602437+212789634+212223452+211382507
4077+210875472+210847432+210987907+210890427+210518530+210248272+210326221
4067+210656371+211176334+211848297+212310985+212197856+211726624+211456609
4057+211586097+211823169+211832232+211597483+211371416+211414879+211854917
4047+212602437+213251334+213323270+212828539+212287052+212060517+212015113
4037+211921862+211872576+212126405+212718842+213428046+214042890+214441059
4027+214492338+214192775+213813703+213600651+213469464+213258872+213018422
4017+212770640+212273986+211403060+210565511+210347398+210818786+211527245
4007+212168950+212876733+213752858+214550133+214977485+214997830+214721403
3997+214287448+213898307+213711527+213716188+213876766+214194473+214474783
3987+214396833+214029476+213896037+214294917+214881894+215208717+215427488
3977+216106383+217416809+218720183+219072272+218133951+216495124+215136954
3967+214721524+215334618+216611026+217941729+218766194+218905317+218581995
3957+218130398+217805863+217777720+218208348+219275724+220806621+221964320
3947+222096113+221779792+221896023+222107533+221517662+220348975+219665540
3937+220081178+221683144+224257537+226823871+227787581+226640158+224878220
3927+224310479+225125863+225956047+225803545+225504328+226585967+229066051
3917+230839132+229753732+226266961+222828522+221187963+221449729+223301781
3907+227138788+233299979+240465519+245766581+247194486+244690522+239200912
3897+232853806+228724741+228700410+231703836+233999670+233178428+231808681
3887+233281904+236849207+239431814+240834418+242478079+242551610+239126307
3878+235321673+235108724+238451468+243171029+247842828+250736661+249891158
3868+247083697+245998297+246740671+246237760+243180525+239766383+238662215
3858+241567849+249533800+260989901+267345273+261072079+249177950+240051597
3848+236011728+236706843+240725587+246150696+251712848+257040442+260976384
3838+261247543+257842846+253772355+250850535+248454726+246126243+244791000
3828+244906971+245991365+248804147+254808278+261653632+263381534+259920064
3818+256738765+254676537+250771234+245466706+242260487+243261837+248034721
3808+253481353+256358307+258215731+262439660+267385686+268403829+266205597
3798+264424995+262622541+259146462+255639086+254685670+256503790+259910394
3788+264232184+269001516+273373822+277596244+283435638+291310642+298703982
3778+303695239+308151421+315105832+326038470+340678470+356472460+369246388
3768+377154458+381472938+383465933+384618468+387059508+390814077+393201186
3758+393045842+393323916+397952322+408486166+422316345+432582306+436043030
3748+438212408+444131121+452182300+456858328+458447297+462981637+473859824
3738+490448524+508970779+523854817+531649029+534052082+535670269+540429342
3728+549944818+562284739+572552224+577698549+579165273+579542196+579734210
3718+579420610+578748387+579213450+582093973+585428017+584842339+579388307
3708+572415562+567832664+568092611+572428108+576208984+575565147+572420622
3698+570744207+571797720+575365266+581993252+591645669+600580424+602311670
3688+595654535+587158778+582636118+583586068+588712706+595602407+602840853
3678+609467834+611556768+606111608+598818816+595402629+593364715+587812943
3668+580171510+575110691+573855529+574342669+574224168+573615338+574176234
3658+575628574+575911154+575642681+578665828+587008147+597498771+601743323
3648+594465157+581630921+571407349+566295442+564871695+565081421+565922990
3638+567284176+568857617+570243307+572500963+577647460+585290765+590367839
3628+588183246+582103539+577829839+577768422+581935717+587664253+590420730
3618+589397787+589048210+592017982+595922384+597521300+596841279+595407481
3608+593511949+591457745+590813146+592889255+597094086+601207277+603593936
3598+604912803+606718498+609246637+611967484+615319758+620000397+624703910
3588+625900705+622020634+616550590+613468729+612888458+612402045+610677593
3578+608899279+608747400+610132051+611840214+613868492+617774489+624020770
3568+629642693+630483118+626318492+620362312+614949663+611049906+609331414
3558+609457090+609849298+609505821+609236932+610421181+613067995+615704411
3548+616760488+615494651+611986269+607400529+603666860+601838151+601121946
3538+599963345+597811955+595555755+594764200+596722397+601089712+605157707
3528+605759744+602478938+597659384+593405683+590247987+587876717+586149422
3518+585676873+586993521+589448390+591672079+592537807+591137767+587279601
3508+583013007+581404490+582918871+584639303+583580037+580046597+576747316
3498+575662541+576637203+578095921+578618379+577863251+576351365+574942869
3488+574194222+574088095+574399164+574532916+573411366+570924091+568760466
3478+568319492+568748820+568099993+565837935+563401124+562430067+563161765
3468+564641452+565799914+565900981+564505586+561819677+558828347+556453021
3458+555042723+554575165+554509035+553790819+551908665+549802471+548858414
3448+548989531+548650248+547145849+545625853+545035462+544734131+544005275
3438+543331388+543140276+542857107+542264359+542339085+543559760+544556639
3428+543753889+541558135+539680036+539125344+539785574+541041464+542094007
3418+542466424+542361059+541840229+540182149+537006119+533378300+530703169
3408+529110354+527841189+526680578+526008217+525748513+525481946+525462952
3398+526236935+527338244+527428012+525724563+522796209+520095569+518875621
3388+519345432+520762940+522181938+522911452+522536401+521023822+518924041
3378+517094847+516031456+515493019+514862631+513997805+513412127+513588441
3368+514625074+516380374+518578623+520608670+521612654+521254863+520243358
3358+519518868+518878463+517365330+515250021+514085286+514297437+514484703
3348+513735917+512845062+512490078+512083521+511165805+510443881+510710274
3338+511671454+512394522+512401003+512076243+512038637+512295534+512346380
3328+511982385+511472820+511022349+510471885+509571880+508512891+507980416
3318+508191805+508200608+506998649+504974425+503347747+502700410+502737184
3308+502814648+502501949+502080073+502278048+503141869+503775030+503492866
3298+502652753+502329206+503372702+505453732+507035838+506812700+505022706
3288+502926078+501493494+500943100+501012800+501411593+502234377+503847989
3278+506129352+508084845+508638913+507682448+506017020+504494286+503492866
3268+502997165+502875683+502960010+502873604+502206025+501187970+500651474
3258+500947605+501448194+501368165+500519698+499064827+497260692+495769290
3248+495480507+496535163+497900335+498389867+497931528+497310949+496953747
3238+496606077+495959467+495041439+494196612+493865162+493987996+493755603
3228+492487409+490537253+488787325+487641791+486905518+486211460+485480073
3218+485195865+485797867+486587932+486095697+483948120+481318150+479298502
3208+478151374+477990449+478703016+479332191+478823423+477293722+475663821
3198+474313275+472974722+471819761+471609759+472351300+472769018+471978363
3188+470805206+470323819+470088376+469171457+468000518+467597531+467769719
3178+467392450+466019584+464256867+462818494+461900258+461287303+460713860
3168+460101009+459329660+457966395+455767799+453273661+451316122+450181194
3158+449685077+449607647+449590214+449115412+448025437+446715028+445597083
3148+444660824+443640688+442402336+441088322+440042538+439655703+440060111
3138+440829033+441187829+440717915+439724051+438790669+438157161+437693138
3128+437313339+437114081+437051832+436780517+436046739+435046429+434160114
3118+433467373+432646148+431342012+429695925+428405133+427994590+428130733
3108+427965822+427117494+426023985+425332006+425161862+425065508+424609215
3098+423809410+422947912+422143706+421322897+420546592+420072345+419975090
3088+419949442+419696739+419355238+419302452+419571826+419647037+418994085
3078+417804499+416857010+416503448+416189744+415265962+413916040+412888938
3068+412571872+412676787+412682991+412256644+411330054+410136344+409134959
3058+408579227+408233013+407777898+407276339+406953242+406836925+406812212
3048+406685150+406140891+405035181+403708932+402676076+402077020+401623222
3038+400958070+399995608+399011449+398374614+398096921+397757292+397039250
3028+396237435+395925637+396117166+396116646+395371431+394133425+393039638
3018+392390325+392109340+392033470+391856082+391096206+389592430+387871201
3008+386700296+386375258+386527345+386481074+385829717+384798005+383945587
2998+383515150+383308856+383098091+382777975+382206508+381299952+380277355
2988+379476996+378893329+378185303+377253029+376466673+376131965+376099455
2978+376062196+375830635+375286237+374475099+373654776+372955761+372238897
2968+371408765+370521272+369625460+368823646+368328845+368217484+368284620
2958+368228887+367902428+367440104+367107546+366932965+366619296+365899417
2948+364854534+363842440+363154031+362720024+362236557+361600762+360999314
2938+360538896+360078270+359478105+358785988+358135947+357601392+357188770
2928+356900645+356691752+356332782+355515821+354245998+352948135+352068718
2918+351730510+351778964+351951395+351976419+351708050+351205556+350588303
2908+349879861+349100194+348445370+348185008+348293908+348329711+347874770
2898+347058363+346391305+346076145+345800116+345306356+344762755+344356441
2888+343942259+343352872+342761164+342467147+342510090+342695103+342840916
2878+342816342+342482952+341835545+341120934+340595980+340215695+339756213
2868+339179928+338639654+338168561+337655080+337099660+336590857+336058763
2858+335398290+334795040+334539218+334569164+334590826+334542268+334558246
2848+334627253+334636854+334572040+334393232+333945707+333215707+332465258
2838+331904743+331394346+330680220+329841423+329254740+329078704+328975038
2828+328457015+327406033+326162794+325212982+324846873+324992166+325258352
2818+325197074+324645744+323837517+323149594+322768927+322611226+322499518
2808+322345422+322148417+321879944+321498272+321099514+320856446+320706543
2798+320312221+319493770+318503927+317728835+317283771+317010099+316704367
2788+316237675+315553218+314694943+313877289+313407097+313378710+313490592
2778+313321245+312757091+312031388+311403634+310920341+310460096+309922561
2768+309330887+308771932+308325378+308051463+307910295+307695683+307215994
2758+306512716+305766357+305073304+304428358+303803897+303158535+302486971
2748+301911726+301599166+301534041+301454220+301068909+300328650+299430169
2738+298598305+297983305+297692372+297700309+297754760+297584408+297195493
2728+296790149+296438943+296034154+295535403+295044034+294588884+294027849
2718+293263813+292427755+291713074+291102650+290415108+289626619+288997201
2708+288783733+288914764+289060680+288978711+288694103+288355999+287995817
2698+287491762+286792800+286097407+285689256+285629139+285723015+285744677
2688+285581292+285247641+284891081+284707333+284716171+284669415+284300845
2678+283635243+282939278+282412591+282059115+281816932+281651727+281519206
2668+281371885+281226350+281119477+280990647+280699108+280158765+279382373
2658+278458019+277600177+277112552+277112621+277365775+277536889+277498815
2648+277283909+276915963+276436205+275949463+275538504+275248369+275150490
2638+275234141+275260569+274963242+274413506+273955289+273753345+273651064
2628+273489481+273297519+273124932+272938082+272740193+272592925+272484977
2618+272336236+272139733+271968238+271856513+271776310+271682972+271499519
2608+271148088+270701274+270396876+270386132+270551389+270627865+270433945
2598+270005032+269585391+269412059+269457965+269497183+269412111+269295100
2588+269285638+269406271+269519330+269463563+269273022+269118925+269016905
2578+268830783+268541012+268234032+267933845+267706409+267738642+268067978
2568+268437709+268593347+268560144+268547822+268704431+268979213+269174277
2558+269152164+268983043+268843070+268808947+268822794+268823764+268787320
2548+268617367+268181488+267552849+267032159+266809228+266764188+266667020
2538+266411371+266029942+265629953+265343128+265256219+265342192+265440816
2528+265344150+264970815+264438357+263943054+263617340+263465497+263361171
2518+263193298+263062631+263178810+263531315+263847133+263904356+263749619
2508+263584864+263523846+263492930+263361622+263109855+262807225+262506154
2498+262252654+262126129+262159593+262264508+262308005+262245947+262121970
2488+261954616+261724823+261482050+261317625+261210856+261069220+260918468
2478+260864226+260892231+260880429+260758930+260531234+260206543+259790195
2468+259312534+258876533+258651194+258710965+258909165+259021306+258952455
2458+258735001+258460705+258263423+258199892+258132947+257896343+257527565
2448+257182702+256908181+256666517+256509630+256541847+256718558+256823456
2438+256705145+256472718+256389119+256574565+256838862+256837562+256445441
2428+255941681+255715839+255834843+256064341+256246737+256417852+256580509
2418+256628738+256535400+256420573+256375914+256342901+256238211+256128323
2408+256169499+256390800+256648927+256794723+256770808+256590093+256384336
2398+256414247+256857786+257698056+259002885+261187340+264859644+270582409
2388+278892859+290337037+305354462+324228962+347076386+373620636+402967910
2378+433849980+465177564+496159523+525848124+552858788+575832823+594482071
2368+610040827+623717082+634741533+641338153+643048187+640226620+632522557
2358+619548158+601558864+578569163+551012507+522751914+500523060+489360006
2348+490883918+504031927+524176458+542885874+553643620+557023206+557204649
2338+556871155+556494024+556225932+556541438+557066565+556378642+553551702
2328+549120717+544214445+539164232+533222713+525715274+516963417+507551920
2318+497496863+486859663+476320585+466424200+456802492+446626542+435473400
2308+423486071+411083001+398816662+387261851+376735319+367144943+358203048
2298+349719630+341604435+333708324+325906174+318349068+311379511+305152362
2288+299569362+294568573+290198970+286420192+283092318+280167829+277711885
2278+275738178+274141186+272774662+271525392+270319637+269127365+267973946
2268+266898788+265899691+264977019+264191528+263578296+263047034+262465914
2258+261797435+261083708+260358924+259636375+258947326+258353347+257913326
2248+257618824+257359137+256999128+256522039+256049022+255680868+255382674
2238+255078380+254784918+254588380+254544085+254634859+254780984+254883645
2228+254885292+254774468+254558175+254280499+254021003+253826840+253690628
2218+253598711+253535821+253468599+253402485+253415396+253544988+253685429
2208+253698842+253590756+253484334+253489186+253665968+254003881+254371775
2198+254627164+254795281+254990154+255195963+255300583+255289509+255247190
2188+255217296+255187783+255185548+255266963+255402205+255483551+255491782
2178+255530133+255654890+255806803+255908425+255893955+255702807+255368793
2168+255030255+254791763+254688963+254755076+254947402+255055210+254874426
2158+254455444+254046651+253821710+253767555+253794832+253841258+253870269
2148+253859559+253840271+253947247+254388707+255276009+256479407+257762713
2138+259060056+260506903+262237629+264289199+266661405+269343953+272302755
2128+275516010+279020631+282898900+287222128+291983974+297041153+302121382
2118+306948803+311365959+315273169+318491623+320778081+321922090+321786016
2108+320353432+317762420+314233970+310044632+305569733+301163530+296948543
2098+292835109+288740391+284720538+280920305+277454832+274371135+271698153
2088+269455262+267622775+266172185+265058122+264128795+263199935+262275044
2078+261537038+261106895+260924776+260817141+260612563+260292967+260062862
2068+260145923+260475623+260699246+260571578+260253056+260080278+260147570
2058+260285653+260342998+260298408+260192644+260102859+260115163+260247337
2048+260446006+260676509+260975483+261365975+261717666+261817884+261654326
2038+261473905+261502569+261759951+262133876+262487854+262752896+262987628
2028+263266291+263549148+263777780+264009236+264374028+264968146+265732026
2018+266356643+266487864+266140246+265711802+265533565+265608585+265779700
2008+265956152+266134423+266301171+266387178+266347736+266252457+266205458
1998+266255507+266555191+267407158+268785951+269998984+270323363+269833606
1988+269102705+268446616+267922165+267642618+267692528+267971780+268302450
1978+268554026+268678021+268718936+268753440+268890276+269384210+270426354
1968+271621313+272107500+271568907+270670670+270177880+270196734+270492450
1958+271000698+271708031+272390045+272780953+272887878+273008077+273458097
1948+274376438+275831516+277801567+279664658+280201362+278956961+277053717
1938+275844756+275584029+275762804+275978265+276177973+276443206+276777047
1928+277219944+278143761+279843536+281734910+282935466+283672987+284631740
1918+285197090+284235789+282325006+281191811+281530661+282611832+283359162
1908+283301384+282736242+282232275+282072043+282206817+282558335+283203765
1898+284275388+285594532+286606210+287197572+288111718+289644642+290651018
1888+290046746+288493390+287273476+286717779+286519492+286499684+286624944
1878+286851617+287128513+287518242+288593712+291392681+296125829+300728794
1868+301923129+299096467+295095122+292543345+291833551+292045910+292328767
1858+292398502+292378018+292461583+292710127+293230263+294340617+296380576
1848+299623847+304042528+308192112+309171106+306213812+302296170+300118266
1838+299798739+300112720+300521322+301999623+305641548+310409251+313340134
1828+313343808+312277749+311142578+309135927+306414526+304519374+304154582
1818+304582351+305012372+305725493+307530530+310291269+312475100+312729918
1808+311568718+310713389+311508549+314287415+318187728+321333293+322267923
1798+321646858+321767300+324463746+329259038+332624726+331136063+326510360
1788+323134517+322797348+324393907+326436154+328513337+330352617+331378194
1778+332078179+334313376+339540977+346844791+352287177+352394761+348504153
1768+343840914+340281687+339253996+341453458+345122625+347278278+347651493
1758+348003565+348642653+349515277+352321663+358462025+365999132+370553887
1748+370444189+368130177+366403817+366440453+368133261+370304372+371548062
1738+372737371+376886227+384581660+390240045+388176933+381847123+376243153
1728+372489312+370744133+371057386+372717511+375684683+381682247+391902457
1718+403256382+408301639+404201999+396359125+390018535+387202721+388445337
1708+393346964+399841616+405143804+409478158+415937803+424906872+431385267
1698+432017389+428578708+421987876+414255288+409772834+410255157+414153216
1688+420402755+430275988+442917759+449820942+445104085+436338122+431167224
1678+431503630+436079700+441478901+445110878+448474452+453129615+455903699
1668+453346377+449102900+448660851+452305272+455795839+456064485+455452882
1658+458291918+467278558+482975260+500160763+505713679+500936722+499867058
1648+505319981+510016043+507056842+500570648+497601742+500293579+508423920
1638+521224882+535267178+542752989+540940258+537864082+540161423+548233501
1628+559041676+569900558+580750706+591683933+600966532+608519340+617641951
1618+630486168+643737983+651653261+655170931+659097515+664851076+670827566
1608+675505501+679084380+682513807+685899216+688497992+690012408+691210659
1598+693177590+696338891+700127461+703650954+706787299+710069423+713611979
1588+717054092+720315975+723578481+726763419+729784418+733475941+739663023
1578+749129595+758408867+761720520+760959812+763372881+771277900+780989030
1568+788043919+793113923+799376078+808434083+821742600+842169225+868619894
1558+885873643+884768141+878173947+874299768+873060272+872586822+871656836
1548+870848505+872188376+876928351+884777013+894252943+899364192+890690839
1538+873431892+861502618+857552743+855745523+850345144+843193763+839921482
1528+841916280+846141422+849875853+853519615+857160535+858654709+857483839
1518+854803683+849977614+843096785+837612669+837210271+843200625+854920070
1508+868151435+871218115+857897259+841706451+833084394+831892867+834688162
1498+837404780+836636100+832888360+830859734+833935633+840406300+844271884
1488+841464042+834677349+828560140+825057027+823736219+823570824+824624960
1478+828043643+834292003+841737644+846226407+843205616+834068033+825919912
1468+823026738+824514604+826872218+827513213+827955954+831720817+839969590
1458+848545826+848671017+839169785+828872007+822946466+821452361+822494366
1448+823325434+822096266+819416873+817045880+816094821+817247321+820982446
1438+826056609+828393427+825424141+820830568+819062652+820220906+821428515
1428+820850047+819572633+819088231+819607708+821348105+824751745+827926078
1418+826687760+820710230+814361149+810570153+809118194+808414396+807518307
1408+807021566+807685436+808636564+808385351+807401435+807409823+809036744
1398+811794329+814881666+816724586+815646603+812525785+810245115+810141067
1388+810917511+810583739+809248028+808974218+810903786+814246703+817913409
1378+822043099+827357868+833264139+837453858+838531148+838032396+838122858
1368+839359997+841746032+845587284+849882161+851863095+850279083+847305498
1358+845529333+845498694+846340368+847085618+847358874+847330315+847247825
1348+847086658+846654037+846130608+846449268+848583328+852134271+855167124
1338+856102724+855332588+854382847+854355812+855474069+857373553+859585458
1328+861751266+863551762+865028676+866963513+870177981+874364859+878275707
1318+881260799+883935409+887083817+890665607+894153886+897321495+900385471
1308+903583858+907030407+910849546+914976324+918944361+922195777+924513047
1298+925938388+926340924+925478455+923769599+922400060+922043066+921980957
1288+921148225+919477633+917469249+915221575+912681166+910217217+908330141
1278+907143189+906501086+906257983+906385808+906974813+908057439+909437931
1268+910797141+912008285+913212429+914491021+915726219+916877887+917996352
1258+918902284+919429803+920041822+921632697+924686345+928780266+932580827
1248+934388186+933475045+930969503+928627001+927229041+926830525+927256076
1238+927660414+927106000+925996616+925405809+925141495+924071623+921886544
1228+919325339+917324857+916416846+916289784+916140054+915826801+915982838
1218+916780355+917451088+917463704+917472507+918460513+920376564+922346338
1208+924045767+925837875+927706789+929299050+930746989+932315612+933818868
1198+935299109+937171767+939015726+939646946+939024668+938749401+940290089
1188+943639453+947557719+950639163+952299635+953068315+954167648+956441386
1178+959340660+961499259+962499534+963319441+964794692+966653416+968037442
1168+968230566+967530165+967713930+970380638+974765977+978461173+979956804
1158+979473788+978157347+977409879+978103140+979818235+981514197+982578870
1148+982836460+982678551+983276845+985550583+988984932+992199678+994424060
1138+995967174+997310718+998338791+998735851+998539401+998039679+997812589
1128+998671523+1000766833+1003282564+1005711993+1008646967+1012470751
1120+1016111116+1018117490+1018610488+1019009212+1019740598+1019823227
1111+1019008172+1018738798+1020282535+1023454234+1027223394+1030185818
1103+1031816898+1033299080+1035973275+1039829916+1043490454+1045285335
1094+1044813271+1044009100+1045506116+1049182389+1052257526+1052789135
1085+1050977894+1047702771+1044367133+1042860481+1043094572+1043085630
1077+1042747214+1044548819+1049796210+1056296684+1060289607+1059380417
1068+1053358037+1044669711+1037721574+1035138742+1035583147+1036618082
1060+1038335811+1042496417+1049383831+1056931301+1062747318+1066727139
1051+1070532138+1073741823+1072838248+1066457834+1059303750+1057326074
1043+1061015448+1065133214+1064693246+1060307630+1056020032+1054074451
1034+1053903509+1054486553+1055675585+1057450155+1059752106+1062849009
1025+1066540532+1069202735+1068218403+1062853030+1056382016+1053269378
1017+1054664010+1057747327+1059193948+1058369189+1056811934+1056081726
1008+1056713431+1058050459+1058855324+1058891509+1059420622+1061232972
1000+1062746417+1061304232+1056703172+1052068285+1050799467+1053525096
991+1057569592+1058927832+1055627477+1049305431+1043264750+1039541133
983+1038355290+1039383848+1041944012+1044292962+1044091104+1040577662
974+1035978128+1033338107+1033411863+1034607896+1035529494+1036049665
965+1035854393+1033913456+1030064648+1025973570+1023395659+1021907862
957+1019538533+1015846663+1012606824+1010806813+1008722663+1003924945+996596454
947+989725538+986362519+987308933+990538444+992404100+990665228+986592173
937+983061193+981467060+981501581+982457007+983349006+983160458+982152350
927+981378956+980717096+979162198+976779421+974972062+974930540+976537913
917+978513925+979090799+977009769+972756067+968829622+967749075+969246438
907+970504858+969802308+968341892+967965350+969091856+971308267+973945168
897+975432480+974206155+971271112+969226613+968227238+966088465+962548889
887+960364019+961558596+964857564+967706721+969135181+969459040+968641490
877+966502508+963586043+960611141+957593054+954629591+953055422+954067828
867+956504743+957750339+957058396+956070528+955812245+955733429+955707920
857+956225318+956662514+955640888+953306496+951420044+951220266+952439452
847+954212359+955927731+957005990+956690588+954825833+952966485+953576840
837+956891336+959758516+959285204+956172289+952516812+948766368+944793894
827+941718965+940926716+942147566+943702672+944452220+944777050+945706481
817+947973564+952255617+958899374+966176431+970717668+971324349+970076604
807+968795863+967216288+964884599+962537729+961074263+960336776+959433201
797+958389462+958597142+961147602+966150297+972755929+978516629+980339030
787+977604874+972744283+968271117+965275559+964347999+965416415+966503686
777+965511244+963250261+961877603+961701740+961791716+961941515+962524212
767+963644825+965164579+966776041+968069537+969263005+971132335+973450645
757+974855052+975001315+975072437+975504503+975420765+974792041+974877234
747+976060373+976590526+974235893+969315688+965610024+966903935+972770624
737+978716892+980759381+978865512+975775333+974678773+977351443+982139179
727+984618240+982009344+976111046+971221133+969882857+971183423+972658327
717+972259673+968953911+963799615+959606984+958827282+961164170+964033637
707+966496755+969259123+971431517+971134276+968412043+964752754+961547158
697+959199387+956515973+952239396+947966979+947849760+953250278+959121819
687+959104628+953425863+946900712+941960057+938581857+937426514+938098980
677+937609309+934438373+931880080+933433869+937402807+939076865+936858513
667+934489600+934467972+935841740+937101130+936970394+934164355+926476512
657+913948113+902201911+897767841+902514540+911299220+915989701+914491229
647+910905625+908687135+908372148+908690809+907919841+904639103+898467271
637+891345420+886687727+885782280+886309036+885931593+885717744+887232922
627+889463613+890869822+891459658+891180441+889168105+885963064+883725372
617+883622849+885347857+888864487+894637388+900631832+900951601+892723555
607+881161048+873326180+871243902+871646924+870344902+866332084
##END=
