##TITLE=<SNM>
##JCAMP-DX=4.24
##DATA TYPE=INFRARED SPECTRUM
##DATE=3/5/2025
##SAMPLING PROCEDURE=Instrument type and / or accessory
##ORIGIN=Admin
##XUNITS=1/CM
##YUNITS=ABSORBANCE
##RESOLUTION=4
##FIRSTX=4497.3318
##LASTX=599.83466
##DELTAX=-1.4281778
##MAXY=1.7143216
##MINY=0.17896371
##XFACTOR=1
##YFACTOR=1.5965864e-09
##NPOINTS=2730
##FIRSTY=0.19611657
##XYDATA=(X++(Y..Y))
4497+122834921+122827762+123375468+123919833+124108418+123963307+123730837
4487+123627276+123648985+123707383+123890331+124358136+124954859+125203065
4477+124945899+124761757+125147066+125553711+125200321+124479690+124334532
4467+124731135+125007115+125166357+125630709+126293903+126798191+127122415
4457+127238659+126808430+125681145+124254389+123085861+122407930+122127329
4447+122096595+122164167+122055100+121600501+121151354+121316223+122137437
4437+122945621+123100467+122561404+121739164+121109112+120900740+120814959
4427+120235791+119085501+118173579+118235999+118911055+119151449+118427627
4417+117098709+115880193+115343706+115660379+116549519+117518056+118136955
4407+118159112+117680864+117176669+117021692+117033554+116773935+116198948
4397+115746244+115809028+116292373+116718272+116706045+116313979+115984594
4387+116140849+116722705+117123890+116669767+115218940+113396207+112181807
4377+112091462+112752519+113448705+113969896+114546702+115098440+115116136
4367+114364893+113326843+112755272+112893346+113308596+113549653+113659616
4357+113800863+113838467+113750054+113947562+114651831+115408310+115695630
4347+115572237+115294091+114797577+114086989+113684339+114055126+114872410
4337+115409644+115433687+115223971+114992322+114800667+114818997+115222907
4327+115956986+116744890+117191938+116980113+116236010+115565396+115452642
4317+115776418+116049300+115875079+115176624+114373927+114274035+115314894
4307+116949454+118220851+118816538+119062047+119195016+119241140+119211834
4297+118893565+117988064+116828505+116272950+116712196+117842392+119238247
4287+120388752+120618739+119777833+118580979+117741324+117292754+117091849
4277+117300342+117948314+118575669+118752784+118616940+118560017+118693080
4267+118903206+119144617+119377171+119466050+119463232+119788893+120716187
4257+121775694+122198158+121924959+121605905+121664349+121958203+122199381
4247+122136093+121588816+120796302+120365559+120599084+121295662+122215210
4237+123127468+123552369+123180807+122446354+122090547+122299348+122689305
4227+122965492+123195544+123515904+123926711+124388870+124811829+124924900
4217+124525143+123983457+124070628+124984884+125905551+125911758+125058438
4207+124186985+123998194+124580246+125517517+126248693+126505000+126455646
4197+126359608+126234479+125999163+125752394+125720270+125941251+126103199
4187+125844643+125233612+124712254+124492272+124343697+124152051+124298273
4177+125175961+126607525+128022363+128991647+129390956+129318260+129054776
4167+128896897+128889626+128831378+128565953+128219796+128147800+128586159
4157+129333958+129953865+130295869+130539417+130761070+130838040+130773109
4147+130718333+130618123+130209238+129470045+128711979+128162836+127872034
4137+128048430+128939736+130278360+131369226+131877976+132132378+132495521
4127+132788115+132589039+131933060+131386315+131402816+131839934+132202433
4117+132252496+132268577+132620660+133196300+133519236+133399380+133068072
4107+132699926+132278619+131961031+132134879+132973229+134117509+134917909
4097+135014629+134649302+134334056+134332217+134561169+134799966+134897572
4087+134914344+135051308+135355036+135585966+135502630+135231624+135203447
4077+135660146+136337955+136736518+136594066+136022962+135342586+134853968
4067+134658345+134694119+134946189+135412351+135886204+136124087+136262404
4057+136682647+137362491+137742117+137444119+136826191+136546495+136839080
4047+137490103+138213776+138733959+138778048+138289888+137522041+136878129
4037+136738422+137231426+138040357+138664679+138923216+138945177+138785478
4027+138459583+138269971+138608027+139368808+139994259+140207633+140289709
4017+140518100+140752866+140709448+140292182+139571076+138768109+138316011
4007+138565393+139353324+140150384+140686470+141127386+141563897+141726545
3997+141435715+140968825+140681439+140567790+140469110+140449492+140740621
3987+141421510+142214631+142605120+142302540+141590683+141058423+141094160
3977+141776562+142915923+143927066+144058364+143162206+141967956+141315458
3967+141449818+142185997+143255304+144285150+144879354+144898720+144430337
3957+143643086+142937884+142860512+143513571+144384408+144957995+145126701
3947+144928110+144446222+144112254+144503191+145522500+146283599+146163668
3937+145494678+144983661+144912169+145119897+145395710+145617353+145741755
3927+145876292+146228328+146805191+147253639+147215802+146788998+146451596
3917+146548950+146946849+147307687+147577331+147882795+148143759+148200504
3907+148193122+148440842+149027150+149708497+150146361+150078929+149538167
3897+148987055+148922973+149440216+150214484+150649240+150401865+150008231
3887+150167622+150722505+151083641+151349458+151900692+152359388+152187985
3878+151721141+151533013+151713609+152240418+153109539+153777372+153542858
3868+152818494+152561413+152833138+152968273+152691414+152369552+152401014
3858+153069322+154638811+156902125+158470484+158102721+156663159+155383194
3848+154746039+154856824+155514409+156231772+156735416+157287975+158159746
3838+158983564+159209668+159014195+159032806+159500209+160044648+160358671
3828+160657238+161333293+162515802+163902594+164744555+164526869+164093289
3818+164530005+165575671+166291990+166487668+166653742+167155641+168014271
3808+168865920+169385645+170034391+171390701+172897107+173509548+173572416
3798+173937229+174356269+174306952+174190139+174751004+176039463+177551412
3788+179050986+180789115+182925060+185288882+187825928+190709625+194003775
3778+197586561+201250975+204784071+208245807+211963326+215920073+219727470
3768+223570763+228144132+233609356+239628614+246107025+253188748+260700674
3758+268184226+275630446+283674006+293012930+303614666+314230849+323579517
3748+332060913+341188385+351942475+363201599+373193657+382381160+392058952
3738+402845409+414900314+427637508+439324240+448356552+454559729+458888513
3728+462488491+465881982+468772418+470929791+473024857+476234485+481244327
3718+487533257+493912718+500092226+506915944+514651137+522467714+530211232
3708+537989507+545069364+551263618+557485909+564363386+571354019+577454830
3698+582205023+586136477+590264449+594549554+597578344+598521402+598731248
3688+600228134+602744199+604231527+603559766+601458130+599887288+600592686
3678+603278390+604966344+603394382+601217596+601986721+606279890+612294239
3668+617129364+618945443+618345061+617547899+618380117+620956996+624354743
3658+627758501+630874650+634097345+638143745+642762827+645723448+644733314
3648+642332308+643368212+648016189+652946550+655368163+655494945+656163197
3638+659289798+663423557+666241568+668340180+671843093+676220409+678283555
3628+677273486+676134022+676765240+679420332+683404685+686874074+688604289
3618+689592556+691134465+693245621+695610489+698282977+700482834+700492317
3608+698471282+697201453+698574096+701458110+703119483+702022429+699324405
3598+697219820+697004635+699119823+703080508+707084723+708898040+707564073
3588+705137382+705607474+710162941+715369115+717171904+715514040+713742610
3578+713909487+714846459+715058209+715109728+715651647+715351344+713216893
3568+711356164+712426488+715809191+718832680+719510191+717307197+713617994
3558+711623390+713248551+716379035+717133152+715241064+714737597+718302483
3548+723542853+726277985+726072283+725586885+725744129+724898174+721975035
3538+718613911+717864049+720608738+723975836+724694487+723297877+722685996
3528+723981884+726300384+728315596+728743651+727501522+726207800+725805280
3518+724958727+722392338+719179947+717282632+717436517+719058989+720920988
3508+721930609+721798153+720931590+719855143+719081837+719197568+720441712
3498+722276533+723558906+723605796+723366046+724817536+728704899+732933184
3488+733607559+729092934+722831817+719822216+721242346+724329674+726488466
3478+727317696+727176206+726473384+725933181+725749879+725105145+723555770
3468+722494107+724101945+728243768+731470719+731043560+728832950+728199865
3458+728953012+728500242+725799904+721609325+717137408+714449689+715975619
3448+721649122+727668174+730030578+728772845+726863658+726064816+725796918
3438+725079087+723891614+722871688+722484400+722460060+722117496+721114146
3428+719661761+718883974+720584995+725055045+729754915+731974858+731885633
3418+730886240+728605072+724331914+720098402+719525870+723380531+727960414
3408+729229870+727651300+726582021+727272972+728077713+727619493+726216162
3398+724062373+720701323+717377606+717317127+721871325+728149466+731710170
3388+730895648+727803468+725908318+726894495+729145797+730117713+729836374
3378+730444895+733020692+736353443+738378585+738210663+737119433+736954871
3368+737521952+736783738+733588669+728907466+724721815+722837492+723995547
3358+727168516+730228217+731809325+731890113+730781635+729107718+728352107
3348+729775298+732984404+736300804+738187517+738118302+736987873+736273402
3338+735947489+734763973+732683429+731106801+730894827+731865175+733613607
3328+735511370+736609843+736571167+736169543+736325519+737156466+738029973
3318+738247996+737920888+737991222+739018614+740145759+739703890+737053130
3308+733416043+730503880+728959507+728499272+728822049+729467977+729456553
3298+728066513+725443154+722747222+721427068+721846835+723383891+725654083
3288+728730062+732273145+735022090+735648530+734398562+733186523+733679163
3278+735916876+738739591+740785638+741298513+740580757+739292635+737245915
3268+733868514+729844961+727036806+726697453+728711918+732435168+737245542
3258+741956985+744332529+742425060+736810170+730553533+726878516+727101466
3248+730054770+733173755+734461803+733792206+732155473+730200068+728330081
3238+727386463+727948990+729371883+730565106+731336844+731956341+731891531
3228+730191183+727063462+724272704+723755574+725827680+729071132+732020403
3218+734233850+735538175+735109448+732420907+728612688+725847690+725829098
3208+728608880+732237604+734211451+733609874+731306978+728303649+725136505
3198+722701676+722273994+724228876+727265580+729531442+730280557+730002206
3188+729219267+727422825+723847486+719508324+716861222+716583543+716733395
3178+716021837+715657621+716873467+718603607+718819986+716965529+714413476
3168+712834234+712475618+712501975+712659070+713461571+714870949+715929850
3158+715638656+713835419+711736881+711184957+712474946+713753362+713203005
3148+710758545+707428406+704278883+702075292+700989960+700760439+701100091
3138+701404277+700903572+700101520+700631269+702778264+704661168+704631153
3128+702976126+700771042+698869994+698214882+699334411+701203651+702015709
3118+701373589+700335819+699285057+697529307+695056473+692917393+691833181
3108+691544600+691099372+689589196+687498125+686673300+687990243+689673045
3098+689141728+686172894+682806693+680812014+680465718+681129640+682104393
3088+683113193+684177992+685075840+685258695+684447832+683024789+681679922
3078+680800964+680206480+679513140+678638588+677590141+675944447+673331616
3068+670691533+669986097+671959496+674804236+675929962+674968499+673799319
3058+673534855+673387391+672760951+672165422+671520913+669693335+666588088
3048+664121601+664067021+665787380+666708299+664905884+661069591+657723026
3038+656657630+657556672+658966648+659949614+660444644+660465102+659670441
3028+657690547+654728283+651823437+650299075+650737508+652337133+653298447
3018+652442710+650399425+648486355+647039047+645752567+644751607+644225069
3008+643752439+642808298+641384883+639812585+638505498+637866663+637931323
2998+638024729+637246644+635577207+634055532+633508088+633609259+633540791
2988+632976696+632061899+630927214+629671123+628619763+628157885+628129512
2978+627639112+625863837+623145766+620860790+620163679+621102780+622734025
2968+624001652+624585085+624636044+623868487+621712159+618374629+615050538
2958+612980523+612447190+612673276+612781764+612636317+612429270+611960000
2948+610945638+609610290+608407061+607443396+606591542+605954462+605794044
2938+606014903+606029053+605256231+603600421+601496395+599697825+598773807
2928+598583934+598508709+598247157+597942038+597550942+596727535+595487049
2918+594449652+594021821+593687658+592598480+590747383+588919955+587433671
2908+585783125+583776873+582138124+581511161+581604828+581700586+581399798
2898+580604652+579427071+578369552+577871498+577542076+576590021+575056586
2888+573830026+573360345+573040181+571986544+570141345+568374918+567414277
2878+566911818+565930420+564186094+562294939+560926104+560246651+560044981
2868+559932834+559501643+558608723+557535673+556634466+555823229+554787139
2858+553671717+552954409+552470393+551369381+549523809+548162888+548348804
2848+549402180+549628900+548301168+546066442+543748127+541709882+540131089
2838+539111350+538497229+537955422+537257938+536406420+535552662+534857492
2828+534347940+533880835+533297066+532636168+532106046+531778677+531500773
2818+531108968+530434145+529248276+527655446+526212020+525184330+524168884
2808+522805163+521228796+519618009+518050228+516815790+516166876+515938214
2798+515869111+515897297+515794036+515012031+513333820+511362998+509981395
2788+509445710+509265730+508854250+508016844+506816117+505311354+503661180
2778+502266847+501457290+500993658+500246521+499006371+497717427+496748909
2768+495869130+494710253+493406152+492446370+492060687+491974860+491725852
2758+491018437+489754880+488033886+486277875+485012974+484294994+483630213
2748+482562987+481023990+479153742+477194529+475462448+474080098+472865409
2738+471643291+470453726+469416927+468626447+468155721+467977981+467891743
2728+467627988+467010508+466001894+464667442+463132664+461536772+459997215
2718+458596423+457338241+456084875+454666537+453157555+451916547+451226604
2708+450984353+450817290+450411821+449696342+448759967+447634951+446321853
2698+445079127+444346214+444134800+443785965+442662815+440927150+439334506
2688+438347993+437757579+437193522+436616958+436055401+435290047+434174102
2678+432885233+431620182+430420426+429399418+428756626+428479693+428235613
2668+427621007+426567669+425495367+424883859+424708172+424503851+423879800
2658+422808431+421603336+420674390+420101634+419509652+418530083+417216537
2648+415903999+414895610+414333195+414153439+414103786+413874079+413268097
2638+412305403+411184232+410109129+409154498+408307833+407554836+406876429
2628+406269289+405820627+405631015+405589837+405373495+404760979+403844913
2618+402898533+402171930+401765789+401510808+401069425+400335317+399560070
2608+398963346+398510614+398167827+397984972+397836351+397450855+396753222
2598+395925522+395136088+394395410+393667462+393004772+392545769+392340626
2588+392221162+391958528+391484106+390875734+390269976+389821015+389551213
2578+389250088+388707198+387977571+387273255+386740221+386430025+386307611
2568+386215661+385979943+385612666+385287686+385083701+384900995+384691410
2558+384565674+384535584+384381289+383976156+383528875+383266912+383056245
2548+382625352+382096947+381960870+382407554+382984678+383154803+382953618
2538+382804773+382897432+383056655+383065242+382824484+382295519+381547972
2528+380856237+380528682+380595022+380791428+380848920+380701793+380458608
2518+380251749+380083566+379823955+379403217+378933126+378588248+378470613
2508+378590488+378850322+379067150+379097912+378898108+378457322+377786755
2498+377021998+376480564+376453124+376811741+376992244+376576434+375733987
2488+374930367+374444409+374297356+374353728+374368363+374168036+373852539
2478+373689732+373831185+374184537+374485363+374469870+374071793+373483320
2468+372998183+372808459+372917694+373133476+373161103+372867967+372447939
2458+372171715+372058374+371972733+371880484+371772145+371523958+371071824
2448+370590047+370334991+370399950+370649929+370809824+370651683+370163709
2438+369506656+368855614+368381229+368244630+368415986+368602275+368525744
2428+368212972+367919612+367836958+367920732+367987707+367961649+367909421
2418+367788127+367414578+366839694+366447291+366471520+366670465+366656727
2408+366363853+366065529+366033385+366239237+366405143+366356200+366230202
2398+366247637+366373746+366383565+366217920+366045108+365948603+365784750
2388+365381484+364617436+363254313+360928047+357384105+352620882+346818881
2378+340196236+332943379+325332878+317828736+310874895+304539449+298561332
2368+292827350+287725726+283922137+281701578+280710119+280660597+282138574
2358+286211555+293227331+302596924+313821311+326470848+338636780+347027906
2348+349255166+345703832+339551502+334283394+330802806+328061551+325254181
2338+322142736+318658303+314935538+311313758+308290306+306460675+306105848
2328+306764674+307560642+308110494+308936906+310792241+313723163+317077978
2318+320231870+322937994+325196912+327184199+329213932+331544155+334216419
2308+337050333+339696763+341798063+343237719+344195672+344932990+345597808
2298+346225891+346841467+347542311+348454532+349537549+350498489+351037235
2288+351146022+351068669+351034398+351108652+351210048+351218821+351141020
2278+351120599+351188992+351132209+350768777+350230031+349795443+349577234
2268+349515523+349556813+349669968+349753779+349688298+349494953+349356225
2258+349441493+349746686+350109148+350347778+350396123+350325117+350244180
2248+350204943+350209983+350257993+350336615+350411878+350460634+350494345
2238+350550792+350677760+350908923+351245738+351656172+352069480+352386508
2228+352545209+352563390+352503509+352469088+352635143+353118077+353738133
2218+354089657+353999237+353777930+353859763+354320110+354920157+355471596
2208+355933885+356279733+356507649+356720818+357024331+357411544+357845498
2198+358347658+358931278+359530876+360042705+360413007+360694942+361022050
2188+361489230+362048621+362548989+362885952+363114278+363407526+363895835
2178+364553411+365267471+365965552+366627943+367272527+368012832+369010507
2168+370257190+371541840+372744621+373996680+375451903+377109953+379003423
2158+381341038+384258726+387555153+390875398+394083235+397240561+400254455
2148+402825025+404859463+406709925+408809807+411230599+413767196+416291586
2138+418826802+421413425+424087033+426895636+429845132+432914241+436106659
2128+439391588+442685065+445948826+449136504+451956940+453849813+454342416
2118+453482983+451893512+450254165+448697622+446830061+444288536+441075622
2108+437444135+433739327+430330940+427437705+424894201+422207601+419017385
2098+415460713+411934280+408623853+405470037+402414815+399445011+396542293
2088+393736080+391094764+388656314+386468552+384607972+383090777+381861902
2078+380855640+379978101+379123372+378286190+377552456+376956703+376467199
2068+376092343+375866369+375718756+375466313+374988979+374352982+373738749
2058+373312971+373156623+373195822+373210382+373038726+372751266+372517975
2048+372390073+372319963+372300177+372363717+372503826+372704973+373062694
2038+373777650+374957620+376462121+378013028+379446299+380802815+382163586
2028+383406163+384182194+384230465+383654835+382760795+381712758+380519498
2018+379230181+377938288+376669018+375430548+374313558+373402831+372633258
2008+371850058+370984279+370052048+369016256+367827289+366609389+365605367
1998+364897244+364371975+363981663+363799219+363767150+363644811+363310349
1988+362888939+362509864+362154570+361779154+361394144+361002301+360612736
1978+360302129+360118826+359961022+359676921+359262903+358876287+358663454
1968+358612122+358573445+358429267+358207848+358005468+357853860+357698781
1958+357462877+357108367+356687181+356332186+356154147+356144030+356177704
1948+356105838+355876766+355611817+355501723+355575903+355646797+355553055
1938+355345822+355183724+355166925+355292661+355469617+355565636+355513147
1928+355366878+355239313+355213030+355300015+355431799+355490710+355381550
1918+355107827+354816148+354693996+354775344+354928370+355015877+354995904
1908+354903394+354809839+354774373+354792330+354817455+354821113+354797220
1898+354745963+354678316+354620227+354620488+354720875+354886632+355028048
1888+355121528+355209148+355281125+355271008+355128958+354860872+354574830
1878+354464475+354626872+354944535+355228001+355387411+355425863+355396520
1868+355404808+355492017+355517216+355337199+355062506+354975297+355175735
1858+355488694+355735500+355896253+356018891+356141416+356285520+356472145
1848+356765766+357195986+357590517+357721031+357694077+357816939+358156329
1838+358549105+358834288+358997245+359178755+359490744+359825691+360020156
1828+360165828+360444254+360808471+361130389+361446447+361832726+362219678
1818+362510910+362796392+363273688+363936266+364523582+364866668+365115826
1808+365497252+366050334+366723515+367512538+368437937+369485414+370560032
1798+371531051+372422366+373441545+374675311+375858305+376715871+377432730
1788+378360482+379604514+381085795+382681799+384258278+385758113+387283596
1778+388978681+390878758+392905057+394840601+396376275+397507825+398612159
1768+399889044+401309137+402977268+404973626+406961285+408502858+409757606
1758+411183448+412844522+414603931+416540071+418705322+420806025+422530602
1748+424009531+425538299+427211843+429033223+431016440+433078354+435036708
1738+436890829+438945986+441446558+444058829+446137318+447800110+449617011
1728+451750865+453984546+456128554+458230676+460533683+463297114+466568976
1718+470030151+473128604+475659601+477921133+480251431+482846192+485762760
1708+488844413+491710359+494139326+496562881+499735700+503903431+508381097
1698+512487939+516554798+520943277+525368491+529594947+533712578+537771485
1688+541953813+546824927+552659072+558433297+562977453+566888784+571043300
1678+575566885+580461257+585800073+591303526+596620540+601907725+607435482
1668+613006469+618348720+623621532+628978679+634130197+638793406+643374036
1658+648480233+654179868+660149418+666014660+671306251+675978569+680625576
1648+685610890+690574103+694746016+698093253+701185433+704367212+707723632
1638+711101556+713834075+715010797+714885360+714700713+715017143+715655007
1628+716216190+716341404+715718846+714087862+711815280+710022421+709214620
1618+708465057+706326051+702770349+699151332+696077369+693274516+690416037
1608+687389935+684283942+681342062+678887820+677158576+676112817+675487795
1598+675004712+674416202+673611013+672763191+672045062+671279521+670240182
1588+669029115+667851720+666756159+665804478+665218208+665185131+665598701
1578+666053262+666178998+666236266+667021818+668901512+671641273+674670063
1568+677493673+680289359+683640478+687904378+693171702+699584315+706980192
1558+713921060+719812360+726475773+735109373+745074551+754941395+763851705
1548+771658091+778438578+784239907+789065289+793147230+796804999+799806013
1538+801996090+803908189+805624963+806523110+806503025+806862463+808999154
1528+813296728+819223046+825592950+831041636+834456967+835876500+836999837
1518+838962185+841159728+843090493+845292965+848188253+851479939+854715925
1508+857393863+858929650+859927847+861772001+864406559+866803533+868088743
1498+868189840+868150715+869314595+871847160+874677192+876529334+876983746
1488+877047361+877924302+879656757+881736031+883983973+886293215+888101455
1478+888739916+888246678+887665709+888331125+890541361+893116411+894802498
1468+895445066+895722298+896578781+898327438+900193543+901413048+902030528
1458+902602612+903637545+904781937+905113450+904410926+903375247+902936589
1448+903194333+903255857+902510625+901436567+900911522+901257446+901976471
1438+902395342+902645619+903525324+905002349+906312721+907267464+908045474
1428+908138880+906979481+905495437+905380901+906706281+907523640+906255528
1418+904051638+903283558+903979288+904439523+903936206+903380847+903694291
1408+904459235+904535020+903392942+901568277+899906082+898740485+898074771
1398+897955158+898143612+898052670+897575486+897175281+896739983+895246681
1388+891897951+887426407+883808510+882477082+883485210+886155981+889874303
1378+894222873+898661788+902437677+904960611+906192585+906611158+906969177
1368+908061677+910225247+912989573+915620996+917891561+919910282+921442783
1358+922154939+922261934+922322935+922782499+924110791+926626333+929617044
1348+931492258+931446190+930391620+929909880+930808176+932779858+934952986
1338+936676853+937928166+938957499+939855272+940629400+941313407+941891838
1328+942462652+943414707+945027249+946831531+947767384+947298338+946139759
1318+945390196+945289996+945454110+945744109+946149914+946335382+946018503
1308+945377578+944651982+943820736+942951783+942498268+942894366+943828725
1298+944332789+943974695+943465106+943548283+943971634+944124175+943849781
1288+942961714+940780373+936905254+931960632+927057002+922883596+919603334
1278+917227191+915690210+914621529+913352073+911336264+908584482+905702035
1268+903483138+902294469+901703570+900833945+899289946+897450870+895523017
1258+892821857+888762838+884154583+880562743+878783474+878682900+879873286
1248+881615447+882677632+882372924+881354343+880673770+880736564+881643894
1238+883507012+885822750+887361673+887385491+886600985+886306356+886891731
1228+887834751+888891411+890309675+891895786+892989256+893534461+894272227
1218+895790542+898079027+900854478+903728487+906331388+908528408+910325000
1208+911762453+913176684+915178306+917854005+920358870+922174426+924304771
1198+927699196+930975949+931680115+929814458+928094772+928681117+931495693
1188+935234473+938694976+941337673+943191533+944288363+944429480+943908467
1178+944051451+946306561+950574045+954754395+956761169+957064085+958142473
1168+961265640+964732565+965736661+963823069+961742227+962397637+965649900
1158+968800543+970083663+970330207+970879145+971975752+973709401+976452746
1148+979828430+982779493+984875567+986515436+988233779+990467834+993201174
1138+995512133+996528400+996788160+997503004+998812032+999819787+1000055654
1128+999925737+999875935+1000109189+1001157338+1003578727+1006766330+1009208700
1118+1010522731+1011966157+1014117482+1015738835+1015925871+1015560908
1110+1015887717+1017343911+1020129740+1024109092+1027923956+1029999123
1101+1030619217+1031384833+1032445077+1032054877+1029219246+1025119535
1093+1021918866+1021157879+1022692993+1025210626+1028419508+1033119975
1084+1038282843+1040839824+1040099594+1039417230+1041677865+1045939600
1075+1048810548+1047832435+1043920133+1040524812+1040667721+1044950885
1067+1051405459+1056912906+1059730692+1060605319+1061085117+1062209350
1058+1065171837+1070170740+1073741823+1071111969+1062979072+1055982728
1050+1055027388+1058587719+1061753743+1062045161+1060747258+1059603612
1041+1059024062+1059248132+1060901516+1063467681+1064684498+1063301551
1033+1061055625+1059967231+1059590397+1058766094+1057941418+1058005406
1024+1058805517+1059781465+1060481749+1060271417+1058910048+1057148922
1015+1055825334+1055352256+1056262125+1058476468+1060517737+1061004703
1007+1059985674+1058061330+1055736557+1053637871+1052167043+1051165485
998+1050314452+1049312745+1047529967+1044344529+1040232498+1036916098
990+1035734000+1036028106+1035838158+1034296324+1032155825+1029950591
981+1027630746+1025962280+1025821461+1025986322+1023693879+1018162539
973+1011970562+1007716742+1005052019+1002079228+998210231+994139565+990503822
963+987736136+985710248+982921581+977855628+971631769+967193452+965750474
953+965801918+965536708+964541497+962833607+959923535+955806949+951862690
943+949948426+950866956+953664508+956073130+956060287+953534964+950332354
933+948380758+948344097+949897654+952246245+954050751+954153415+952570441
923+950141809+947751629+946323883+946681977+948566076+950439947+950969322
913+950139867+948408384+945885375+943061616+941178636+941092622+942047514
903+942386046+941583769+940397042+938943163+936475706+933312444+931075701
893+930791377+932181044+934403077+936284115+936573218+934968217+932360613
883+929813562+927917293+926952694+926914615+927618632+928843663+930195549
873+931232349+931659657+931460301+930708424+929206162+926938135+924736111
863+923683334+923729999+923807278+923526761+923857229+925710342+928477430
853+930473975+930450978+928548213+925958230+924022686+923689829+925066878
843+927015786+927927970+927484161+926857048+926933207+927539711+928583530
833+930405507+932578038+933595649+932329328+929338244+926231504+924019028
823+922743225+922533864+924055315+927380824+930981101+932883568+933002733
813+933418095+935924229+939869832+942948498+943867924+943072517+940997051
803+937348541+932659722+929172936+928808496+931113333+933992195+935852999
793+936263582+935270760+933742590+933572577+936079234+940395624+944028977
783+945381983+945349280+945689081+946422441+945804140+942635875+938076003
773+934643723+933801426+934824338+935705386+935610561+935884433+937621516
763+939385629+938670636+935100449+930847973+928268070+928322351+930464120
753+933198505+935473625+937157771+937811240+936395291+933343803+931493453
743+933218291+937854098+942550234+944806166+944152622+941931485+939892754
733+938991024+939065166+939729611+940853694+941796565+941702487+940494853
723+938703787+937213994+936709482+937247519+938923228+941707041+944609946
713+945537585+942742721+937117228+931630911+928217148+926945601+927408525
703+928692466+929105513+928018987+926320430+924259748+920885781+916116249
693+911385618+907914064+905812689+904374117+902475084+899462945+895904107
683+892694777+890135183+888680931+889045819+890442803+890491410+887847295
673+882393308+873053076+858591491+844856248+844194716+856295838+869734959
663+877087605+876454595+869589362+860861609+855024366+854162581+856603309
653+859179554+859894845+858390344+855055651+850293436+845211878+842326520
643+843379223+847053269+850147167+850021655+846423544+842172635+841153830
633+844033215+847489612+848640500+847723388+845566239+841147782+833076708
623+823020588+815187622+811156602+809040145+807605903+808036422+811512680
613+817070004+822054870+824260925+824494776+825312882+827816552+832051706
603+837508605+841173019+838247267
##END=
