##TITLE=<SNM>
##JCAMP-DX=4.24
##DATA TYPE=INFRARED SPECTRUM
##DATE=3/5/2025
##SAMPLING PROCEDURE=Instrument type and / or accessory
##ORIGIN=Admin
##XUNITS=1/CM
##YUNITS=ABSORBANCE
##RESOLUTION=4
##FIRSTX=4497.3318
##LASTX=599.83466
##DELTAX=-1.4281778
##MAXY=1.7344741
##MINY=0.18067621
##XFACTOR=1
##YFACTOR=1.6153549e-09
##NPOINTS=2730
##FIRSTY=0.2073345
##XYDATA=(X++(Y..Y))
4497+128352296+128090914+127596221+127173582+126767760+126149438+125479955
4487+125239403+125604645+126460790+127838452+129651991+131220144+131678879
4477+130798289+129160269+127718033+127247121+127900618+129066988+129776912
4467+129510078+128664072+128076081+128145607+128545987+128697299+128332121
4457+127592430+126742208+125962527+125402053+125193860+125285858+125439201
4447+125519142+125599969+125670519+125509142+125056929+124605887+124379707
4437+124238108+123985545+123640135+123238446+122820392+122694152+123186243
4427+124037572+124511989+124200563+123332916+122246671+121004574+119693025
4417+118695909+118352566+118582344+119088614+119591415+119658036+118860671
4407+117438168+116295458+116068014+116593204+117357000+117955111+118046970
4397+117427928+116436541+115867856+116167133+116945735+117477686+117468259
4387+117198159+117123901+117414506+117750820+117678019+117177745+116554137
4377+115867912+115024461+114268718+114018692+114326087+114818556+114987986
4367+114471145+113349200+112238224+111849237+112357702+113274729+113935660
4357+114061328+113856891+113712672+113852804+114100330+114065249+113768942
4347+113733326+114134895+114437807+114262224+113948224+113882369+113927238
4337+113737136+113177187+112502705+112325406+112964512+113796718+113933410
4327+113493465+113335252+113668578+113906086+113770852+113626246+113701298
4317+113794098+113806358+113879823+113963473+113826449+113526194+113444519
4307+113867637+114738984+115692403+116302893+116548399+116845665+117305258
4297+117330691+116440738+115115795+114314021+114444928+115202756+116135262
4287+116968594+117527352+117728838+117631130+117250925+116490662+115509984
4277+114887290+115024682+115637968+116173157+116472056+116744240+117126428
4267+117509807+117690057+117582608+117263092+116864843+116606109+116808886
4257+117568144+118508104+119161572+119425481+119472786+119494251+119581443
4247+119628369+119435499+119060995+118840599+118990537+119408240+119817734
4237+119974102+119899317+119945256+120344538+120762445+120691008+120249911
4227+120133938+120664727+121284719+121282072+120783311+120566945+120981005
4217+121537467+121678660+121455330+121200387+120950997+120543339+120017790
4207+119698320+120000365+121053521+122341907+123019996+122852309+122517646
4197+122751170+123520288+124208801+124319368+123904008+123482107+123544595
4187+124071491+124577614+124610011+124125105+123462883+123069735+123171161
4177+123607877+124018966+124183571+124151811+124120862+124214068+124289729
4167+124045155+123477790+123076017+123298462+124012260+124675875+124958797
4157+124961749+124873228+124697120+124427104+124261871+124376294+124572319
4147+124513640+124281381+124311481+124763943+125268184+125344398+124906760
4137+124331656+124098815+124370695+124890543+125275969+125376832+125323523
4127+125352387+125591915+125815181+125493682+124481299+123509228+123488500
4117+124479472+125798835+126841650+127365068+127329683+126904120+126375959
4107+125853205+125303607+124929232+125153097+126081378+127197188+127845260
4097+127946879+127945486+128101495+128224487+128068618+127658866+127285635
4087+127261503+127511981+127546352+127110863+126579318+126406244+126602822
4077+126966820+127355954+127590658+127521787+127242260+126892764+126395294
4067+125735922+125264614+125305959+125668932+125912123+125956254+126070465
4057+126306710+126304837+125776778+124976471+124497857+124656891+125237752
4047+125858380+126367519+126750067+126881768+126673539+126331985+126136551
4037+125964888+125452134+124759635+124707571+125784684+127360281+128298082
4027+128191140+127637769+127420786+127740781+128201306+128318386+128018417
4017+127619836+127268910+126675485+125683304+124772273+124589228+125233305
4007+126322244+127469750+128461166+129233365+129842001+130299500+130442825
3997+130095856+129333084+128496699+127961427+127883497+128137812+128474781
3987+128732298+128897558+128999556+129039231+129072477+129276961+129819558
3977+130650251+131489394+131992334+131954845+131502770+131043814+130876893
3967+130995218+131369104+132025607+132713364+132982329+132738806+132317089
3957+132011208+131877468+131907753+132238744+133177422+134711978+135974682
3947+135999561+135137154+134634546+134921637+135319102+135211053+134668760
3937+134174916+134387702+135731731+137730170+139084605+138936309+137893300
3927+137301858+137781450+138751446+139359353+139630790+140150694+140946546
3917+141256772+140347983+138453368+136683287+135929122+136226803+137454518
3907+140136018+144744059+150303074+154490552+155643151+153768470+149791712
3897+145322392+142437358+142478934+144784638+146579331+145914424+144745535
3887+145798719+148396163+149832393+149892446+150053989+149521309+147164684
3878+145051915+145714469+148855857+152697326+156238679+158488250+158223797
3868+156645525+156212370+156841328+156362898+154025166+151458366+150539033
3858+152529916+158323165+166889294+171918729+167515706+158550462+151542911
3848+148581635+149409515+152628676+156502284+160183197+163751494+166629969
3838+167176828+165075423+162176303+159832160+157997330+156667996+156325575
3828+156829225+157596056+159361959+163580007+168946826+171198999+169609897
3818+167514599+165561841+162074924+157806785+155347296+156203643+160180724
3808+164965022+167734461+169346754+172634233+176667825+177623208+175631375
3798+173770107+172392380+170463735+168715803+168675048+170666088+174044431
3788+178153499+182391547+186137992+189677214+194421476+200928172+207488889
3778+212333958+216414947+221952736+229986858+239847101+249323301+256251013
3768+261013614+265477113+270552081+276922547+285902238+297849329+310957312
3758+323121811+334856402+348710423+366504534+387080039+405758171+419982361
3748+433632405+449912300+465615467+473794675+475294611+477734359+485391597
3738+498352667+513865658+527644737+536808885+541659120+544405682+547187556
3728+550726851+553194421+551535599+545778760+539076389+533483750+529337211
3718+527352093+528588461+533000782+538811825+542705644+542182567+538974954
3708+536959764+538258011+543097546+550344506+557152887+560445587+560075603
3698+558705883+559018416+562142342+568004195+575778844+583012631+586013684
3688+584296709+581524650+580631773+582308491+585723585+589228528+592257255
3678+595307752+596516409+593095005+588071566+585859853+585024685+581493987
3668+575917953+572227557+571808239+573438796+575631950+577993879+580359423
3658+581477088+580928403+581993929+588222482+598397583+606566349+606645460
3648+599977479+593106813+589080896+587097844+585666429+584517733+584654960
3638+586680519+589676110+592492042+595820239+601776590+610662004+618148843
3628+619069136+615674188+613617339+615424347+620979534+628091481+632961310
3618+634084066+634302360+636072985+638878031+641941812+645558041+648755691
3608+649454849+648241912+648180512+650853535+654943692+657751912+658294472
3598+658783824+661921402+667186491+671066399+671846365+671802087+673190441
3588+674287368+671662388+666405491+662884682+662599897+663431448+663595648
3578+663807889+665018834+666396856+666622972+665945141+666117606+668322235
3568+671292588+672424053+671384983+669996112+669056005+668210875+667417256
3558+666857648+666462831+666218414+665811715+664451773+662667495+662795239
3548+665768765+668948629+669124341+666776471+664649403+663709812+662885862
3538+661505552+660559393+661663184+664916698+667735914+666958604+662788523
3528+658866403+657579078+657487938+656363189+654754180+654581125+655671336
3518+655866015+653744113+649702292+644923456+640773301+638669996+639156986
3508+641248115+643318949+644524801+645178058+645687556+645258571+642878599
3498+639844632+639068060+641403901+644549302+646105251+645886441+644653357
3488+642813952+640862449+639458007+638645200+638009803+637921910+639304508
3478+641440357+641963951+640304908+638864527+639266576+639969645+638859951
3468+636109072+633410737+632356244+633913004+637461634+640430806+640607183
3458+638669479+636924609+636100733+635192432+633857360+632830910+632206361
3448+631333409+630386143+630149917+630160027+629026792+626874485+625493363
3438+625716601+626528891+626966584+627029386+626813012+626543060+627021416
3428+628522459+629937970+630251610+629888526+629635400+629382939+628702968
3418+627668842+626456643+624909403+623106011+621632347+620540217+618879992
3408+616345230+614446307+614782714+616885686+618906597+619978839+620672093
3398+621356492+621328080+619859655+617621153+616241544+616459505+617302089
3388+617171984+615533420+613450962+612556462+613233961+614196060+614071785
3378+612680110+611018188+610441312+611275114+612050838+610894245+607928394
3368+605293229+604718494+605992314+607669106+608791198+609682230+610919447
3358+612047222+612055155+610833842+609399807+608769797+608944365+608889460
3348+607693459+605890400+605189322+606708889+609587363+611536874+611155193
3338+609334681+607743494+606792760+606152565+606194556+607485424+609242655
3328+609557033+607580807+604686429+602924696+602907649+603820119+605069660
3318+606713538+608342952+609019011+608528368+607537377+606519155+605536762
3308+604841330+604819597+605512445+606605683+607598740+607903081+607264769
3298+606086443+604953429+604169329+603993064+604537358+605152719+604875904
3288+603825654+603226159+603942586+605744280+607716705+608687217+607826848
3278+605705610+604042840+603747428+603834805+602795808+600457237+597951440
3268+596518327+596726437+598299986+600446389+602425972+603605294+603360692
3258+601747735+600008031+599582735+600557269+601578812+601430590+600399010
3248+599721844+599824791+599905710+599464401+599147034+599383888+599256366
3238+597653408+594934926+592758193+592383818+593339718+593865895+592889368
3228+591145716+589784519+588815667+587862719+587239978+587342003+588047656
3218+589094659+590083805+590163986+588691540+586112609+583701052+582475422
3208+582437231+582838247+583127202+583276790+583094731+582038540+580140614
3198+578162543+576568589+575291337+574399457+574133342+574342706+574484803
3188+574065781+573056193+571956498+571244425+570978385+571035984+571123176
3178+570568329+569009687+567134601+565897642+565376410+565056498+564741013
3168+564487776+563978278+562687890+560655652+558565262+557071488+556297794
3158+555907479+555473512+554822654+554046267+553185676+552096830+550759470
3148+549470410+548570449+548192605+548216147+548175558+547486621+546162876
3138+544920789+544272920+544015551+543766558+543405614+542825971+541851142
3128+540589904+539397409+538342325+537247574+536224703+535594066+535371898
3118+535318026+535284411+535083497+534413230+533344346+532316604+531355907
3108+530043011+528420128+527032033+525941046+524631729+523130133+522271830
3098+522592370+523673837+524757296+525456713+525599585+524803641+522750481
3088+519961486+517869103+517620368+518888174+520161846+520123914+518652243
3078+516724060+515508761+515352753+515602189+515515550+514982215+514194684
3068+513205317+511985480+510532036+509017451+507948088+507708614+507960043
3058+507908643+507020563+505301448+503299762+501916722+501706620+502343788
3048+503061691+503379427+503178992+502513596+501639353+500905768+500366566
3038+499612503+498174778+496161543+494349332+493416826+493161671+492825929
3028+492165588+491629781+491371415+490819077+489607579+488238708+487330481
3018+486833307+486418786+486040130+485671437+485019878+483912029+482636475
3008+481661498+481179194+480933337+480424134+479425431+478271938+477350058
2998+476484007+475346233+474190525+473438786+472877371+472082055+471315704
2988+471170544+471555435+471713436+471130472+469989782+468758211+467634864
2978+466598599+465813466+465540673+465594103+465392820+464758050+464108557
2968+463624962+462885362+461663975+460451739+459780218+459512554+459142423
2958+458427176+457499725+456616995+455823376+454776299+453180094+451405705
2948+450216199+449880420+449935952+449750019+449086321+448201266+447496647
2938+447074894+446716643+446287400+445901475+445629199+445276631+444604261
2928+443662272+442692867+441759180+440794092+439949405+439416881+438934909
2918+438020225+436692680+435506310+434886632+434786415+434902388+434893384
2908+434425545+433374482+432113319+431275753+431061518+431071260+430902669
2898+430524752+430025917+429442732+428905337+428578636+428363848+427857596
2888+426703217+424978383+423194585+421855048+421053164+420541525+420095972
2878+419711118+419499872+419507990+419624516+419643187+419434524+419041146
2868+418521242+417757880+416690841+415737376+415514101+415936924+416059539
2858+415169799+413671449+412532642+412230256+412492828+412702450+412316636
2848+411195872+409692099+408232899+406901259+405717988+405042851+405153400
2838+405623195+405682676+405082923+404156542+403243961+402493107+401976303
2828+401629639+401250098+400755912+400295231+400006129+399823959+399543861
2818+398941857+397892197+396529930+395257475+394452565+394168408+394171655
2808+394169884+393901334+393193136+392125137+391002159+390030540+389154120
2798+388265412+387394047+386605815+385858209+385072006+384296504+383673616
2788+383179541+382531155+381499576+380238633+379144547+378432179+377989025
2778+377610738+377206881+376745462+376177884+375534406+374920890+374289625
2768+373412984+372214917+370929658+369827786+368979742+368340322+367877944
2758+367558953+367304573+367010748+366553572+365779288+364623802+363286479
2748+362110588+361204206+360383024+359547487+358837260+358336358+357892245
2738+357297473+356491529+355599722+354843187+354333725+353934517+353397418
2728+352635790+351808371+351124231+350586394+349986346+349168632+348198747
2718+347235504+346364176+345576719+344817194+344053204+343352496+342858385
2708+342640387+342531904+342167086+341348191+340353768+339627526+339197840
2698+338723617+338066781+337461789+337088594+336770084+336213207+335418481
2688+334715338+334386385+334345206+334214621+333671139+332712582+331618053
2678+330638205+329786618+328998681+328347418+327926033+327622172+327219569
2668+326688411+326187731+325767749+325269062+324597725+323895025+323299367
2658+322727141+322031304+321214770+320403513+319768411+319469826+319485877
2648+319525064+319290129+318782549+318198515+317619057+317002219+316418628
2638+316034364+315821126+315525382+315018171+314478157+314122195+313932092
2628+313761694+313551407+313304628+312998258+312645911+312324818+312041435
2618+311692741+311219551+310662047+310051335+309401843+308814027+308420704
2608+308199367+307976682+307669186+307364679+307078916+306631445+305949776
2598+305327257+305144110+305413434+305758585+305782865+305394154+304840082
2588+304472478+304418661+304459969+304283574+303839885+303350994+302986397
2578+302707000+302449944+302245857+302071141+301791596+301356762+300881635
2568+300469088+300125283+299926712+300084178+300688267+301504523+302177188
2558+302555788+302709583+302734176+302643091+302368472+301839122+301109854
2548+300384774+299860092+299571211+299407749+299249140+299067690+298877883
2538+298622359+298221822+297734241+297349572+297216810+297321510+297500192
2528+297558677+297424679+297206644+297072794+297062167+297046540+296904019
2518+296662350+296391845+296061675+295660751+295353255+295311651+295464929
2508+295569242+295474154+295197745+294811470+294394144+294059177+293870882
2498+293735796+293511064+293206630+292963836+292866036+292853527+292789360
2488+292581934+292261597+291897018+291453532+290839499+290090620+289425058
2478+289081438+289080404+289141251+288911556+288316765+287628271+287183899
2468+287081652+287143218+287150819+287062022+286960845+286887398+286783141
2458+286549811+286162909+285755712+285498417+285378072+285236565+285006667
2448+284749962+284492907+284187458+283831053+283510439+283304765+283199198
2438+283112504+282986753+282844785+282753202+282688519+282498269+282128930
2428+281805143+281778576+281998788+282229387+282352186+282390284+282368606
2418+282273241+282088784+281855012+281691938+281722601+281968826+282327058
2408+282622304+282729476+282662025+282496313+282269533+282038934+281937407
2398+282057051+282319844+282518821+282518378+282424379+282450946+282580313
2388+282524393+282046812+281103291+279637708+277476546+274505916+270816572
2378+266604575+262022095+257217835+252458186+248077930+244313884+241208297
2368+238622209+236435033+234789605+233934069+233874994+234569614+236356438
2358+239757621+244930703+251741390+260257115+270276041+280205710+287519253
2348+290521819+289499925+286626469+284185503+282404767+280042580+276569536
2338+272612842+268859201+265368446+262020951+259123805+257166398+256209170
2328+255863908+255720833+255618254+255653308+256009289+256786064+257999075
2318+259513106+260947159+261995934+262847060+263955407+265495452+267292571
2308+269109781+270766279+272114099+273085349+273750118+274258159+274714782
2298+275146571+275570502+276017992+276509576+277058685+277626908+278096722
2288+278441394+278818389+279288184+279606879+279532712+279171197+278828112
2278+278658063+278591203+278506059+278352615+278122902+277807159+277432839
2268+277084164+276841351+276737537+276762425+276854211+276910943+276844156
2258+276621029+276285988+275962717+275783149+275775862+275833572+275813554
2248+275685718+275554764+275534304+275658505+275908458+276228647+276517122
2238+276679384+276716633+276758495+276984408+277449351+278019438+278551537
2228+279058895+279623078+280246409+280871511+281485839+282154335+282941958
2218+283837197+284818871+285948232+287293359+288824751+290463537+292157026
2208+293880845+295632357+297436929+299354560+301433751+303580007+305583187
2198+307402592+309241905+311235676+313300791+315338305+317346153+319328356
2188+321220637+322894477+324278366+325494661+326732985+327998318+329144948
2178+330095498+330872254+331452230+331715613+331591707+331183717+330642707
2168+329993510+329200776+328306091+327419265+326605241+325751108+324644181
2158+323276564+321851127+320457017+319074234+317796134+316764591+316092443
2148+315830498+315818838+316155392+317974835+322647587+330022734+338576759
2138+347210782+355763848+364092459+371826668+378867954+385577594+392530987
2128+400031183+407901622+415887701+423804891+431161367+437362172+442303474
2118+446151833+448877031+450499581+451418140+452276148+453851505+457116052
2108+463071443+472348390+484967593+500232292+516340571+530359234+539637694
2098+543292113+541884978+536651032+529158842+520403128+510403961+499057176
2088+486407089+472279463+456624117+439777493+422280491+405109158+389467206
2078+375867676+364183194+354380217+346355578+339652433+333954152+329254685
2068+325504329+322584601+320271120+318127448+315980086+314117915+312648789
2058+311385079+310359957+309686702+309272125+309151632+309536376+310488844
2048+312102835+314727778+318770483+324686725+333079319+344482522+359256540
2038+377552549+398905032+422110019+445754286+468376456+488249999+503779557
2028+514030522+518867953+519068277+515926824+510560485+503875605+496553408
2018+488680017+480048098+470766059+461057765+450900745+440236367+429177318
2008+417906988+406564373+395284301+384373402+374294238+365242595+356925275
1998+349072363+341996207+336268814+331890514+328115398+324239955+320277578
1988+316609948+313418756+310732007+308569259+306831842+305354857+304085170
1978+303016396+302088963+301263611+300545044+299963833+299629013+299619585
1968+299730558+299538408+298850836+297937997+297214873+296836715+296701223
1958+296695946+296745096+296705632+296448392+296037469+295704125+295628206
1948+295824581+296292329+297074915+297885158+297967608+296939663+295443159
1938+294353168+293867580+293698104+293617665+293576559+293585101+293645966
1928+293820700+294353408+295415208+296667719+297615427+298349621+299117559
1918+299420000+298628724+297250074+296461657+296791459+297808482+298663150
1908+298815284+298431204+298039893+297875951+297778741+297636700+297657732
1898+298122066+298928010+299600878+300004956+300635501+301660089+302263568
1888+301747244+300638177+299828119+299504037+299429667+299469057+299561728
1878+299671668+299824558+300075359+300728763+302468467+305540532+308577837
1868+309213106+306933775+303832911+301910890+301443862+301666509+301881500
1858+301830543+301579170+301340600+301300049+301595848+302386755+303843907
1848+306208548+309538221+312724321+313489122+311235528+308280009+306710832
1838+306573716+306881840+307232434+308374728+311068192+314460298+316425786
1828+316334019+315585970+314849913+313542330+311795246+310620684+310396081
1818+310652712+311024209+311725544+313136702+315101895+316733190+317209591
1808+316749315+316406341+317158043+319297472+322175467+324467583+325293083
1798+325237366+325872173+328329632+332072277+334514534+333452513+330397515
1788+328500105+328863706+330500942+332277840+333981347+335548365+336631603
1778+337521417+339489783+343648535+349426259+353938834+354559324+352237652
1768+349371538+347291701+346973412+348970559+352101569+354221073+355064764
1758+355885946+356971989+358304146+361034177+366077541+372012675+375803177
1748+376346217+375361794+374801153+375501087+377306582+379159565+379910013
1738+380379181+383060247+388525328+392838907+391873745+387755287+383944232
1728+381430317+380504821+381193685+382880034+385564937+390635237+398930234
1718+407917267+412061370+409631105+404809835+401348654+400493636+402443995
1708+406824103+412128526+416532471+420569752+426635065+434678412+440532627
1698+441868548+440594691+437468477+433365332+431183469+432456440+436392287
1688+442361848+451285046+462434459+469409106+467695009+462802193+460564207
1678+462476376+467552654+473281228+477797530+482196530+487680208+491945819
1668+492187912+490789263+491951280+496196818+500541762+502630307+503911286
1658+507397004+515171543+527935647+542068107+547718013+545142883+544665818
1648+548774536+552612933+551547517+548081946+546700012+548874975+554682402
1638+563756442+573482558+577944877+575180899+571304829+571429805+576028797
1628+583011930+590335713+597569943+604551638+610412273+615700792+622944764
1618+633339449+643341310+647101075+644907147+641257635+638317908+635874839
1608+633408302+631277028+630553369+632108357+636047968+641824179+648529649
1598+655118150+660715918+664894042+667675473+669411931+670573357+671513686
1588+672478958+673660679+675000622+676175996+677219051+679146865+683515904
1578+690780834+698259702+701538603+701589449+703722864+710200373+718979482
1568+727120020+734987949+744663477+756972767+772750174+794588430+822627233
1558+844955800+852214825+853627311+856259450+860205038+864163540+867357500
1548+869759685+872279135+875959273+881382288+888187828+891935196+885057113
1538+871163979+861191047+857646402+856488296+853501708+849214880+846897045
1528+847770071+850722122+854508381+858926863+863307341+865735650+865594033
1518+864079190+861664680+858623186+856475750+857077127+861594056+870094357
1508+879566425+881810462+873126700+862741535+857309220+856539659+858454190
1498+860912978+861570219+859938997+858781999+860731141+865073391+867952456
1488+866496577+862416604+858902584+857109967+856510878+856371770+856714633
1478+858259512+861617450+866485803+870762889+870873143+866109804+860766637
1468+858748495+860136553+861995662+861791464+861206619+863893220+870642673
1458+877009043+875649249+867498158+860656162+858110957+858268294+858667834
1448+857238153+853427098+848741763+844944287+842638629+842240639+844509324
1438+848770397+851488952+849886069+846463115+844762228+844841930+844518401
1428+842860317+841278097+840995600+841750254+843253732+845709052+847794202
1418+846620673+842011940+836857400+833084794+830928502+829975111+829716081
1408+829915704+830336571+830157317+828935967+827789300+827909812+828913090
1398+829805229+830277902+829827073+827511526+824163699+822412777+823405945
1388+825022850+824074108+820779120+818694855+820025277+823942749+828796268
1378+834080692+839880740+845395338+849171929+851025799+852495847+854895818
1368+858191618+861842459+865598313+868953373+870654038+869910158+867635348
1358+865406587+863924953+863014659+862455716+862200967+862159345+862537041
1348+863988050+866663286+869695260+872305407+874709215+877388068+880219607
1338+882731087+884618165+885770071+886420745+887401219+889603782+893087176
1328+897068630+900801164+904193196+907656000+911409198+914865508+917262823
1318+919076398+921621456+925050313+928245601+930654575+932628808+934241655
1308+935300650+936136481+937414582+939476044+941967155+943781690+943837481
1298+942317915+940489949+939281513+938629364+937937364+936793280+935176301
1288+933155502+930881429+928803289+927214648+925738033+924064820+922739489
1278+922216707+921924985+921157785+920073773+919240155+918897365+918908287
1268+918886296+918333699+917061503+915583116+914922111+915833363+918180569
1258+921140222+923797156+925337607+925116509+923006858+919478226+915203279
1248+910711220+906181229+901345569+896014062+890864909+887132522+885422485
1238+885256293+885680776+885772581+884740152+882557146+880517085+880068101
1228+881117945+882428369+883390173+884337660+885466985+886535426+887371996
1218+888009976+888576741+889401060+890968595+893516087+896585403+899082344
1208+900310926+901015915+902632377+905422516+908184022+910040253+911737523
1198+914606995+918602396+921955685+923255113+923435769+924742577+927981848
1188+931587524+933539249+933870674+934592193+937174666+941151765+945369667
1178+949176810+951803340+952378592+951475162+950983744+951900753+953543930
1168+955086595+956649554+958554196+960567837+962546867+965001743+968257176
1158+971683451+974604728+977213104+979736686+981697857+982700397+983044294
1148+983329448+984154874+985733257+987206847+987376876+986530418+986254120
1138+987314444+989076582+991068601+993731365+997102439+1000295660+1002975546
1128+1005583184+1007710547+1008258568+1007725602+1008513907+1012140837
1120+1017166232+1020524465+1020644533+1018918334+1017980809+1018823504
1111+1020021017+1019916151+1019064158+1019377650+1020864745+1021441400
1103+1020583355+1020641434+1023450391+1027722534+1031111762+1033759102
1094+1037293859+1040651797+1040835774+1038343777+1037721664+1041567404
1085+1047225391+1050705759+1051963786+1053869387+1057030064+1058289789
1077+1054865802+1048583119+1044128549+1044315035+1048748942+1055093247
1068+1060204394+1062258845+1062976821+1065300634+1068800041+1070408312
1060+1069349169+1067844289+1067517144+1067773369+1067847315+1068156895
1051+1068584183+1067774107+1065448450+1063322858+1062519129+1062211614
1043+1061904764+1062616394+1064180312+1064282596+1061852294+1058782757
1034+1057267766+1057478680+1058442845+1059781312+1061828531+1064967659
1025+1068975458+1072426824+1073741823+1073361544+1073034547+1072996836
1017+1071883821+1069189471+1065850499+1062396994+1058420337+1053896545
1008+1049925792+1048035024+1048768867+1051053788+1053124696+1053850643
1000+1053373910+1053061304+1054276234+1056271794+1056224047+1052825521
991+1048290364+1045213447+1043455293+1041723485+1039942897+1038143491
983+1035712672+1032903124+1030885941+1029687689+1027666595+1023867569
974+1019596608+1016973472+1016555040+1016426189+1014009614+1009040527
965+1003306676+997457774+990673636+983622277+978940336+978199630+979992837
955+981121719+979286742+974930102+970316867+967098038+965566811+965671014
945+966976272+967526802+964901674+959260291+953662523+950919171+951349337
935+953270879+954697608+954749045+954077118+953878971+954486473+955205335
925+955313596+954692516+953571825+952306049+951377823+950984335+950603760
915+949500560+947748827+946306084+946099082+947213352+948716018+949227952
905+948078702+945880567+943598303+941790779+941125936+942209285+944162855
895+944672206+942707197+940127603+939337083+940486259+941899187+942271570
885+941637132+940790231+940359106+940120075+939330662+937912273+936714612
875+936488865+937176732+938204068+939027354+939510655+939914623+940339992
865+940283168+938997983+936373224+933301031+931056551+930109875+929785018
855+929425403+929063868+928786832+928589793+928851258+929997113+931796814
845+933432243+934061736+933329295+931651433+930005009+929307991+929944495
835+931499189+933007980+933997163+935046934+936889955+939208823+940634149
825+940057495+937896185+935965861+936104158+938687443+941919408+943185848
815+942396583+942706607+946367115+951399815+954176375+954289138+954039038
805+954206854+953582452+951869758+950183114+948535583+945854148+943139356
795+943047552+945917392+949229576+950863011+950667226+949383960+948175082
785+948327179+949673985+950597783+949978104+947946309+945518738+944212742
776+945040972+947288773+948737788+947787644+945289670+943501185+943498012
766+944571767+946044029+948121210+950662577+952776288+953774252+953790045
756+953764585+954607796+955846489+955799258+953798679+951198421+949668376
746+949784091+951145508+952950007+954636503+956325435+958296642+959845432
736+959493122+957063927+954410535+953215826+953229036+952792744+950609443
726+947136824+944677740+945611132+949898772+954754137+957269823+956873308
716+954751554+952437778+951170747+951202185+951441806+950579112+948818966
706+947433711+947054392+947000815+945982924+943052422+938595934+934579057
696+932968572+933426191+933080597+929651445+923826970+918087658+914403535
686+912137137+908410507+902499689+897060586+894371475+894026767+894506894
676+895077792+895173507+893607818+888805957+879713503+869586556+866759075
666+872351604+879247177+882617439+881593054+877080479+870550205+864657025
656+862280373+863617438+866969398+871097340+874348050+874387753+871390390
646+868641873+868350668+869164803+868132448+864261470+860102311+858655879
636+859197553+859372084+860050432+862811568+865879408+866467427+864254459
626+860294702+855446274+850999010+848092049+845972066+842172228+835684535
616+829088211+826061846+827235966+829248131+828656717+826443675+826521015
606+830828432+837318192+842435981+844766730+845808678
##END=
