##TITLE=<SNM>
##JCAMP-DX=4.24
##DATA TYPE=INFRARED SPECTRUM
##DATE=2/5/2025
##SAMPLING PROCEDURE=Instrument type and / or accessory
##ORIGIN=Admin
##XUNITS=1/CM
##YUNITS=ABSORBANCE
##RESOLUTION=4
##FIRSTX=4497.3318
##LASTX=599.83466
##DELTAX=-1.4281778
##MAXY=1.8679987
##MINY=0.40426481
##XFACTOR=1
##YFACTOR=1.7397094e-09
##NPOINTS=2730
##FIRSTY=0.42492792
##XYDATA=(X++(Y..Y))
4497+244252244+243948724+244792973+246720614+248724864+249479674+248506397
4487+246601043+244979508+244361760+244794771+245744922+246267903+245706961
4477+244476587+243740004+244118677+245171234+246244331+247068777+247306499
4467+246455638+244674103+243044980+242619078+243476021+244721863+245341478
4457+245182763+244924605+245091046+245582284+246098258+246329077+245990421
4447+245312065+245029256+245478404+246204811+246574559+246278096+245446369
4437+244807380+245124005+246047586+246314087+245396416+244137863+243561846
4427+243833606+244439140+244820142+244774335+244451474+243984321+243216869
4417+241999583+240701595+240187060+241026306+242720594+244011028+244124296
4407+243440201+242785794+242556312+242639447+242736492+242614179+242197339
4397+241493202+240600319+239906494+239885286+240454229+240934024+240809227
4387+240200987+239584301+239320935+239390091+239572892+239920935+240581989
4377+241103103+240613355+238975102+237147914+236164119+236213866+236869456
4367+237818904+238987710+239996139+240107899+239022262+237375135+236267691
4357+236412941+237601516+238851538+239322528+239189714+239308978+240099488
4347+241092859+241344508+240214691+238231992+237048676+237814296+239677320
4337+240593193+239624507+237682527+236033326+235121514+234948649+235473686
4327+236202886+236277215+235516718+234753583+234783561+235502500+236219057
4317+236505190+236629455+237062381+237610492+237619914+237178252+237171589
4307+237822433+238232369+237788925+237084445+237061661+237915418+239009089
4297+239563453+239431290+239124052+238958605+238717354+238393328+238355521
4287+238506579+238250459+237459452+236584625+235822431+235020581+234311801
4277+234143801+234689754+235488367+235699947+234902945+233664571+232993667
4267+233264657+234030618+234721994+235061043+234908289+234317814+233796717
4257+233883415+234430139+234932118+235401360+236133301+236887426+237122972
4247+236806518+236352761+236062877+235957678+235878003+235689001+235456829
4237+235278020+235118140+235106525+235592778+236579297+237583734+238246930
4227+238583855+238661936+238422621+237752351+236738629+235959699+236014671
4217+236563160+236665070+236212924+235944007+236005541+235730114+234812992
4207+233734173+233196528+233733967+235390876+237408711+238756857+239028566
4197+238380155+237041139+235438774+234193702+233573933+233463577+233812152
4187+234428135+234679544+234245505+233731466+233844254+234477437+235126551
4177+235700958+236419913+237264214+237927169+238110056+237743101+237103032
4167+236709781+236848950+237216556+237273704+236895391+236459160+236434012
4157+236991957+237812531+238279358+238055615+237372702+236686946+236272727
4147+236133044+236028787+235683365+235180666+234960829+235263099+235813112
4137+236153686+236065446+235677044+235338268+235370816+235925952+236999391
4127+238297842+239137603+238939795+237850270+236481687+235200264+234124820
4117+233569959+233890593+234895304+235813403+235952538+235287459+234354268
4107+233644648+233309282+233421847+234078670+235073206+235906320+236298389
4097+236373010+236303220+236093318+235774363+235516615+235325831+234827004
4087+233724271+232527166+232374909+233799321+235895065+237101781+236865687
4077+236102294+235813678+235882971+235685215+235233343+234974842+234941369
4067+234862362+234724717+234624383+234499364+234445128+234775784+235436512
4057+235845266+235522080+234573060+233575817+233128691+233318275+233661967
4047+233816246+234022173+234505188+234957266+235042765+234900769+234795844
4037+234720178+234551218+234294379+234128914+234334584+235022979+235913566
4027+236546817+236693969+236447854+235991031+235419622+234857840+234597471
4017+234799082+235071647+234835810+234198516+233936691+234483535+235450697
4007+236271134+236781730+237026818+237018012+236878192+236821541+236899331
3997+237051760+237250184+237293028+236818937+235929669+235381112+235774637
3987+236910603+238132634+238936129+239128438+238760009+238115983+237678313
3977+237856523+238523675+238999941+238824112+238255649+237693593+237136351
3967+236626869+236609584+237342038+238364754+238911872+238651521+237893131
3957+237290252+237407700+238371812+239918691+241734966+243419833+244277238
3947+243971850+243302162+243269820+243677751+243550762+242581716+241358880
3937+240659351+241158829+243054128+245389924+246412349+245442635+243984681
3927+244107028+246105813+248147665+248550423+247974131+248125069+249149258
3917+249423554+247675322+244506257+241576388+240110417+240412721+242459335
3907+246542696+252718580+259526790+264325235+265640319+263656352+258921599
3897+253045415+248994329+248798714+251558236+253797947+253263077+252327265
3887+254200705+258038721+260395724+260855922+261461198+261347348+258667552
3878+255599575+255431301+258180288+261957130+265516225+267431892+266339557
3868+264110211+263718587+264625586+263968712+261261301+259042918+259512726
3858+263505619+271303244+281075773+285144983+277732045+265983583+257395757
3848+253864516+254961014+259318070+264997629+270571629+275632154+279095215
3838+278640945+274364145+269654352+266564105+264364053+262328180+261202320
3828+261517353+262995503+266290067+272462593+279296448+281691037+279739875
3818+277998169+276518973+272221600+265981904+261800882+262067948+266537296
3808+272352067+276133859+278467291+281947054+285304401+285007047+282292407
3798+280542291+279241956+276686048+274009541+273351433+275031760+278207865
3788+282413161+287392608+292498256+297517942+303247591+309878174+315828362
3778+320038695+324268967+331148561+341728816+355165811+368995850+380462822
3768+388981954+395317890+399288256+401365037+403563480+406336004+407572562
3758+406671353+406803842+411261815+420416014+431039987+437816180+440200010
3748+443779867+451396386+459077145+461061866+460135887+463368060+473375570
3738+488965817+506468595+520413890+527188164+528601270+529607660+534098558
3728+543255567+555236629+566208662+573682346+578105886+580917160+582940699
3718+584279150+585390996+588355486+594821889+601823453+603169441+597318302
3708+588216386+580315327+576516986+576715564+577333843+575166544+571500828
3698+569901067+572467887+579058829+587928454+596417710+601049148+599070012
3688+592708517+587537396+585938149+586802149+588574210+590998606+595169298
3678+601502356+606584672+605583832+601180437+598864239+597225934+591563917
3668+582754934+575546090+571453993+569183259+567931250+568301751+570523731
3658+573006919+574059185+575009901+578890880+586329207+593897109+595272288
3648+587867126+576482862+566760542+561212787+559800229+561050594+563249139
3638+565373955+567129947+568689040+570853633+574634946+579252063+580447096
3628+575211152+567963044+563924360+564209551+568038316+573781018+578613296
3618+580726599+581699276+583396442+585188375+586003108+586661267+587868017
3608+588017602+585731142+582700939+581733606+583741453+587462501+591157989
3598+594049640+596182267+597729643+599125515+601450553+605370453+609222173
3588+609392520+604822752+599258791+596174798+595711449+596787595+598415074
3578+599233027+598373686+596826310+596632940+599424410+605798650+614094673
3568+619348296+617320097+610590499+604849956+602139273+601196129+600613413
3558+600111349+599777987+599347117+598357172+596501719+594308518+593412792
3548+594840596+597034413+597233197+595425436+594418634+595722344+597721351
3538+597759244+595064459+591268105+588575307+588092497+589087581+589204892
3528+586554509+582118634+578730401+577645689+577847625+578462683+579649630
3518+580929905+580717965+578396559+575703144+574899923+576154639+577716062
3508+578230118+577747308+576618194+574811734+572600135+570594378+568839173
3498+566907900+565018802+564276909+565311085+567161913+568167721+567735789
3488+566649364+565919634+565862143+566106632+566003779+564876926+562426903
3478+559120554+556139002+554585939+554467189+554855780+555155018+555485331
3468+555890984+555931173+555027601+553031402+550744086+549607503+550125910
3458+550908711+550285876+548447416+546728323+545322035+543369588+540955882
3448+539240284+538705499+538631495+538321020+537880009+537649396+537423580
3438+536634406+535164769+533364237+531587824+530396252+530401597+531247679
3428+531648056+531072124+530274556+529616431+528191642+525358612+522358593
3418+521428640+523275116+526028557+527148832+526100609+524390629+523328804
3408+522949600+522837463+522892692+523106825+523292178+523351553+523268881
3398+522625797+520880151+518398162+516273621+514868121+513687786+512865208
3388+513297790+514930305+516077887+515172944+512632128+510118311+508741076
3378+508658849+509621591+511123228+512302398+512483297+511888967+511382791
3368+511487939+511883074+511857481+511164650+510353412+510123210+510528350
3358+511043605+511242115+511174277+511108084+511057035+510661078+509630259
3348+508216639+507063234+506518480+506417614+506693281+507345512+507708031
3338+507002968+505725194+505101845+505089100+504567814+503605313+503624568
3328+505027498+506301880+505907464+503837433+501043050+498564830+497450619
3318+498184255+499738552+500233696+499018791+497220006+495970190+495247448
3308+494887123+495484708+497280101+499008102+499161181+497902011+496535809
3298+495640117+494838163+494046831+493970462+495180056+497211441+499059048
3288+500399555+501687264+503155873+504450333+505164474+505206684+504775952
3278+504252885+503811908+503155908+501965363+500410313+498963459+497874020
3268+496998644+496106926+495310181+495036056+495498207+496352032+496903809
3258+496704683+496049093+495657624+495709701+495621581+494953864+493993829
3248+493265537+492923575+492796534+492694402+492404243+491612225+490283265
3238+488961671+488189079+487811486+487351015+486718141+486130114+485753652
3228+485571930+485352075+484897737+484313651+483656383+482708373+481593752
3218+480949845+480954368+480882933+480082556+478757296+477497509+476630219
3208+476196711+476037328+475768583+475095417+474224667+473598029+473210123
3198+472564778+471325136+469682240+468075250+466835472+466119822+465976473
3188+466279960+466594033+466438178+465726092+464583102+463046381+461432367
3178+460439236+460246825+460074217+459170027+457641324+455934017+454200534
3168+452602246+451591538+451274793+450940985+449923529+448587476+447697266
3158+447195818+446404520+445130378+443832115+442851455+442086538+441361056
3148+440720268+440279565+439982143+439692430+439385003+438994939+438264968
3138+437116188+435998380+435420735+435198037+434595210+433265633+431630617
3128+430368603+429929750+430271644+430599181+429824466+427883633+426051375
3118+425440326+425780471+426008617+425587135+424905679+424578792+424609113
3108+424378740+423520804+422507664+422031467+422065762+421979150+421423261
3098+420658172+420002343+419374848+418563541+417691935+417106478+416881279
3088+416795797+416798572+417077767+417620295+418046333+417920937+417043814
3078+415576199+414037457+412930373+412278484+411768676+411286963+410981147
3068+410846500+410586422+409954679+409041137+408093676+407195996+406306060
3058+405471284+404815249+404416174+404289990+404310341+404112071+403397107
3048+402386263+401610142+401181328+400672583+399835580+399005361+398527005
3038+398214405+397762739+397293428+397045685+396896546+396579766+396055432
3028+395398643+394650069+393917597+393306685+392682616+391789938+390667539
3018+389719530+389281534+389244669+389160798+388650510+387714287+386683777
3008+385866508+385281566+384767510+384189317+383451569+382532647+381592929
2998+380863507+380414719+380158239+380014444+379968397+379949725+379682213
2988+378787960+377229929+375557773+374506843+374374869+374835717+375234039
2978+375039914+374191228+373124778+372430062+372367912+372668795+372782474
2968+372275544+371088734+369676450+368780278+368649126+368621032+367959755
2958+366891420+366225758+366194683+366268448+366008199+365557664+365191650
2948+364804327+364120917+363206210+362442047+362056916+361949884+361958415
2938+362033618+362063083+361736607+360828101+359545668+358346044+357449290
2928+356780441+356244252+355692954+354800209+353462580+352204061+351682399
2918+351868918+352142528+352086031+351758870+351322622+350847178+350406887
2908+350089079+349961113+350053413+350223657+350132283+349558098+348661995
2898+347812829+347205857+346741514+346273916+345871312+345682532+345632579
2888+345485119+345125375+344610600+344084450+343710899+343481246+343131130
2878+342483969+341747455+341242923+340999257+340792936+340451043+339963196
2868+339380618+338768300+338244137+337915469+337751974+337606056+337313636
2858+336758158+335996941+335307776+334889206+334617719+334291415+333873668
2848+333361564+332795260+332468887+332679491+333201599+333390310+332879200
2838+331950000+331171036+330803687+330630017+330326256+329847935+329344602
2828+328881356+328425852+327999505+327684678+327493363+327289543+326912635
2818+326399264+325951195+325627152+325278201+324858021+324516334+324300590
2808+324040719+323598714+323006405+322356777+321780434+321476160+321518096
2798+321665796+321579115+321176066+320591157+319884073+319057109+318280783
2788+317793451+317570581+317326915+316855343+316208045+315579659+315151359
2778+315006742+315051419+315033363+314754031+314236515+313621662+312974741
2768+312277661+311546629+310880658+310404804+310156786+310003536+309724615
2758+309207544+308516665+307801804+307206823+306806343+306558839+306336895
2748+305993631+305403310+304560791+303699257+303152756+303012079+303005741
2738+302746897+302062220+301146176+300421825+300129302+300061499+299840034
2728+299362809+298787768+298228110+297698088+297218842+296799758+296444640
2718+296220400+296129128+295949702+295454147+294724759+294027096+293466925
2708+292986959+292574453+292262984+292039326+291919138+291971215+292098530
2698+291966692+291364859+290520764+289863804+289564567+289470828+289384661
2688+289194922+288824523+288297585+287835332+287652068+287666869+287613388
2678+287392968+287138424+286992316+286951802+286873378+286578714+286022791
2668+285358928+284794593+284432178+284265257+284250062+284320589+284323312
2658+284035021+283406721+282725316+282331088+282248707+282256827+282175183
2648+281940459+281565401+281147944+280811122+280580012+280364081+280062513
2638+279675069+279308628+279064157+278932011+278801493+278558015+278215471
2628+277939719+277852833+277874691+277867531+277790100+277592533+277204130
2618+276759813+276557825+276641354+276674382+276383110+275934082+275708848
2608+275814133+275976343+275901534+275614870+275395015+275426792+275595169
2598+275642827+275461910+275139323+274788796+274481644+274287588+274244196
2588+274297524+274319691+274185627+273893224+273626380+273585472+273743793
2578+273896479+273908796+273782098+273573035+273403750+273436247+273673198
2568+273883751+273856376+273622868+273341755+273108881+272973446+272974954
2558+273077772+273207776+273358765+273515168+273540179+273322894+272941686
2548+272543878+272199244+271958970+271876520+271887295+271826721+271615963
2538+271315269+271009727+270751003+270568476+270443063+270303448+270087757
2528+269779696+269413307+269087756+268915782+268880938+268822796+268650034
2518+268483096+268479875+268597203+268655002+268590351+268508124+268495464
2508+268517837+268509426+268450325+268333169+268153657+267971747+267893956
2498+267934299+267975807+267941271+267895670+267903293+267915935+267877802
2488+267807498+267712200+267547935+267302693+267022298+266760834+266575943
2478+266523729+266568628+266529810+266228020+265728576+265334349+265237098
2468+265279531+265206451+265031462+264951685+265004190+265023445+264889432
2458+264639804+264347710+264022588+263664677+263332275+263099401+262981970
2448+262942159+262925473+262870296+262748634+262614278+262522081+262390432
2438+262083931+261680710+261490218+261670055+261952419+261941713+261614415
2428+261305738+261247871+261359528+261474457+261535871+261540325+261476033
2418+261354817+261209841+261069386+260975151+260987159+261129446+261348325
2408+261543597+261641892+261637575+261584984+261589061+261768025+262130012
2398+262532086+262895820+263451213+264690323+267170050+271432049+278001578
2388+287379760+300070475+316559566+337084325+361330748+388453508+417508329
2378+447829857+478875086+509728623+539002990+565307933+587671837+605868680
2368+620581016+632330917+640345175+643829272+643273828+639201808+631442865
2358+619917170+604486649+584417839+559537959+533110669+511702586+500679606
2348+501781757+513448026+530454702+545244639+553923189+558475894+561681310
2338+563895307+564556481+564231204+563915727+563513636+562433002+560905566
2328+559374156+557197641+553055008+546410173+538117268+529475652+520852776
2318+511689293+501823761+492064303+483143903+474584411+465064541+453855351
2308+441424371+428618914+415903428+403576533+392109116+381812133+372446371
2298+363505585+354752209+346281008+338230364+330662873+323630406+317168183
2288+311254106+305869434+301064189+296905488+293375824+290333869+287579126
2278+284986474+282578849+280455438+278676336+277221055+275987992+274812419
2268+273567468+272301942+271225059+270489984+269999671+269475097+268734899
2258+267864098+267072834+266453013+265943051+265453818+264925166+264320661
2248+263662262+263022450+262467195+262071940+261907743+261885233+261741798
2238+261337121+260828290+260440864+260221232+260102054+260064778+260128212
2228+260222671+260178662+259907433+259531347+259235124+259059980+258943526
2218+258853762+258786456+258738027+258728777+258760897+258779809+258751989
2208+258707021+258658421+258580785+258484819+258418490+258391166+258361839
2198+258287286+258167697+258083620+258162078+258423749+258687492+258728486
2188+258522918+258242592+258034010+257914900+257869813+257915020+258032194
2178+258133145+258152742+258123243+258105650+258091294+258021333+257867997
2168+257661470+257473906+257391594+257450420+257590892+257715671+257774429
2158+257750977+257617907+257388390+257183337+257131157+257186609+257165658
2148+256995088+256806771+256749092+256836835+257029315+257316853+257659688
2138+257961085+258199834+258514541+259057959+259822122+260687253+261575717
2128+262483143+263444480+264530442+265799445+267228192+268753383+270348211
2118+271993351+273615999+275089268+276270048+277063059+277464104+277500987
2108+277155359+276398767+275278407+273940967+272573017+271284348+270048596
2098+268810668+267624731+266621921+265868739+265296284+264754528+264149748
2088+263554407+263141611+262986715+262977927+262945842+262836326+262708925
2078+262606707+262516908+262436411+262377447+262328591+262300137+262377773
2068+262633824+262989508+263250716+263321893+263321362+263413217+263596360
2058+263745380+263781200+263717971+263628874+263627144+263799769+264134211
2048+264549406+264966023+265333458+265642238+265900345+266074992+266118503
2038+266074649+266072131+266173510+266297981+266363917+266450341+266688131
2028+267028140+267296012+267452654+267632492+267993571+268652621+269590934
2018+270475731+270809522+270464014+269884039+269616733+269790934+270125067
2008+270322977+270351911+270355988+270434446+270594498+270815466+271023689
1998+271138276+271333171+272020640+273232376+274259288+274379665+273735365
1988+272994174+272537557+272391707+272491476+272682568+272787339+272824975
1978+272948795+273189892+273434671+273597721+273764230+274193781+275038253
1968+275972437+276378707+276068232+275489251+275103280+274981499+275083169
1958+275476900+276119538+276748010+277144806+277338348+277519505+277885998
1948+278600825+279854770+281707825+283570558+284246584+283242969+281568621
1938+280494445+280285965+280501828+280782770+281034488+281250334+281419499
1928+281645538+282307585+283663321+285213043+286222706+286876102+287702981
1918+288136523+287213147+285461506+284434387+284828341+286018988+286903837
1908+286897721+286303391+285788821+285630003+285645677+285714474+286057635
1898+286931486+288117919+289013371+289531710+290375120+291758076+292622727
1888+292079515+290817604+289989166+289804224+289870109+289963642+290085167
1878+290283265+290598811+291105741+292250616+294905281+299256804+303416293
1868+304378350+301674862+298038816+295866618+295415603+295808408+296303860
1858+296629171+296822096+297033625+297370071+297973720+299098963+300965345
1848+303800088+307684665+311426098+312372120+309736606+306254291+304467121
1838+304437176+304918376+305394059+306826694+310223185+314576181+317185451
1828+317130427+316146786+315155950+313424557+311070945+309494550+309377754
1818+310063356+310741352+311514937+313051897+315337466+317193571+317499044
1808+316620722+316003642+316868363+319526180+323111656+325840737+326462716
1798+325760566+325935983+328599900+333168023+336360110+335134825+331098162
1788+328223197+328146417+329810967+331704416+333376845+334708615+335343305
1778+335771844+337669096+342374333+349118834+354408397+355022907+351940250
1768+347995716+344995731+344319311+346557462+350036043+352057731+352456909
1758+352837038+353389672+353992979+356204098+361363160+367836106+371827304
1748+371880340+370143260+369023773+369443919+371225847+373392427+374776685
1738+376040891+379701947+386319477+391260773+389748310+384549574+379748234
1728+376333003+374657147+374944531+376561800+379390512+384910825+394114086
1718+404147977+408451980+404744637+397933497+392654933+390618786+392153519
1708+396743878+402437826+406807371+410267382+415709030+423517994+429364097
1698+430215489+427305577+421337573+414360575+410447493+411022500+414612601
1688+420307851+429229245+440466974+446509599+442498290+435172512+431112929
1678+431878874+436234783+441085664+444257812+447339373+451823144+454728637
1668+452730211+449037327+448672581+451963410+455174650+455580817+455166462
1658+457796870+466114854+480864261+497224666+502750494+498391639+497186567
1648+501736772+505581331+503061175+497953300+495989547+498675459+505899104
1638+517407052+530500646+538074715+537011143+534210867+535885215+542743532
1628+552446939+562861096+573808701+584933060+594267405+601716009+610597009
1618+623163288+636320573+644406163+648177163+652394520+658703046+665711873
1608+671647775+675981756+679220474+681868732+684025616+685868324+687935854
1598+690722323+694284261+698133651+701492078+704039608+706166548+708279851
1588+710443450+712681807+714999513+717248697+719531730+722697745+728067925
1578+736110825+744410206+748803048+750311092+754025630+761371930+768897623
1568+773491579+777349329+783989231+794355936+808854275+829417613+854720311
1558+871542387+872801009+869801024+869019936+869672407+869942180+868880424
1548+867062658+866674341+869541598+875512171+882519970+885662208+879131189
1538+867026067+858500220+854996663+852291530+846865642+840854983+838504660
1528+840534845+844501341+848328735+851830305+854028782+853169235+850768069
1518+849252282+847336323+843291644+839177825+838558793+842951429+851544360
1508+860765437+862444856+852554657+840503531+834176777+834112777+837727272
1498+841089809+840805509+837215271+834162935+834656640+838313276+841332653
1488+839888541+834881325+830166838+827922657+827646717+827943145+828551899
1478+830336637+833817239+838481431+842445253+842455052+837644908+832142274
1468+829927695+831001237+832088004+830536586+828539086+830431198+837493267
1458+845375140+845631620+837513755+829004422+824021738+822253993+822613326
1448+823448958+822914962+820737932+818298736+817080337+818128389+821837582
1438+826786827+829240825+827063590+823292247+821337916+821185522+820999483
1428+820028039+819207550+819308758+820339542+822453805+825426107+826910236
1418+824122740+818469014+813624129+810891861+809642627+809143989+809136588
1408+809740135+810808058+811357129+810839442+810644701+812452531+815850494
1398+818833623+819903945+818489366+814846434+811051519+809700049+810955039
1388+812007682+810031698+806273032+804978984+808357076+814686502+820652690
1378+824856274+828427394+832263559+835292186+836385532+836351339+836585344
1368+837693353+840141252+844219370+848536632+850260454+848391022+845274686
1358+843742591+844615156+846603406+847657283+847075321+846198507+846594567
1348+848201626+849704736+850380368+850952463+852470922+854721956+856145648
1338+855713545+854445878+854095591+855048945+856323327+857018968+857142651
1328+857311628+858300339+860652375+864229594+868248372+871951124+875163803
1318+878235325+881539413+885021797+888324788+891141475+893271498+894961469
1308+897333103+901318305+905939053+909082181+910248572+910913926+912217978
1298+913721362+914422348+914163812+913589456+913149953+912935546+913220874
1288+914100772+914799496+914437765+913010030+910826971+908121633+905711147
1278+904541125+904328705+903983146+903290794+903065423+903784979+904987275
1268+906129820+907466968+909597676+912445473+915305809+917671481+919445118
1258+920848185+922489574+924714295+926766476+927522554+927107787+926870151
1248+927663093+928759522+928821398+927774168+926979718+927318151+927902580
1238+927222905+925009833+922357325+920426360+919436210+918782985+918140312
1228+918068774+919148826+921036211+922794773+923633695+923187613+921798250
1218+920457470+919848167+919874137+920528939+922319090+925186484+927918271
1208+929347583+929577750+929579463+929891446+930340337+931182342+933562678
1198+937927769+942728457+945905641+947207158+947982902+949266397+950833645
1188+951921303+952424875+953143745+954894358+957585512+960263030+962148153
1178+963505311+965019796+966582658+967459061+967587540+967856423+968914479
1168+970596844+972658756+975034158+977287042+978587531+978387993+976912566
1158+975275563+975352240+978636319+984260169+988854947+989834408+988229199
1148+986810166+986777823+987698698+989148086+990886229+992412705+993835713
1138+996204811+999946826+1003742563+1005738419+1005917537+1005738693+1005386213
1128+1003831711+1001692849+1001337628+1004068593+1008821453+1013331469
1120+1015915454+1016755060+1017533613+1018958539+1020083816+1020913624
1111+1023328701+1027696053+1031057288+1030800055+1028019616+1025658398
1103+1025278030+1027053243+1030153682+1031908201+1029591591+1024380384
1094+1020988588+1022995613+1030419001+1040520730+1048668470+1050221875
1085+1045046848+1038107023+1033962507+1033671354+1036702654+1042213579
1077+1047944872+1051416566+1053452507+1057249889+1063152831+1067506821
1068+1067490444+1064349577+1060278722+1055356817+1049486834+1044763439
1060+1043778702+1046429359+1050148077+1053185338+1056052321+1059539980
1051+1063178321+1066189270+1068525271+1070571285+1072511707+1073741823
1043+1073265454+1071027097+1068098718+1065213920+1062281019+1059988529
1034+1059982567+1062376196+1065011710+1066308773+1066601775+1066591977
1025+1066432525+1066494126+1067147694+1067403352+1065669595+1061894757
1017+1058224279+1056946951+1058180219+1059997094+1060551099+1059959681
1008+1059728349+1060682388+1062035502+1061985412+1059017702+1053441955
1000+1047765206+1044620296+1044594874+1046757650+1049862338+1052288241
991+1052717329+1051487487+1049827254+1047833728+1044631054+1040643796
983+1038208231+1038778544+1040415136+1039770750+1036650851+1034340134
974+1035275467+1038609842+1041959908+1043774316+1043473982+1040724242
965+1036081018+1031475070+1028087111+1025065678+1021566986+1018291746
957+1016390041+1016053595+1016767257+1017783241+1017721913+1015027607
948+1009704777+1003826572+999558372+997165291+995613119+994172981+992449981
938+989883470+986251365+982228750+978820782+976477037+975244111+975370124
928+976701585+978058605+978438357+978357158+979095009+980919832+982618300
918+982590754+980344106+977318973+975907204+976939153+978756507+979681425
908+980303541+981590051+982131311+979703557+974738483+969930737+967176474
898+966591840+967751515+970411628+973936633+976834793+977359950+974985850
888+971066703+967422744+964740224+962873601+961700222+960772084+959288160
878+957739756+958096553+961015270+964401517+965890374+965421749+964266870
868+963100891+962136984+961551459+961280932+961533232+962976796+965404139
858+967223138+967282136+966060721+964138459+961027330+956783319+953197466
848+952042177+953320122+955742462+957793410+958434849+957881941+957230840
838+956928244+956298111+954933142+953444147+952466262+952075136+952213688
828+953264276+955693125+958982824+961526037+961999665+960794559+959955775
818+961291827+964407547+967163249+968278659+968135035+967215532+965591342
808+964104883+964012926+964855958+964885971+963553825+961729755+960344435
798+960263578+962162338+965437440+968430573+969799379+968934008+966357013
788+964374999+965827608+970950695+976520891+979313801+979373553+978566357
778+977486374+975384445+972040340+968316346+965301218+963259246+961769635
768+960939690+961410029+963634955+967722119+972857334+976814305+977776567
758+976567007+975434467+975265353+975204642+974103828+971972297+970264990
748+969873589+969532964+967891643+966003231+965484378+965830554+966088336
738+967735960+973137454+981399490+987822175+988508840+984297171+979214855
728+976475461+976653482+978146109+978964131+978942957+978711146+977513235
718+974998458+972417488+969871328+966931780+965467522+967755763+973224067
708+978638991+981418608+980988971+977462391+972254747+968676021+969280047
698+972866105+975221499+973259356+968023755+963790570+964380755+968862676
688+971253701+966703052+956459207+946043920+939722785+937629627+937380959
678+936900068+936541010+937911392+941032936+943878950+943078607+936147005
668+926494579+922510884+924951177+927362828+927024943+926266330+927047898
658+927469997+924580470+920066891+919915456+926383093+933569461+932677093
648+922216786+909267877+900315409+897090464+898943656+903855077+907781966
638+907794163+905633785+904218726+903440653+901256634+898848478+900220299
628+905492080+909988803+910056503+906493332+902045808+897290482+890730751
618+882261640+874634055+871552871+874731631+882003379+887207117+885015492
608+878101432+874376205+877498982+883754952+887378355+887761396+890073689
##END=
