##TITLE=<SNM>
##JCAMP-DX=4.24
##DATA TYPE=INFRARED SPECTRUM
##DATE=2/5/2025
##SAMPLING PROCEDURE=Instrument type and / or accessory
##ORIGIN=Admin
##XUNITS=1/CM
##YUNITS=ABSORBANCE
##RESOLUTION=4
##FIRSTX=4497.3318
##LASTX=599.83466
##DELTAX=-1.4281778
##MAXY=1.7166408
##MINY=0.22019613
##XFACTOR=1
##YFACTOR=1.5987464e-09
##NPOINTS=2730
##FIRSTY=0.24308868
##XYDATA=(X++(Y..Y))
4497+152049558+152056306+152080223+152042642+152036780+152098277+151995667
4487+151489832+150681892+150000011+149953353+150694996+151646436+151973680
4477+151624421+151430023+152079347+153413673+154723329+155445334+155582299
4467+155518566+155517997+155492711+155157992+154322565+153091593+151823964
4457+150929790+150688509+150979720+151125884+150487997+149315819+148529949
4447+148691288+149589237+150575134+150986943+150611578+149856130+149196200
4437+148658069+148106900+147693404+147639755+147770634+147621571+147056141
4427+146447743+146160522+146200675+146354510+146312335+145828599+145070878
4417+144520286+144348565+144274168+144045452+143705131+143389417+143077617
4407+142608851+141999475+141604685+141713204+142183247+142709373+143162453
4397+143469779+143449954+143020781+142457206+142220278+142502643+143089762
4387+143615421+143728302+143180143+142139497+141207090+140739926+140433588
4377+139922768+139388785+139174515+139192299+139128006+138979828+139035686
4367+139459602+140137736+140775736+140999699+140594917+139810082+139257394
4357+139444485+140439703+141843589+143006092+143441659+143130586+142428806
4347+141756153+141292950+140896110+140409802+139952724+139650217+139371207
4337+139088580+139122712+139610017+140065306+139855110+138948232+137995450
4327+137730495+138280379+139001461+139146377+138746181+138603130+139338314
4317+140723839+142025824+142645853+142372361+141494619+140819095+141069668
4307+142054531+142815822+142773339+142407779+142638248+143703370+144812009
4297+144923017+143853188+142457616+141692559+141745947+142166051+142518153
4287+142691328+142779416+142857373+142863404+142687768+142381821+142210435
4277+142408841+142911982+143388625+143547437+143367765+143017164+142677580
4267+142540373+142784487+143351874+143821377+143713296+143017192+142326802
4257+142230055+142614294+142942563+143125758+143580506+144453840+145276004
4247+145430389+144774653+143847027+143411954+143692381+144266954+144694543
4237+144780198+144409176+143699604+143116251+142994357+143217565+143568558
4227+144009735+144481979+144756972+144664810+144364820+144195009+144202447
4217+144106538+143915524+144122393+144948434+145847623+146138143+145742198
4207+145106948+144804143+145231480+146242394+147067158+147005624+146181074
4197+145370132+145226857+145841005+146760857+147266086+146945040+146137510
4187+145511431+145262461+145117499+144954595+144938666+145145293+145444379
4177+145742422+146139225+146801019+147727312+148669515+149349578+149720498
4167+149863410+149750398+149357743+148905306+148749709+149075638+149755655
4157+150390103+150507943+149991707+149321151+149140761+149593086+150289740
4147+150844199+151128205+151066811+150540919+149586711+148495846+147633454
4137+147273738+147543633+148333557+149262776+149873783+149957230+149700328
4127+149468033+149382517+149218522+148819231+148476301+148618103+149192723
4117+149690327+149795584+149718447+149792238+149971574+149931757+149596600
4107+149296973+149304709+149528560+149875582+150489684+151328401+151951609
4097+152032390+151698845+151208222+150716741+150425176+150467538+150654937
4087+150741273+150847191+151248375+151885582+152386682+152449390+152073531
4077+151597708+151499134+151879841+152222109+151992069+151378489+151028867
4067+151175088+151488416+151699861+151853697+151988322+152093654+152357853
4057+152941719+153547134+153711119+153454600+153177864+153089011+153164778
4047+153470128+154085935+154795516+155176819+155039034+154600382+154225081
4037+154056361+153941048+153739799+153633834+153934682+154591481+155180836
4027+155459651+155596075+155754319+155825491+155711631+155550722+155555279
4017+155821604+156239359+156489234+156322163+155897194+155605638+155605815
4007+155798424+156123748+156605200+157244495+158031166+158878402+159516392
3997+159684609+159439442+159081925+158791367+158466845+157924819+157222946
3987+156747449+156838623+157325732+157651336+157548139+157405330+157836796
3977+158973005+160261643+161008366+161067514+160848799+160705822+160582027
3967+160381468+160465259+161358445+162876443+163995969+163934789+162990395
3957+161974849+161356507+161344278+162274728+164248462+166421599+167387746
3947+166918942+166586815+167664734+169203590+169193841+167245440+164852432
3937+163536038+163964577+166076385+168961406+170964481+171093812+170343920
3927+170470903+171685218+172464098+171898528+171296086+172400830+174877015
3917+176311314+174863090+171423311+168269562+166609389+166415130+167916556
3907+172111148+179292317+187377391+192793065+193825500+191276839+186169693
3897+179923652+175419171+175177900+178648678+181696510+181062173+179532992
3887+181391635+185732429+188328551+188741599+189405333+188963708+185057754
3878+180841016+180858855+185190832+191168889+196860358+200093108+198539880
3868+194560443+192968198+194014036+193560667+189459560+184587440+182994356
3858+187184996+198257244+213845362+222599706+214407986+198754606+186826939
3848+181395830+181758156+186172209+192635026+199961987+207654387+213665830
3838+214332136+209486747+203652879+199791888+197186334+194809748+193303141
3828+193149110+194058569+197252864+204743325+214123729+218119570+215340598
3818+211400513+207466355+200905598+193245577+188922007+190190326+196348456
3808+203655172+207854611+210059624+214099011+218555659+218387498+214352511
3798+210762243+207701680+203485259+199181467+196960497+197206354+199222962
3788+202716595+207184092+211143434+213981367+217205748+221504581+224484801
3778+224193609+222743149+223749523+229248151+239033084+250168991+258576834
3768+263556420+267615547+272267442+278298439+287434664+300157968+313455417
3758+323958646+332988412+345072514+363451665+386843321+407304454+418427051
3748+425882653+437204038+450826364+457795845+457304094+458635065+467500268
3738+483379615+501067592+513369124+517035969+515401409+513726734+514448218
3728+516922855+519660071+522339014+525366247+527679603+527728480+526759070
3718+527934389+533114701+542513112+554822697+565526280+569447464+568196724
3708+567269331+569284056+574501092+581315181+585520865+584289809+580603428
3698+579320812+582690332+590177848+599697724+609301932+617212601+619832303
3688+614437395+604636225+596602377+593462626+595198258+600770592+609920517
3678+621695290+629789386+626444361+616624214+610506257+608629512+605163543
3668+598900297+594226909+593577716+595615407+598121064+601168280+606320295
3658+612380354+615484053+616221232+620747840+632720954+648562571+658059444
3648+654300736+642435480+631112156+624525003+622806223+624501627+628419120
3638+633651739+638772139+642669089+646310284+652088266+660362137+666808811
3628+666730966+662984114+660940159+662359414+667105577+674209087+680678280
3618+683597991+684406044+686247109+689402667+691868506+692417001+691498444
3608+690096562+689514290+690717831+692826209+693959064+693755056+694036909
3598+696707277+701451799+705998428+708839921+711745391+718096325+727547117
3588+733175449+728860715+718876639+711336705+709231756+711318436+714736908
3578+716215889+714185431+710337842+707871481+709052429+714251718+720995531
3568+723876618+719685214+712418855+707618485+705924460+704866766+703487850
3558+703128898+704296872+705617404+706198931+706923322+708885704+711925315
3548+715064469+717396614+718626775+718765688+717502495+715197864+713561403
3538+713845567+715019208+715187350+714298619+714047338+715745687+718343132
3528+718976854+716976445+715287192+715764030+715975942+713113868+708483355
3518+705609575+706400776+710077538+713877853+715115918+713793372+712498639
3508+713206179+715186157+716227894+715214715+712981368+710721400+708524291
3498+706545953+706252841+708598259+711984146+713943694+714382653+715154617
3488+716617492+717076062+715611994+713122443+710891109+709758403+709939595
3478+710661227+710715584+709744236+708450547+707741068+708277558+710171788
3468+712527644+714160377+714926674+715581273+716533309+717073975+715767236
3458+712246388+708660967+708006666+710752345+714460722+716579539+716370461
3448+714667265+713075617+712794733+713021856+711701025+708828289+707303227
3438+709333387+713257852+715132620+713119461+709114169+706259328+706027359
3428+707774249+710155383+712439808+714620662+716335863+716157058+713288125
3418+709349270+706924515+707398595+710685311+715355716+718685829+718757784
3408+716812925+715344905+714762260+713944290+712689598+711714596+711320599
3398+711506040+712555382+714447897+715849033+714680463+710864788+707710795
3388+708657686+713093289+716715246+716314314+712967573+710138308+709936687
3378+711516777+712485814+711552344+709362244+707850379+708857295+711857983
3368+713907008+713265234+711563007+710842940+711103020+711988172+714043983
3358+717108349+719700276+720957056+721235628+720375828+717645286+713687938
3348+710443425+709165245+709896049+712218277+715533478+718817137+721102829
3338+722505979+723818234+724902026+724561938+722383320+719895410+719125236
3328+720380376+722195195+723130827+723037249+722189752+720230204+717492056
3318+715692449+715968411+717879194+720546580+723162517+724683329+724810684
3308+724564175+724327508+723100852+720895168+719299120+718874924+718687843
3298+718727809+720014564+722136215+723172657+721909763+718771056+715312246
3288+713476176+714506504+717949657+721755266+723472704+722182370+719526317
3278+717686743+716708759+715572102+714931893+716106355+718536925+720416092
3268+720833056+719986752+718405021+717234586+718003194+720885176+724224908
3258+726451694+727068862+725600469+722049720+718527231+717542611+719079752
3248+721543653+724248396+726678145+727135150+724552468+720130884+716036637
3238+714030263+715044113+718240457+721302587+722924135+723712353+724187551
3228+723769991+722327621+721056003+720915374+721233987+720768856+719713921
3218+719306204+719625115+719497983+718612831+717965017+718181328+718834809
3208+719213073+718824817+717435909+715448996+714184387+714698955+716607426
3198+718474067+719116587+718584422+717848249+717429870+716718825+715021594
3188+712947217+712198965+713699421+716239303+717428378+716054458+713072187
3178+710136742+708071537+707044564+707185788+708284045+709434571+709725819
3168+708857444+706944499+704574251+702847120+702426801+702721703+702527239
3158+701043486+698300268+695611407+694908043+696699523+699236198+700127539
3148+698589204+695976622+694354925+694485934+695287351+695537215+695482634
3138+695655325+694983502+692081909+687885136+684980561+684648452+685872275
3128+686846009+686661015+685763485+685251453+685649700+686348815+686465731
3118+685700031+684183619+682321675+680918004+680782968+681998066+683663533
3108+684511254+684130529+683236131+682226830+680523708+678137653+676410447
3098+676135305+676171319+674861002+672292786+670386776+670740956+672893178
3088+675050917+676131726+676208527+675508071+674333908+673519070+673771842
3078+674892245+675982672+676078189+674660946+672029053+669314467+667760325
3068+667510759+667262609+665796154+663566386+661938723+661404769+661473890
3058+661783555+662424882+663313165+663840185+663489286+662566778+661718759
3048+660833159+659298255+657428109+656357292+656346182+656548400+656537067
3038+656682765+656896764+656370341+654785478+652908100+651671080+651204158
3028+651033481+650738878+650066234+648781268+646902175+644904450+643330772
3018+642278596+641502532+640862920+640408153+640214733+640343804+640759127
3008+641237232+641585597+641807574+641695802+640657123+638491778+635919610
2998+633843220+632472356+631520395+630816583+630337508+630069300+630013601
2988+630009053+629838524+629779618+630273457+630749028+629931357+627719483
2978+625476069+624196957+623611665+623074057+622364765+621684777+621422609
2968+621712515+622018079+621494228+619833011+617600260+615774070+614876354
2958+614497717+613861647+612902266+612328569+612435904+612426397+611335299
2948+609166337+606642264+604408804+602979631+602776071+603565147+604342442
2938+604147643+602647112+600169343+597685236+596284957+596284472+597136406
2928+597973687+597854496+596190931+593553557+591415763+590749532+591217870
2918+591621225+590897989+588959096+586782156+585354288+584537325+583592596
2908+582655249+582568308+583159043+583060469+581694788+579946853+578471376
2898+576947656+575335838+574371313+574355319+574535764+574034282+572799946
2888+571424311+570367214+569606025+568908588+568194263+567608374+567359777
2878+567393145+567198495+566201944+564386119+562267115+560397753+559139183
2868+558581293+558490847+558607764+558853490+558910644+558061394+556056847
2858+553734544+552149047+551447547+550993488+550262051+549282165+548355816
2848+547681308+547354232+547477822+547873833+547839720+546815095+545239814
2838+544049583+543422535+542750599+541689699+540444961+539103178+537468954
2828+535593403+533882936+532624292+531784289+531207982+530694943+530042543
2818+529300965+528783601+528600135+528399744+527699660+526333420+524640104
2808+523296382+522704006+522479121+521837943+520498881+518923302+517612425
2798+516464807+515131412+513820871+513164967+513178985+513060242+512271874
2788+511037948+509555872+507702504+505791087+504654653+504563536+504678999
2778+503963741+502313150+500485096+499155765+498366093+497719807+496852290
2768+495724543+494510116+493268845+491959050+490741080+489897572+489405187
2758+488889464+488087787+487185932+486567049+486222562+485633020+484463816
2748+483079307+481989327+481203271+480550909+480133461+479980940+479691407
2738+478859680+477575162+476188342+474871762+473679219+472712978+471910742
2728+470947931+469644175+468263917+467195635+466582456+466365810+466345901
2718+466178206+465636423+464810438+463805535+462479560+460789040+459142848
2708+458012901+457301708+456451079+455188707+453896173+453138190+452992604
2698+452973925+452577766+451776909+450919718+450276303+449793053+449210818
2688+448351763+447320018+446376743+445584237+444723058+443621707+442384537
2678+441265477+440482851+440110664+439968358+439668610+438958609+438004374
2668+437204709+436714375+436255917+435476683+434419847+433477169+432906715
2658+432605476+432341966+431935106+431227790+430230195+429258586+428622628
2648+428257673+427901703+427442239+426863098+426113206+425237598+424386858
2638+423568366+422636611+421616685+420798379+420395024+420233593+419911662
2628+419240136+418404644+417666123+417049476+416393162+415586116+414680795
2618+413837771+413193648+412766917+412481373+412223456+411840047+411162109
2608+410175139+409148278+408430597+408073621+407776110+407255800+406569772
2598+405985599+405608938+405255429+404716106+404026610+403350014+402719611
2588+402090774+401527478+401136873+400908707+400733444+400480298+400043165
2578+399431329+398782806+398184167+397556933+396845217+396206798+395821786
2568+395591308+395274895+394865164+394530856+394266264+393918944+393478120
2558+393075026+392797200+392632562+392457336+392060804+391348417+390494209
2548+389768103+389240710+388755222+388215675+387764040+387515890+387289401
2538+386876092+386395227+386064162+385824065+385477230+385012844+384594203
2528+384351571+384277156+384241887+384092572+383776345+383401697+383166186
2518+383161712+383257527+383218530+382879300+382205985+381354573+380661350
2508+380363950+380343855+380293114+380064687+379754052+379513098+379352039
2498+379090505+378527582+377716547+377003974+376712204+376837323+377108886
2488+377237770+377061799+376623361+376158565+375839244+375579947+375275352
2478+375013631+374859805+374717201+374509875+374195252+373671252+372994991
2468+372476844+372275670+372178028+371954186+371653357+371434250+371321099
2458+371233113+371153851+371130625+371101433+370921062+370634325+370478001
2448+370513046+370510809+370289540+369929507+369571375+369197100+368739685
2438+368302702+368085459+368098172+368136610+368091722+368122443+368396802
2428+368745725+368758886+368290846+367690492+367383026+367409534+367512321
2418+367456696+367165895+366782934+366641933+366911631+367284490+367289299
2408+366853620+366302553+365889729+365602209+365375422+365245606+365251645
2398+365321325+365311968+365158925+364943509+364761684+364592721+364404819
2388+364256325+364108315+363688220+362730927+361201503+359173244+356697674
2378+353888877+350964841+348129014+345440750+342788165+340055833+337418459
2368+335350085+334183378+333748855+333614117+333654121+334209065+335714107
2358+338394840+342211373+346914586+352375820+358614609+365021801+370173816
2348+372868493+373112281+372165762+371311256+370501713+368939667+366353033
2338+362927292+358798559+354268483+350090985+347027104+345185554+344089273
2328+343326369+342811019+342525177+342441366+342659243+343314290+344345662
2318+345453090+346281275+346699469+346914586+347219852+347719246+348452585
2308+349574702+351081944+352514211+353316075+353458977+353396790+353480340
2298+353733038+354093779+354517230+354877599+355085111+355266973+355598299
2288+356018245+356325934+356503024+356733801+357096369+357417182+357501887
2278+357361482+357108933+356773282+356364484+356030138+355961129+356119429
2268+356205998+356015672+355728414+355678418+355914899+356214871+356478343
2258+356847250+357392575+357912586+358159282+358121702+357944761+357699333
2248+357420984+357255601+357336466+357594421+357863411+358084979+358301700
2238+358570839+358961407+359514151+360150855+360725000+361208437+361732773
2228+362391734+363104717+363759466+364389757+365102927+365919293+366788712
2218+367701192+368706094+369847300+371130065+372564010+374187534+375980245
2208+377794430+379491549+381152653+383037786+385286308+387732872+390107706
2198+392365436+394672639+397104813+399538105+401839045+403995442+406037048
2188+407951410+409736366+411456525+413158529+414797749+416331758+417766523
2178+419041497+420057435+420832604+421426359+421783671+421795117+421346427
2168+420319379+418799536+417177839+415807311+414678632+413525198+412100872
2158+410278112+407973071+405175347+402106730+399074912+396115159+393076555
2148+389875997+386434299+383025856+380867893+381302155+384245503+388381432
2138+392669844+396776283+400565972+404077985+407509617+410873992+414124918
2128+417426846+420891137+424404641+427905282+431525600+435470830+439829780
2118+444388302+448753404+452738899+456447724+460019388+463441215+466569669
2108+469398524+472255527+475467344+479050006+483103093+488145909+494565144
2098+501843582+508642721+513824450+517334711+519820868+521563584+522159128
2088+520973781+517589683+512001131+504463955+495232382+484707194+473605698
2078+462700195+452620938+443774974+436115848+429342023+423481312+418832121
2068+415446495+413026587+411013838+408797043+406299887+404009050+402170147
2058+400622492+399330928+398292024+397263075+396156132+395186350+394448462
2048+393859106+393388643+393057317+392915533+392967915+393005085+392883023
2038+392930334+393668110+395391923+398301569+402653696+408605637+416083310
2028+424712591+433819904+442639733+450496715+456907263+461780595+465298759
2018+467406503+467822795+466600986+464225183+461170249+457588668+453338470
2008+448289167+442584071+436515214+430313111+424206338+418445505+413115617
1998+408180919+403859251+400609816+398407674+396323790+393405383+389807398
1988+386423338+383809079+382009844+380874007+380090449+379323817+378529670
1978+377875406+377407628+377014040+376618925+376343671+376466180+377007516
1968+377364120+376783339+375327994+373873954+373073358+372836281+372832665
1958+372946487+373071270+372952788+372481878+371856545+371379371+371278075
1948+371737018+372996632+375113063+377251900+377745180+375875258+372990368
1938+370860814+369970927+369836451+369965372+370145184+370304378+370387704
1928+370489074+371084357+372503091+374094851+374967215+375470859+376349002
1918+376846681+375653989+373357858+371864560+372034679+373121415+373813706
1908+373404535+372202448+370971244+370140151+369699215+369604332+369987555
1898+370963377+372208972+372986118+373162313+373719010+375201906+376384868
1888+375854529+374127585+372585335+371657719+371138006+370977954+371131519
1878+371379893+371540057+371691236+372576723+375509707+380811448+386058122
1868+387350507+383906012+378942756+375418478+373876564+373542479+373638704
1858+373719383+373663422+373639636+373856879+374456077+375624722+377636689
1848+380923480+385641122+390117101+390822665+386906514+382077921+379507133
1838+379092220+379241460+379449196+381037936+385265840+390732964+393797665
1828+393221620+391415189+389739023+387259501+384021736+381736230+381292909
1818+381934273+382657248+383524542+385311473+387985197+390059761+390128733
1808+388687294+387563313+388280621+391292941+395616324+398979208+399666169
1798+398671929+398921011+402459941+408340673+412101842+409828751+403943657
1788+399825848+399552011+401627618+404034141+406167125+407762725+408256825
1778+408390482+410542592+416538861+425292179+431958818+432104032+427287443
1768+421647330+417593161+416643735+419352654+423607438+426063173+426506159
1758+426963723+427760963+428820819+432112905+439328187+448298450+453806137
1748+453671474+450838965+448812831+449067021+451409046+454342477+456109351
1738+457685639+462668207+471951640+479352065+478285312+472400778+467284069
1728+464264441+463628371+465564655+469327352+474775276+483734130+497593496
1718+513005773+521463034+519428139+512956113+508135163+507336132+511179844
1708+519295265+529451062+538328046+545862276+555818316+569511738+581397947
1698+586362061+586038713+582197052+577128922+575469383+579349519+587229467
1688+597756966+612394857+630571640+642468586+640578234+633683652+631011494
1678+634851626+643727976+653609153+661260710+668406499+677232294+684268995
1668+685006062+683071046+684834863+690839967+696369725+698160385+699018321
1658+703626838+714765019+733082243+752781964+758817938+752606887+750160136
1648+754366230+756872110+750640852+740922598+735118369+734899299+739720324
1638+748645215+757358119+757033840+746418652+735591703+730810793+731076913
1628+732658569+733453126+733852566+733109385+729334645+724481409+722936065
1618+724978305+725060475+718965371+710761740+705488856+703633027+703074541
1608+701917229+700088989+698543272+697538967+696492383+695128305+693926926
1598+693356286+693187473+692703327+691468544+689842149+688648152+688295836
1588+688310301+687953959+687211896+686691288+686945254+688813759+693759530
1578+701956077+708919556+708200831+702630734+700535852+703802959+707255059
1568+705950856+701926773+699572930+701459554+710196990+728238775+750176391
1558+756674440+745041078+732497287+724974502+721257177+720011880+720163320
1548+721878297+727405669+738558539+754302552+771441513+783713965+781543549
1538+768239501+758534370+757722739+761332467+762594318+761138526+761872611
1528+766851190+774248707+782479628+792027802+801614152+806700401+806300812
1518+804201530+801412083+797015850+793402542+794796595+803280364+818097320
1508+834267692+838827294+825010095+807812452+799001794+799008206+804383318
1498+809968253+810841326+807402051+805262803+808360201+815493985+820931581
1488+819500321+812807659+806318409+803382070+804005427+806546799+810118724
1478+815339189+822675191+830827224+836380395+835392418+828667769+822632615
1468+821971528+826001203+829934466+829925071+828755606+832226048+842447835
1458+854551026+857398187+848448168+837909110+832022414+830871291+832204723
1448+832693492+830383790+826810747+824491426+824246558+826294613+831247542
1438+838094104+842553940+841796815+839393311+839118318+839936512+839085436
1428+836942087+836389417+838413686+841782051+846203337+852431016+858104608
1418+857705689+850941446+843565702+839186396+837448676+836595214+835626998
1408+834924006+835203398+836263254+837518692+839382649+842571388+846502041
1398+849724111+851257822+850340235+846679280+842265675+840139774+840987718
1388+842513750+842158078+840529894+840573365+843751814+849055941+854988122
1378+861237946+867927625+873766079+876414600+875545703+873699717+873188280
1368+874368930+876917014+880618009+884250480+885422108+883125381+879234619
1358+876126409+874423139+873364028+872202691+870839582+869525611+868562987
1348+868097482+867769698+867113906+866673007+867726525+870311742+872455538
1338+872330121+870378029+868255186+866965150+866768002+867577397+868824334
1328+869822526+870584199+871530121+872521602+873094553+873468866+874392940
1318+875991150+877514572+878378846+878914142+879817339+881135933+882246268
1308+882849344+883246324+883435046+883018605+882362514+882609173+883944618
1298+884980762+884524578+882970660+881407943+880318709+879402836+877803732
1288+874715207+870530961+866692469+863804745+860946549+857389463+853860785
1278+851451913+850286698+849726646+849153098+848292105+847231727+846328008
1268+845888676+845916339+846174331+846393252+846467816+846488321+846529183
1258+846646920+847272961+849113206+852168475+855278922+857241453+858064567
1248+858674875+859720489+860936185+861623592+861795314+862510608+864609666
1238+867601332+870414566+872773256+875095783+877492053+879737928+881867557
1228+883927841+885458719+886067834+886304576+887158336+888897249+890994367
1218+893048537+895358015+898562115+902743826+906812348+909354616+910440495
1208+911575586+913636765+916120499+918533025+921194446+924355000+927514585
1198+929881030+931070851+931386481+931593397+932564000+935082257+939412724
1188+944585692+948577712+950084655+950007183+950396184+952174466+954557837
1178+956454080+957642858+958598697+959888360+961820617+964137775+966068616
1168+967161429+967979921+969626970+972620053+976310535+979449018+981480147
1158+983012517+984810409+986709187+987835182+987841147+987716028+988890340
1148+991420752+993910004+995350063+995748460+995318522+994943986+996583430
1138+1000938652+1005456275+1006900882+1005560590+1004512665+1005491917
1130+1007781859+1010313538+1012694970+1014315997+1014132419+1011991009
1121+1009289622+1007799754+1008508562+1011390395+1015951041+1021369922
1113+1026058893+1028716586+1029885604+1030952693+1032307227+1033951070
1104+1036427571+1039529816+1041542752+1040785701+1037372748+1033353139
1095+1031281223+1032412362+1036088006+1040729704+1044608311+1045788812
1087+1043641288+1040714120+1040166893+1042101685+1044888225+1048369256
1078+1052949066+1056852354+1057823777+1056848328+1056751767+1058161255
1070+1059897855+1061866798+1064776667+1067695410+1068553197+1067316176
1061+1066117258+1066240662+1067078242+1068145032+1069913845+1071921486
1053+1072598753+1071451210+1069811021+1068632458+1067004945+1064618442
1044+1063703837+1065947177+1069141881+1069626027+1067068101+1063931258
1035+1061685757+1060317727+1059548746+1058839193+1057479663+1055656866
1027+1054839194+1056509657+1060924829+1066804740+1071768928+1073741823
1018+1072514272+1070004440+1068239356+1066791020+1063292541+1057681508
1010+1053486599+1052978966+1054295472+1054253791+1052401541+1051050288
1001+1051817330+1053578313+1054327460+1054208157+1054753595+1055277558
993+1053154043+1048411683+1044421080+1043436385+1044300063+1044676985
984+1043594014+1041044290+1036835587+1031437957+1026784030+1024539200
975+1024266593+1024459938+1024429740+1023705199+1020738288+1014637443
967+1007349386+1001821716+999049567+998005146+997209098+995341786+991363785
957+985669389+980451310+977479403+976252225+975207431+973631293+971669881
947+969939543+969150728+968870814+967590845+965044178+962949967+962583857
937+963392282+964282504+964758373+964736153+964340963+963898275+963561394
927+963055475+962042222+960543257+958876970+957419538+956637359+956946279
917+958127898+959146669+958960333+957485751+955731329+954897179+954906947
907+954094495+951205653+947386772+945142090+945968784+949416708+953630706
897+956350809+956240230+953842767+950735526+948339703+947364850+947635966
887+948313083+948196689+946430187+943401090+940508669+938971080+939195593
877+940989832+943380958+944614474+943728800+941858804+940872766+941262886
867+942189943+943125874+944355289+945691703+945928146+944264619+941329845
857+938273308+935981949+935339280+937030994+940644227+944176707+945190483
847+942957060+939167855+936347612+935809259+937231049+939355981+940523209
837+939702332+937955217+937614459+939304979+941282124+942141999+942329229
827+942661786+943400866+944904603+947347327+949433635+949102868+946195683
817+943312060+943414810+947165316+952824667+957923965+960566223+960021979
807+957159085+954008448+952567196+953362722+954580132+953799818+951239729
797+949611097+950371056+952171111+953047986+952366693+950848043+949629217
787+949431920+950394767+952188559+954094421+955214077+955159944+954343167
777+953178698+951531797+949376593+947601890+947455520+949167589+951287301
767+951599576+949388225+946424297+945180565+946588264+949459657+952098933
757+953984439+955485193+956777987+957309929+955761826+951418534+946201723
747+943792776+946124027+951308478+955478557+956370047+954720611+952695223
737+951512485+951238387+952112876+954562833+957982498+960379663+959775395
727+955844443+950515860+946824036+946435705+948408302+950758119+952335227
717+952352451+950138714+946796074+944926674+945550553+947499513+949762015
707+951804628+952079024+949570311+946402300+945614604+947026030+946997248
697+942198444+933324629+924724093+920461107+920857267+922671638+922558151
687+920169710+917652645+916489667+915698168+913272444+908959575+905232109
677+905009982+908376333+911753944+910956032+905415686+898699835+895679611
667+896950558+897314357+894200480+889033627+883789972+880219687+879814804
657+882883494+887326851+889235099+886096616+879653372+874282809+872532488
647+873467449+874536849+873912225+872082046+871725629+874469965+877713584
637+877364548+873945555+871614006+871160879+868819711+862665926+855787525
627+850761821+845052662+836036877+827289225+824882963+829453750+835248062
617+837328330+837353831+839830780+845442484+850385794+852076836+852892121
607+856519298+862688295+866761739+863701623+853100155+840923220
##END=
