##TITLE=<SNM>
##JCAMP-DX=4.24
##DATA TYPE=INFRARED SPECTRUM
##DATE=2/5/2025
##SAMPLING PROCEDURE=Instrument type and / or accessory
##ORIGIN=Admin
##XUNITS=1/CM
##YUNITS=ABSORBANCE
##RESOLUTION=4
##FIRSTX=4497.3318
##LASTX=599.83466
##DELTAX=-1.4281778
##MAXY=1.8320588
##MINY=0.3234778
##XFACTOR=1
##YFACTOR=1.7062377e-09
##NPOINTS=2730
##FIRSTY=0.34141937
##XYDATA=(X++(Y..Y))
4497+200100705+200131674+200278586+200689507+201133528+201204687+200846550
4487+200248666+199573928+199173748+199548217+200688774+201844475+202209738
4477+201682593+200895143+200636182+201329714+202835465+204383590+204874386
4467+203788482+201841243+200326794+199900834+200283686+200873764+201332072
4457+201672899+201962061+201991562+201398376+200200964+199001457+198412725
4447+198377267+198385145+198326876+198660874+199635637+200822237+201582701
4437+201601688+200856367+199554068+198276310+197765252+198329461+199597036
4427+200920050+201800040+201909398+201116481+199702779+198310510+197505383
4417+197482763+198113101+199081961+199991626+200500326+200501863+200119639
4407+199462700+198582972+197752868+197467707+197919657+198645800+198938821
4397+198548109+197817477+197187035+196773109+196545221+196688553+197465104
4387+198772853+200062576+200617248+199895454+197938277+195558545+193849273
4377+193427173+194070663+194934967+195247079+194994459+194753034+194816403
4367+194989813+195234993+195706314+195999509+195351862+193909585+192820520
4357+192763002+193257274+193641926+193887682+194236422+194706119+195041322
4347+194863179+194108112+193353097+193175600+193303142+193064460+192421319
4337+191753253+191072139+190355883+190114947+190662720+191337668+191382452
4327+191099824+191225130+191660697+191756065+191447568+191268482+191479043
4317+191901318+192463658+193211651+193852015+193945357+193665034+193740787
4307+194394478+194997638+195041636+194755235+194551451+194509618+194511540
4297+194361239+193798986+192784137+191674653+190948982+190831798+191107894
4287+191269757+191089152+190909612+191043110+191206283+191000613+190614058
4277+190598216+191186249+192068666+192646779+192470121+191592245+190513834
4267+189763919+189585427+189896823+190382415+190657270+190544243+190275641
4257+190280060+190787747+191715909+192695860+193167810+192935940+192621382
4247+192960480+193750761+194117561+193709068+193099620+193050870+193653559
4237+194174712+193849325+192860257+192125870+192137153+192557926+192967275
4227+193356730+193723425+193723932+193098851+192246739+191972984+192597558
4217+193630101+194436625+194798325+194637806+193806846+192545716+191659841
4207+191806282+192839995+194081423+194956556+195202085+194828997+194173542
4197+193692771+193488236+193285291+192970471+192776259+192779910+192616474
4187+192017891+191357335+191282805+191963429+192988113+193836260+194198152
4177+194084689+193886040+194110802+194926828+196062686+197041572+197407010
4167+197012088+196259466+195763098+195661756+195541061+195078246+194488012
4157+194228562+194451437+194896890+195222137+195255691+195049112+194845101
4147+194845223+194917011+194769540+194397203+193983574+193552619+193124405
4137+192971799+193308260+193875420+194167009+194051817+194019066+194576219
4127+195389520+195483771+194510142+193305587+192940656+193601420+194513933
4117+194768754+194238466+193639306+193624686+194058733+194308909+193991207
4107+193288697+192698078+192578711+192933617+193506489+193952868+194024848
4097+193802986+193625734+193639096+193694238+193728194+193807440+193757835
4087+193267545+192522259+192237971+192768906+193582452+193945217+193819440
4077+193648877+193506052+193056180+192277009+191637152+191563075+192126044
4067+193136405+194187795+194744685+194519435+193716928+192847279+192416009
4057+192644124+193256069+193689243+193684579+193438509+193127200+192770460
4047+192635670+193108842+193956099+194372697+194055380+193578120+193428570
4037+193317168+192822197+192213779+192140751+192763124+193574766+193968553
4027+193774044+193333761+193182901+193601560+194398460+195131048+195504696
4017+195490094+195161039+194596847+193951785+193504306+193521144+193997251
4007+194538054+194684635+194494021+194546281+195138472+195784652+195823533
3997+195278205+194790238+194836752+195257332+195515525+195282380+194764108
3987+194513671+194908191+195776669+196574006+196922275+196899620+196840583
3977+197005556+197399779+197741148+197674320+197151333+196460158+195857139
3967+195508172+195731064+196716098+197980407+198729500+198822266+198746164
3957+198699825+198419956+197934347+197959604+199249501+201502914+203249740
3947+203474693+202959478+203015092+203576489+203544787+202506759+201178086
3937+200562682+201357923+203562219+206148756+207524956+206973166+205497161
3927+204697030+205060424+205654990+205634484+205560321+206435035+208022390
3917+208788392+207526301+204843278+202506200+201643922+202198839+203912705
3907+207135379+212076513+217610781+221707610+223201065+222076437+218610260
3897+213974182+210587950+210369354+212825555+214940439+214522758+213601390
3887+214827936+217005700+217305446+216497088+216976967+217529963+215775783
3878+213455927+213817680+217135687+221631141+225841504+228160469+227202281
3868+224838741+224200072+225006736+224324208+221259922+218226429+217803421
3858+221391498+229641015+240689237+246284743+239738403+227979846+218834270
3848+214446359+214625322+218145559+223088492+228121413+233025570+236980413
3838+237859214+235222373+231442215+228335642+225939911+224133821+223280765
3828+223307507+224031815+226622876+232319637+238692847+240523251+237909553
3818+235506381+233823256+230156999+225092672+221942467+222701203+227139803
3808+232645041+236137138+238364456+241949336+245579368+245491947+242716595
3798+240755418+239426430+237142416+234870908+234733900+237088497+240803504
3788+245037831+249637299+254477284+259776240+266474907+274763113+282952387
3778+289715157+296386437+305076184+316603360+330461395+344418712+355052886
3768+361050423+363696696+364390962+364907522+367285541+371281465+374069149
3758+374308792+374679610+378728842+387628714+399191557+408948309+415576393
3748+422869365+433298060+444096421+449689884+451302339+455706809+466466952
3738+482669122+500140702+514126034+522899657+528695209+535214545+544480379
3728+555532461+565103403+570506723+572539007+573426944+573820538+573881497
3718+574400397+576054213+579373093+584249933+587543626+584302088+575130435
3708+566087127+561434944+561458594+563929607+566009645+566540143+566652873
3698+567688508+570167729+574130013+579243560+584638776+588299864+587321799
3688+581507034+574937707+571235608+571022724+573272608+577087787+582766312
3678+590337039+596037677+595044870+590702581+589254104+589437295+585511936
3668+577601832+570650509+566875713+565505905+564824565+564032450+563814780
3658+564520540+565072941+565567283+568905097+576978515+587148669+592322232
3648+587464816+576048274+564092885+554936393+549954614+549262234+551650350
3638+555135199+558404159+561569193+565459234+570600065+575961290+577672607
3628+572795278+565261721+560504459+560456949+565195313+572864656+578624297
3618+579548284+579356989+582234801+587007189+589986866+590368269+589915393
3608+589392230+588442881+587476414+587619921+589203450+591305112+593178170
3598+595110754+597294021+598994438+599674032+600534720+603672646+609175770
3588+613401591+612983788+610458594+610094728+611828122+612600499+610775719
3578+607580573+604868974+603114899+601910746+601838923+604803718+611643464
3568+619481536+622876082+619930150+614406974+610483396+608974414+607817840
3558+604904257+600575243+596988703+595733616+596634269+598758218+601935129
3548+605672512+607439651+604969582+599810621+595556714+593940416+594180618
3538+594766102+594880683+594348997+593194589+591795647+590969752+591213657
3528+591929651+591858736+590343606+588124987+586725486+586563535+586062975
3518+583463547+579230915+575744109+574776909+575931527+577429226+578011565
3508+577762001+577255816+576658560+575716861+574105070+571915586+569956767
3498+568930215+568337535+566849653+564089147+561424080+560193272+559857772
3488+559012210+557647607+556834882+556679533+556190222+554896813+553466082
3478+552808217+553149830+553708869+553394434+552082057+550600846+549472359
3468+548286545+546707452+545549725+545724916+546620922+546689217+545222224
3458+542910438+541020019+540321945+540721233+541579931+542307803+542419729
3448+541212222+538461882+535377125+533552066+533275359+533830834+534712273
3438+535432460+535023669+533018144+530259106+527992314+526845452+526882062
3428+527681547+528244533+527741737+526274640+524291612+521896859+519458230
3418+518048773+518213449+518935138+518870057+518075078+517479184+517325617
3408+517101625+516460842+515396561+513888907+512157923+510885614+510472842
3398+510541206+510712799+511173361+511769149+511570169+510251294+508731168
3388+507747095+507140652+506821430+506972622+507098382+506273780+504643020
3378+503498987+503555893+504050620+503963251+503403479+503083454+502913503
3368+502122332+500657925+499474278+499382088+500321377+501599240+502392472
3358+502312125+501719970+501301223+501532797+502613670+504149132+504905684
3348+503910327+501751270+499806808+498618480+498031669+498178179+499120961
3338+500085856+499988706+498607895+496839707+495779654+495724354+496121267
3328+496327409+496045741+495180476+493902299+492738808+492077903+491736115
3318+491302033+490565323+489517112+488427435+487874300+488233381+489281766
3308+490435196+491046181+490678437+489659885+488965025+488991784+489086244
3298+488676441+488125821+488005196+488264890+488614748+489126802+490006424
3288+491039998+491657900+491626949+491399288+491483582+491723330+491669847
3278+491481591+491763294+492490571+492741638+491782647+490047995+488674519
3268+488283789+488584531+489060254+489424923+489298674+488318373+486773550
3258+485315535+484048152+482730291+481583952+480937754+480517366+480044962
3248+479957384+480680470+481724594+482100093+481362824+480014116+478957032
3238+478564521+478402010+477987037+477346603+476558821+475522976+474456495
3228+473799433+473507425+473100556+472343515+471529986+471225298+471577147
3218+471686174+470304698+467479706+464633684+462810092+461833075+461188030
3208+460755136+460558740+460506340+460596608+461002499+461716223+462296920
3198+462219508+461428057+460365174+459495229+458846725+458034000+456884448
3188+455813111+455211593+454792637+454042303+452955805+451787354+450554240
3178+449230056+447865488+446282168+444291489+442278034+440886254+440220214
3168+439897080+439601684+439160440+438474488+437700993+437050744+436319588
3158+435166472+433785346+432720961+432182778+431943379+431631634+430910923
3148+429696499+428314081+427201383+426468236+425860465+425017662+423790173
3138+422448732+421475488+421087483+421076584+421060270+420759913+420079445
3128+419016528+417599944+416004327+414590329+413647372+413195893+413116839
3118+413280467+413472705+413353233+412649675+411486953+410421100+409906567
3108+409786920+409579695+409155289+408764280+408458543+407980096+407293690
3098+406744607+406505278+406291416+405861771+405357612+404931041+404505063
3088+403995350+403364349+402596373+401938648+401742811+401808591+401489544
3078+400648034+399813266+399313230+398919251+398364090+397662453+396886653
3068+395985267+394886297+393668345+392590127+391916716+391663938+391512257
3058+391048936+390172667+389244417+388710705+388559723+388341529+387747837
3048+386933749+386251465+385916594+385883722+385860945+385517550+384762011
3038+383779335+382867958+382289741+382043321+381681132+380633829+378885169
3028+377132282+376149571+376031846+376131057+375810543+375074916+374278470
3018+373589374+373084377+372928469+373002808+372734135+371712753+370219875
3008+368912004+368208237+368073778+368125514+367859846+367023716+365887857
2998+364989301+364525246+364151109+363444826+362452194+361621164+361226871
2988+361044449+360682190+360098418+359579832+359282409+359059779+358710026
2978+358165869+357478066+356758368+356104031+355535071+355052991+354719272
2968+354557111+354424155+354131832+353629455+352974105+352235823+351505506
2958+350880304+350400179+350069151+349907095+349906501+349960438+349842608
2948+349268338+348094786+346518802+344994693+343909558+343353349+343134421
2938+342918847+342423841+341646748+340956325+340778095+341056235+341218605
2928+340835630+340031534+339103668+338180798+337404090+336933362+336613862
2918+336103869+335395351+334816330+334578853+334627515+334778532+334781851
2908+334431644+333774267+333074133+332498570+331990744+331517816+331193913
2898+330991579+330593828+329810761+328905847+328226288+327739212+327204207
2888+326592803+326059615+325632205+325188028+324726558+324443248+324407930
2878+324335024+323929518+323368034+323095798+323183376+323265784+323110330
2868+322827335+322483905+321927206+321119652+320350733+319944772+319850801
2858+319658493+319119890+318541568+318395512+318649268+318828651+318629181
2848+318124569+317506003+316879299+316192858+315336676+314468406+314036281
2838+314232397+314666933+314777672+314352707+313603456+312908911+312440838
2828+311969308+311235148+310477094+310181906+310313605+310271650+309691442
2818+308849687+308196922+307879552+307769407+307633656+307231364+306493536
2808+305643746+305011592+304713366+304543834+304177558+303510749+302778651
2798+302288116+302095424+301974764+301649464+301084207+300559403+300333384
2788+300269526+299982898+299303339+298430703+297722813+297398317+297311717
2778+297064424+296473491+295780971+295247958+294776532+294130649+293340840
2768+292673350+292271477+291997459+291634379+291121435+290550344+290016807
2758+289520229+288966832+288278016+287554371+287058823+286903876+286827529
2748+286470912+285831823+285211476+284751788+284306754+283766457+283210510
2738+282682125+282066197+281291951+280480065+279797729+279282496+278870160
2728+278530940+278326946+278326684+278444113+278397075+277929038+277089484
2718+276199818+275535962+275117023+274784021+274403387+273992343+273675759
2708+273513948+273405689+273210744+272935416+272717013+272607759+272455536
2698+272052947+271365650+270594059+270036417+269840039+269840232+269732724
2688+269402551+268948417+268470214+268042979+267773783+267662101+267523328
2678+267203303+266742759+266263421+265825321+265441788+265145360+264973977
2668+264891412+264795607+264643036+264478098+264325649+264155925+263934605
2658+263622859+263180987+262625337+262033163+261505687+261151812+261012358
2648+260979276+260885602+260672858+260393775+260089680+259745254+259354594
2638+258969454+258636661+258348600+258130599+258066985+258120223+258085308
2628+257866677+257613393+257456122+257322380+257127487+256939336+256832754
2618+256741176+256574631+256368559+256197892+256044290+255875894+255736911
2608+255605719+255314357+254802653+254304800+254098064+254190952+254389461
2598+254549561+254666151+254778619+254851595+254785675+254584616+254426787
2588+254449529+254543430+254499781+254288870+254064319+253938052+253863469
2578+253755787+253648978+253649817+253755927+253819086+253710251+253459866
2568+253224136+253144523+253240031+253442208+253715317+254063009+254417146
2558+254627602+254606013+254421023+254216069+254067375+253955012+253815069
2548+253548650+253067233+252450554+251955670+251732044+251644711+251498165
2538+251286801+251104693+250959929+250807166+250654419+250510651+250299898
2528+249969551+249643325+249515155+249612986+249781329+249847039+249722799
2518+249442441+249154904+248997128+248955889+248921602+248847718+248791073
2508+248793711+248765764+248557159+248183285+247875172+247814895+247903067
2498+247897128+247731177+247575357+247570676+247644891+247663598+247629049
2488+247607286+247560213+247385878+247082237+246755383+246458467+246141673
2478+245831325+245698491+245790663+245869333+245710351+245385698+245077236
2468+244828074+244626840+244526406+244530651+244504800+244320020+244019314
2458+243745942+243543486+243331790+243073650+242842426+242718185+242710133
2448+242767389+242806130+242767336+242663043+242515327+242299963+242021736
2438+241754897+241531166+241299191+241045872+240825914+240653483+240507024
2428+240431691+240498134+240696468+240956093+241190513+241312291+241323784
2418+241344203+241432794+241501159+241468705+241344727+241156768+240971045
2408+240898540+240928391+240899920+240755663+240648941+240739611+241034693
2398+241431711+241809411+242166692+242816295+244367232+247423816+252396949
2388+259651842+269667870+282941907+299803235+320301477+344118215+370575427
2378+398860318+428235900+457912642+486834089+513801433+537782533+558194908
2368+574983330+588109686+597193971+602075142+602873649+599323929+591036335
2358+577982570+560138811+537360608+510535547+483636637+462943921+453092569
2348+455393596+468336692+487196348+504790613+516135018+521045777+521771833
2338+520752547+519552690+518751213+518573403+518874982+518761135+517121327
2328+513545686+508327234+501856804+494370441+486055843+477086699+467560891
2318+457587866+447445519+437501594+427916888+418437542+408520236+397767428
2308+386309420+374743817+363706757+353511660+344100364+335229557+326737008
2298+318701109+311311093+304592287+298377010+292541267+287100743+282059333
2288+277344323+272936691+268950077+265546099+262804335+260653347+258907884
2278+257389854+256010282+254735773+253522729+252333981+251211065+250250956
2268+249473828+248805780+248222917+247766145+247379188+246928321+246410136
2258+245925872+245445067+244833960+244129004+243544167+243158450+242793641
2248+242274811+241656787+241119022+240766841+240598393+240551704+240515618
2238+240376985+240123421+239874014+239766053+239820007+239956282+240113517
2228+240258701+240318140+240242858+240113727+240043895+240032961+240036542
2218+240080942+240183402+240248273+240161394+239948213+239775782+239817440
2208+240126303+240603336+241080648+241458365+241743893+241972445+242172665
2198+242396553+242671514+242948990+243201453+243487855+243836350+244184985
2188+244490180+244757438+244962218+245066040+245091925+245104711+245157687
2178+245289404+245514619+245777842+245949103+245915742+245676081+245309473
2168+244896840+244516695+244248931+244116044+244058282+243977254+243802639
2158+243559817+243347527+243205436+243078680+242933025+242813798+242817605
2148+243049545+243548027+244304545+245437347+247172924+249560760+252414310
2138+255582680+259099598+263064449+267498805+272329549+277502693+283064384
2128+289043528+295377421+302059792+309171179+316669035+324320422+331827221
2118+338882820+345199054+350545956+354724163+357560788+358952988+358870196
2108+357392095+354744704+351212764+347073893+342581251+337841281+332771784
2098+327238931+321105434+314284517+306955984+299548396+292426738+285793554
2088+279814794+274625598+270259712+266635199+263583105+260964045+258745880
2078+256891145+255293607+253891975+252688258+251670474+250850780+250289837
2068+249997812+249869030+249718257+249422703+249072164+248823317+248627253
2058+248352764+248051394+247821707+247641451+247528860+247576929+247759211
2048+247960742+248151111+248381077+248699845+249075116+249345571+249387578
2038+249313362+249326287+249464327+249637666+249827459+250135432+250632499
2028+251207415+251676902+252030043+252394818+252846925+253439099+254212209
2018+254954508+255233626+254910178+254350004+253964007+253812921+253750722
2008+253704435+253681152+253648996+253545872+253359940+253132104+252896705
1998+252707960+252783644+253455447+254707617+255868296+256160269+255533407
1988+254565648+253773970+253367869+253347102+253546309+253739508+253799524
1978+253733377+253641328+253622115+253662725+253794039+254320153+255460920
1968+256739045+257275237+256863408+256190975+255885099+255947158+256168111
1958+256533375+257041219+257524330+257846031+258074531+258389106+258912914
1948+259706635+260930526+262724809+264580121+265287033+264319221+262695832
1938+261652215+261349744+261321972+261336190+261439296+261662957+261975943
1928+262459316+263440053+265084017+266816678+267896207+268557059+269404944
1918+269957136+269283533+267823615+266981476+267391088+268517078+269403128
1908+269512329+269102683+268822028+268941798+269198907+269364998+269672796
1898+270499966+271711019+272668158+273200106+273983190+275290851+276131558
1888+275607592+274345065+273444710+273097734+272949879+272871645+272904902
1878+273009580+273123829+273352136+274230868+276630966+280718031+284741098
1868+285880154+283529539+280053424+277705377+276903586+276990395+277314542
1858+277577136+277750161+277916357+278153310+278625906+279623813+281411965
1848+284271716+288261806+292062016+292948748+290221010+286657212+284737046
1838+284546537+284964515+285476097+286890514+290149851+294352650+296900481
1828+296839697+295858523+294937819+293410043+291316486+289868689+289633273
1818+290048946+290548633+291368501+293078246+295484107+297344310+297642187
1808+296849863+296310631+297030678+299299740+302515602+305183779+306065043
1798+305692513+306044537+308710059+313226315+316435051+315337304+311516920
1788+308846788+308798929+310291038+312062754+313904337+315616736+316595081
1778+317197996+319142562+323882986+330705405+335995122+336389659+332996965
1768+328865394+325787240+324964908+326892532+330011803+331882171+332443620
1758+333160104+334076476+335051851+337679644+343274818+350096364+354249034
1748+354284771+352453808+351325634+351978923+354222484+356838680+358429441
1738+359736578+363540194+370467832+375588297+373839078+368231502+363173918
1728+359702903+358057820+358366491+359994946+362868914+368487843+377840067
1718+388084455+392636274+389042992+382069416+376450383+374114562+375473890
1708+379885032+385323810+389599830+393377560+399410589+407655076+413442348
1698+414021823+411153024+405567771+398968612+395320310+396216246+400196869
1688+406142949+415117893+426449058+432772977+428943720+421522997+417239676
1678+417796829+422092411+427184859+430822157+434211638+438599585+441203134
1668+439176335+435863568+436038060+439805694+443346576+444034205+444051043
1658+447302013+456266546+471471333+487947136+493411974+489204389+488413392
1648+493607636+498213602+496148410+491006497+488917411+491808567+499574397
1638+511508826+524387539+531226866+529841548+527562878+530231823+538033669
1628+548250494+558783396+569808475+581173420+590779295+598257832+606777804
1618+618642506+631100516+638905681+642549931+646117956+650974394+656063698
1608+660164387+662931460+664914977+667002177+669567893+672387925+675455565
1598+679282237+684134203+689415431+694267328+698624917+703063482+707841879
1588+712744848+717432698+721454228+724509781+727104772+730618092+736531474
1578+745027830+753179464+756899449+758254654+763063234+772854291+783883317
1568+791876283+797701074+804657008+814559922+828813648+849411275+873966435
1558+888470423+887282339+882618664+880246058+879043302+877576869+875459208
1548+873471638+873531724+877076413+883933346+892211369+896132990+887998753
1538+872609972+861496337+856715844+853360703+846867636+839116688+835157968
1528+836569556+840891094+845128862+848789671+851798482+852452645+850547867
1518+847953785+844899490+840649146+836407395+834875986+838330338+847457940
1508+858942637+862485650+852403598+839941326+834057916+834612728+838236507
1498+840655574+838623918+833448958+830177028+831963101+837374631+841224359
1488+839332996+833311879+827436085+824052718+823232971+824190774+826478631
1478+830095703+834897505+840147153+843684926+842121308+835493678+828965189
1468+826457881+827563522+829064749+828488977+827616551+830283854+837904500
1458+846548345+847182875+837863698+827361747+821167500+819243440+819462472
1448+819286268+817430048+814688057+812460705+811520648+812629014+816581796
1438+822276425+825407085+822884895+817942381+814842323+813893882+813039062
1428+811329493+809906377+809727238+810598756+812706566+816566774+820034681
1418+818646638+812590797+806931940+804389977+803956524+803724497+803080605
1408+802649597+802750344+802535225+801351193+800349373+801141104+803643311
1398+806333181+808010682+808283442+807092284+805135316+803757823+803571488
1388+803701720+802880786+801572531+801726168+804247799+808311878+812946629
1378+818142549+824088420+829839082+833395999+833900576+832926773+832421777
1368+832993217+834718157+837763649+841264253+843046134+842003163+839619100
1358+837921478+837448690+837550276+837738846+838262008+839306656+840310851
1348+840587034+840233928+840048431+840817105+842669063+844851072+846322186
1338+846707641+846448925+846220460+846511106+847489660+849089748+851190013
1328+853560382+855847889+857960660+860271922+863248386+867055565+871508941
1318+876280352+881182273+886004197+890104746+893003169+895429152+898586780
1308+902446918+906024585+909080836+912114101+914926308+916732364+917562031
1298+918275511+919304788+920400578+921335605+921892582+921436632+919458634
1288+916370314+913061634+909977925+907133440+904731072+903325493+903333946
1278+904454469+905635357+905808417+904874788+903837825+903671054+904298527
1268+905137766+906220212+907992382+910456163+913244266+916045294+918305553
1258+919214799+918730623+918041667+918469181+920226330+922389614+923902719
1248+924572182+925102191+926181283+927716605+929034851+929447903+928371257
1238+925556046+921849265+918881116+917257692+916037469+914573201+913507175
1228+913326639+913341451+912639849+911314267+910319434+910297775+910763228
1218+910781463+910372533+910490328+911712926+913623922+915252306+915869230
1208+915767643+916089939+917567970+919864420+922282509+924530052+926467807
1198+927717164+928173953+928527688+929632002+931752598+934684416+937889065
1188+940462886+941907661+942827107+943946652+945146893+946369351+948177433
1178+950542004+952560594+953771524+954302023+954322284+954440988+955598191
1168+958266542+962073441+965797759+967599832+966571253+964660747+965249305
1158+969345453+974736860+979038626+981806957+983248308+983171454+982022496
1148+981182977+981462024+982465311+983744222+985385462+987381415+989337545
1138+990923171+992283686+993693807+994903549+995723017+997073541+1000272809
1128+1004863894+1008204433+1008146443+1005015924+1000954429+998540044+999627939
1118+1004154467+1010028025+1014881179+1017343633+1016856592+1014322105
1110+1012992262+1016165051+1023221942+1029431839+1031282819+1030139240
1101+1028862634+1028031080+1026999707+1026004805+1025822383+1027160750
1093+1030712287+1036242450+1042162190+1046577000+1048019120+1046430769
1084+1044147594+1043881401+1045545068+1047419174+1049183519+1051146216
1075+1052306703+1051529575+1050072155+1049912369+1051394593+1053439872
1067+1055000206+1056630267+1059703356+1063104400+1062885508+1057524562
1058+1050908250+1047436431+1047604880+1049300546+1051002710+1053310479
1050+1057769794+1064227019+1070165134+1073251917+1073098420+1070302562
1041+1066154852+1063393299+1064344815+1067801612+1069535076+1066708197
1033+1061295620+1057831137+1058348780+1060389448+1059948239+1056967165
1024+1055849576+1059717539+1066699604+1072252473+1073741823+1071587062
1015+1067152550+1062032784+1058444218+1057982748+1060170206+1062938187
1007+1064031113+1062390082+1058810250+1055017743+1052127215+1049988804
998+1048227952+1046972586+1046020861+1044750753+1043480715+1042999054
990+1042575731+1041022244+1039194670+1038904234+1040356903+1042209979
981+1043055297+1041744387+1037488384+1031008242+1025053988+1022557439
973+1023674399+1025481782+1025492681+1024147816+1022598731+1020134460
964+1015862737+1011357589+1008906873+1008412007+1007609797+1004652267
955+1000005918+996025819+994592433+994883917+993875041+989891239+985265850
945+983513173+984370298+984568091+982568015+979454962+976357629+973924380
935+973432029+975706681+978987204+979542715+975466199+969270975+965498589
925+966369828+970320164+974072847+975442654+974360977+972296834+970924791
915+970701636+970470098+968637423+965007775+961380433+960090413+961781957
905+964661725+966300450+965960338+964628049+963487754+962921764+962671571
895+962568797+962848613+963217300+962199830+958876059+954716542+952072575
885+951756148+953163753+955156982+956033600+954658972+952304043+951271971
875+951723660+951584206+949511120+946610252+944765700+944132777+943670399
865+943192021+943124879+943335597+943460519+943944765+945396527+947228992
855+948133487+947615285+946304864+944776250+942655514+939579840+936620564
845+935439327+936292679+938094054+940183419+942739075+945220812+945962937
835+943878532+939981853+937133805+937833730+941882718+945809789+945827325
825+942621000+940613868+941870352+944057670+945074022+945932544+947551357
815+949127202+951092414+955236910+960748977+963942447+962976399+960078466
805+958394049+958552436+958972475+958001048+955405358+952828463+952322767
795+953950663+955897150+957219798+958785931+960781535+961347596+959300570
785+956513096+955795005+957764479+960836870+963079453+963411949+962118925
776+960853917+960605611+960149101+957952002+954574014+951666090+950155920
766+950655467+953644926+958310208+962587870+964883622+965173429+964389664
756+963388124+962732704+962467420+961944118+961119131+961377219+963488592
746+965725796+966193554+965905144+966999397+969866309+973516358+976972666
736+978968061+977732258+972988445+967463242+964358992+963676674+963031175
726+961836244+961967384+964105097+966222199+966147721+964036907+961706222
716+959927694+957845455+955840838+956323408+960075112+963960542+964608906
706+962427666+959729831+958448405+960220924+964604155+967751233+965790842
696+958917560+950420086+943115238+937478807+932458042+928149569+927239066
686+932400822+941993038+949330933+947738880+937947403+927292514+921512088
676+921179732+924303195+928416460+930058469+925281260+914109845+904508826
666+902403042+905329551+909307833+910730460+907436173+901796738+898452706
656+899500777+903641919+908185983+911054642+911571307+910786423+910572282
646+911796836+913148129+912300995+908810662+904913494+903255835+904136646
636+905907349+906367002+903690127+898202024+891081763+883280791+876253104
626+870951475+866963341+863454632+861160488+862569910+868216471+873847521
616+874148228+869571886+865805579+866747662+871484069+877121897+881655690
606+883245788+879490659+870399597+860033397+852962393
##END=
