##TITLE=<SNM>
##JCAMP-DX=4.24
##DATA TYPE=INFRARED SPECTRUM
##DATE=3/5/2025
##SAMPLING PROCEDURE=Instrument type and / or accessory
##ORIGIN=Admin
##XUNITS=1/CM
##YUNITS=ABSORBANCE
##RESOLUTION=4
##FIRSTX=4497.3318
##LASTX=599.83466
##DELTAX=-1.4281778
##MAXY=1.7682139
##MINY=0.20927191
##XFACTOR=1
##YFACTOR=1.6467775e-09
##NPOINTS=2730
##FIRSTY=0.23192915
##XYDATA=(X++(Y..Y))
4497+140838185+141281787+141637744+141802213+141362918+140232349+139029770
4487+138658693+139444417+140849740+142141466+142958327+143086990+142368914
4477+141117545+140002331+139398730+139330603+139776087+140446241+140691126
4467+140225182+139603456+139564366+140199764+141011802+141510077+141521668
4457+141082327+140339567+139569651+139012008+138705800+138675189+139047723
4447+139687274+140009199+139567886+138615277+137767552+137351856+137305472
4437+137455472+137633740+137669193+137492065+137187821+136831050+136373530
4427+135819661+135433074+135574894+136206039+136689058+136340919+135202948
4417+134066443+133740102+134437991+135740847+136944339+137504561+137287112
4407+136482567+135422912+134514633+134034429+133799045+133346883+132625513
4397+132140875+132247839+132684393+133040739+133351290+133881343+134544159
4387+134923018+134833726+134497558+134108257+133577715+132830167+132000602
4377+131226642+130604138+130406813+130914218+131916423+132711847+132747308
4367+132194117+131738064+131729205+131741946+131204662+130259066+129599698
4357+129613163+130071008+130574422+130922850+131000153+130674093+130058394
4347+129646082+129827227+130374935+130754581+130766679+130528799+130125074
4337+129614656+129101713+128668634+128492891+128802093+129407776+129747056
4327+129648860+129445726+129231924+128780684+128234180+128110458+128553083
4317+129139672+129463832+129458828+129124643+128395654+127502214+127079650
4307+127533776+128553798+129545361+130243014+130687404+130958593+131093753
4297+131014875+130606065+130028796+129713965+129907788+130432403+130900663
4287+131027453+130880005+130813787+130925348+130824238+130323991+129927803
4277+130124766+130669551+131037452+131128491+131103344+130988707+130837205
4267+130900066+131314170+131821927+131983283+131628666+131050220+130720205
4257+130851375+131335144+131997236+132691958+133242099+133523359+133573254
4247+133558097+133685105+134045586+134430164+134481886+134143601+133744690
4237+133587370+133632215+133639309+133464272+133165466+132956460+133104632
4227+133753277+134735882+135600022+135931647+135741245+135440594+135319142
4217+135208332+134912630+134637333+134568409+134435738+134018539+133625827
4207+133640748+134092159+134855171+135737191+136391139+136624894+136631834
4197+136600435+136403355+135975452+135692491+136000327+136748001+137234340
4187+137034663+136473491+136120276+136090542+136020867+135631303+135190769
4177+135278206+136068762+137180600+138288059+139369295+140210469+140301598
4167+139546595+138556416+137949240+137779795+137863540+138174797+138583951
4157+138651255+138113148+137289546+136727144+136698740+137174384+137958814
4147+138711944+139067938+138925638+138579327+138412216+138427146+138237531
4137+137595419+136752308+136208311+136237719+136716141+137346960+137966532
4127+138527225+138841268+138573581+137603997+136373114+135752610+136315112
4117+137681354+138932533+139673602+140182490+140576687+140551161+139976190
4107+139159465+138515317+138393168+139027671+140183341+141066411+141092290
4097+140565014+140158548+140010991+139838767+139579867+139328259+138999340
4087+138606075+138492568+138845847+139333987+139528986+139385718+139162795
4077+139136047+139442815+139972796+140341096+140115738+139203351+138009351
4067+137163353+137076930+137689987+138485230+138812077+138482280+138032850
4057+138124848+138766897+139401743+139591340+139332123+138897587+138628036
4047+138737561+139149367+139495850+139363105+138752084+138249611+138400896
4037+138970981+139248766+139048338+138882204+139141648+139609546+139860385
4027+139869442+140036273+140566109+141086490+141166643+140961826+140994392
4017+141479573+142049731+142068670+141296772+140275556+139803595+140037241
4007+140443834+140586758+140551749+140655239+141088824+141804656+142537690
3997+142946699+142814154+142173155+141338631+140763922+140680159+140964161
3987+141484351+142223854+142849390+142747248+141897903+141174941+141407890
3977+142541336+143796940+144333527+143898213+143067599+142612540+142644093
3967+142826696+143223272+144191073+145561632+146662548+147134907+147128890
3957+146749787+145963927+145125160+145093001+146522782+148964948+150872835
3947+151144766+150504084+150332439+150613527+150191189+148777804+147434220
3937+147228597+148541506+151168999+154133699+155753919+155076698+153161418
3927+151902765+151967807+152510999+152823685+153546874+155514853+158039760
3917+159073174+157270496+153589421+150297783+148929025+149641509+152143007
3907+156550637+162724587+169077140+173237922+174182658+172259868+167959465
3897+162626680+158792846+158261905+160380871+162279374+162041340+161605266
3887+163435071+166446960+167993615+168635583+170236149+170944805+168292149
3878+164880218+164772720+168246544+173043375+177517657+180181281+179451342
3868+176975804+176118279+176843676+176037438+172553552+168951092+168074347
3858+171397837+179639247+191245789+198051300+192351628+180615545+171319765
3848+167008920+167443546+171325538+176872975+182726385+188261389+192335666
3838+192874822+189648425+185204547+181406635+178208054+175642355+174547881
3828+174923184+175981554+178582669+184579934+192161587+195473241+193524898
3818+190846090+188095690+182879814+176550897+173101287+174610443+180367991
3808+186913987+190620308+192717050+196622568+201055190+201530101+198657779
3798+196190675+194322846+191889005+189923867+190085386+192437029+196241166
3788+201174180+206886051+212547158+218113091+224975536+233898077+243332158
3778+251475896+259061802+268126154+279929613+294272638+308479788+318513868
3768+323484091+325573250+326171983+326553946+328950253+333778049+338463491
3758+341516371+345787456+355311517+371516036+391396419+407629423+416598583
3748+423702664+433880764+445146261+451536583+453814099+458846757+470413503
3738+487874449+506987033+522105458+531380318+537811323+544422722+551785596
3728+559297447+565824115+569918787+571533542+572192141+572748707+572617936
3718+571234755+569421906+569211579+571594168+573397063+569262794+559694721
3708+550297269+545320930+545610415+548920277+551756713+552627594+552867854
3698+554142777+557295590+562470494+569174515+576561712+582609741+583613456
3688+578816788+572731334+568997016+568303345+570812145+576486391+584258880
3678+592146397+596661000+595073102+591178659+590441119+591839212+589292624
3668+581189894+572552930+567218734+565038871+563953681+563166192+563481738
3658+564486105+564708413+565781912+571708652+583220599+595053122+597864547
3648+588653100+575252694+564921346+559531953+557819328+557737129+558298292
3638+559876165+562677925+565676079+568133229+571481023+577338849+583254369
3628+584175922+580946919+578493315+579318664+583630794+590108490+595772275
3618+598731917+600595402+603177316+606046869+608788040+612348804+615776443
3608+615239169+609874243+604294683+602942195+606174781+611447411+616270863
3598+619656155+621483626+622147944+622809439+624751647+628302132+632351524
3588+634842372+634540943+632366075+630320784+629369731+628591545+626768707
3578+624811875+625053946+627741186+630309636+631060169+631575510+633744731
3568+635693383+633562817+627818353+622584525+619734553+617803782+615271310
3558+612979026+612528040+613423859+613641462+613020723+613791960+617010611
3548+620851305+622910929+622515610+620408354+617440966+614204652+611557515
3538+610668790+611783225+613456869+614130091+613843790+613303548+612308990
3528+610196811+606952461+603401940+600885177+600237400+600645821+600447836
3518+599310815+598319189+597900199+597409688+596718658+596467974+596732050
3508+597003402+597311166+597805296+597780611+596713229+595348218+594186621
3498+592260446+588948883+585739787+584606314+585515670+586631517+586267506
3488+584069329+581104077+579001634+578385998+578483181+578394866+577995711
3478+577523659+577043174+576446142+575640846+574760554+574055481+573263360
3468+571705141+569493789+567578943+566258234+564900933+563202459+561639318
3458+560861494+561545176+564013836+567034937+568123384+566214801+562962452
3448+560305289+558395584+556938855+556543355+557317814+557773759+556625915
3438+554545407+552981831+552372204+552328553+552684419+553478857+554166159
3428+553750028+552056658+550092443+548495786+546532150+543722825+541515454
3418+541656613+543536458+544639022+543505439+541183729+539695656+539945037
3408+541093604+541450014+540082794+537782910+536091856+535569060+535694583
3398+535887682+535620891+534154100+531316868+528252841+526548576+526753837
3388+528106650+529355115+529668199+529092377+528118703+526777291+524773732
3378+522658766+521886588+523182214+525554127+527386918+527959772+527546356
3368+526623029+525567012+524887963+525077370+526120140+527391262+528008888
3358+527361365+525755007+524461155+524408636+524878045+524406646+523001965
3348+522142195+522474499+523016334+522851684+522193990+521593411+521323471
3338+521455835+521555407+520875923+519617252+519067273+519906520+521218542
3328+521540458+520376400+518510635+517092996+516599952+516753852+517039392
3318+516890813+515902986+514410063+513301021+512899151+512697980+512271860
3308+511696074+511205527+511097269+511679208+512847392+513948653+514258479
3298+513543561+512337481+511670340+512049769+512781663+512753395+511740341
3288+510438815+509377984+508417629+507442109+507115850+508376585+511056405
3278+513502191+514168898+513326176+512395972+512068663+511968331+511696871
3268+511285228+510954336+511012320+511654849+512588093+513104085+512707753
3258+511550282+510289765+509710649+510101661+510885023+511164374+510484927
3248+508898150+506645464+504249844+502569975+502095643+502333660+502244367
3238+501229540+499518471+497793937+496632268+496091772+495894511+496007040
3228+496563317+497204325+497232376+496473626+495253321+493751096+492236238
3218+491443212+491667221+491936076+491006306+488876464+486709052+485606778
3208+485747793+486365455+486406211+485323120+483323760+481161234+479818229
3198+479799480+480416130+480337334+479120033+477592544+476581951+476007867
3188+475436207+474767691+474024251+473088075+472009436+471133452+470646488
3178+470266950+469464043+467890659+465784235+463917311+462852680+462420044
3168+462172400+461931271+461630565+461108022+460232834+458903076+457041727
3158+454977216+453554800+453335279+453770882+453664868+452486839+450708375
3148+448890532+447173490+445672821+444614777+444004353+443609180+443167206
3138+442526234+441751232+440911334+439801893+438354539+437083308+436452036
3128+436204211+435928624+435750040+435867166+435915631+435396236+434456875
3118+433683213+433199977+432557231+431603826+430806746+430444256+430096678
3108+429269412+428118130+427260098+427050350+427199979+427163676+426787721
3098+426322474+425898562+425363423+424641555+423868726+423138172+422441894
3088+421864624+421508070+421151154+420379302+419226536+418280732+417901737
3078+417711679+417156741+416287887+415647494+415483568+415400972+414878537
3068+413851404+412590778+411289469+410031775+408954439+408152147+407505710
3058+406852142+406380126+406548577+407324157+407831209+407226757+405679035
3048+404044518+402868443+402106146+401553814+401124726+400686878+399980611
3038+399012294+398312505+398340809+398739168+398666996+397852362+396821391
3028+396069699+395464560+394557484+393186537+391629621+390306017+389415373
3018+388812297+388262354+387816725+387674914+387624133+387039661+385652389
3008+384017691+383027874+383045284+383573510+383816557+383465251+382743348
2998+381937183+381263816+380885509+380646733+380131175+379231012+378256144
2988+377369952+376386108+375260018+374383418+374095489+374081518+373660754
2978+372669308+371591394+370814184+370291822+369916121+369675680+369453082
2968+369065183+368471300+367722070+366806561+365749096+364749361+364005669
2958+363450876+362862603+362190902+361581600+361182589+361054677+361055727
2948+360834251+360246304+359601025+359157531+358708391+357968426+357040900
2938+356262967+355754395+355233191+354348412+353244581+352506028+352356906
2928+352291936+351723064+350680258+349670281+349023698+348610318+348193500
2918+347777948+347416255+346981773+346470270+346201705+346307321+346310361
2908+345677098+344605916+343807316+343590364+343603431+343432483+343018741
2898+342467858+341842956+341196446+340534807+339811419+339100844+338589051
2888+338272709+337886801+337225198+336375237+335616089+335162027+334963969
2878+334761025+334371606+333836866+333228143+332521550+331779232+331198995
2868+330834333+330510788+330139177+329854723+329746284+329712369+329662601
2858+329602663+329456147+329050295+328339829+327473219+326622245+325877322
2848+325277177+324790322+324287324+323672520+323036616+322567206+322316413
2838+322145284+321888845+321505688+321073740+320699885+320433781+320224829
2828+319958038+319554539+319045026+318518936+317993714+317401822+316744417
2818+316157230+315743163+315428052+315077144+314665501+314222080+313700550
2808+313054909+312400581+311939062+311694567+311447140+311011790+310491889
2798+310104352+309807447+309296341+308383004+307218873+306136361+305386805
2788+304971181+304642605+304184887+303707913+303478330+303444162+303185334
2778+302436121+301432007+300564601+299850787+299011612+298009326+297145937
2768+296587399+296182000+295817537+295563595+295382006+295029035+294358220
2758+293546138+292932456+292632800+292350192+291689113+290631612+289506572
2748+288566631+287862119+287426480+287260237+287174836+286925653+286483825
2738+285980845+285445000+284816533+284180284+283729950+283472551+283170144
2728+282628472+281901610+281163002+280478089+279785051+279077644+278506961
2718+278221729+278148978+278033209+277711709+277281752+276931767+276657846
2708+276289184+275791380+275328758+274975425+274610473+274166220+273729621
2698+273320421+272796032+272064338+271238049+270511368+269961733+269494821
2688+268955592+268314873+267751177+267473581+267459248+267473961+267338249
2678+267027662+266557764+265975428+265415007+264979801+264639281+264356510
2668+264175392+264093574+264000282+263811146+263553458+263284260+262988549
2658+262597338+262113469+261662918+261349091+261108704+260796706+260348217
2648+259778295+259122030+258477873+258020191+257855939+257906268+257995958
2638+258007957+257892423+257609942+257177940+256727587+256401020+256200610
2628+256004272+255708000+255308953+254871160+254459590+254108519+253823178
2618+253591116+253397040+253243230+253165122+253197371+253284166+253257654
2608+252996762+252603543+252322111+252273519+252363300+252428777+252373236
2598+252173206+251867216+251544829+251297855+251195894+251278273+251491261
2588+251676270+251702132+251551652+251254041+250868766+250538906+250368718
2578+250246362+249978992+249600576+249377490+249493838+249829887+250062782
2568+249974359+249662324+249426751+249477586+249816007+250330605+250863228
2558+251216670+251262782+251069701+250829368+250653046+250483546+250191418
2548+249734170+249228005+248843744+248621147+248434219+248144643+247737091
2538+247312183+246995624+246836440+246777225+246736198+246679282+246591220
2528+246461462+246335849+246278878+246260853+246196553+246093706+246019181
2518+245928278+245705137+245392469+245217070+245338865+245668545+245939462
2508+245917637+245587505+245159448+244862832+244762699+244801898+244907913
2498+244995359+244977026+244848662+244705313+244630625+244584893+244433870
2488+244116099+243727440+243361837+242959714+242446491+241933322+241609470
2478+241475079+241332418+241049447+240712384+240469300+240332629+240211974
2468+240053495+239862677+239651046+239406786+239078283+238612041+238061374
2458+237610750+237417651+237436726+237447910+237282645+236993069+236747253
2448+236601243+236459541+236223606+235898034+235574924+235348635+235212126
2438+235037577+234716584+234328722+234097474+234138881+234317610+234420819
2428+234405581+234377874+234399645+234429777+234412875+234363288+234369368
2418+234482495+234599621+234579931+234491526+234549926+234771184+234911402
2408+234829277+234690959+234704857+234851012+235004350+235161671+235391272
2398+235661357+235860356+235970188+236134621+236525035+237182748+238056977
2388+239167774+240637153+242588664+245105138+248244613+252031485+256475780
2378+261619303+267491697+273986006+280804946+287557106+293913369+299662574
2368+304650206+308724103+311691382+313336250+313624686+312811861+311161925
2358+308795370+305955822+303012287+300238631+298062496+297155330+297941606
2348+300472702+304658422+310033664+315264850+318673270+319563407+318601713
2338+317009037+315478145+313798276+311514498+308671258+305655768+302619230
2328+299455522+296154438+292851796+289671765+286675403+283857807+281134969
2318+278408150+275677059+273050228+270610505+268288704+265936518+263513825
2308+261110948+258811226+256631562+254581638+252699187+251009455+249482635
2298+248062626+246736958+245546677+244512703+243592054+242733479+241938028
2288+241227543+240584454+239981794+239451849+239034361+238681480+238326265
2278+238011426+237813459+237674543+237448109+237099228+236740177+236447506
2268+236156917+235821392+235559396+235495223+235545443+235535454+235434724
2258+235322176+235213773+235051186+234809786+234545347+234328830+234156363
2248+233964784+233731183+233494669+233296702+233166129+233145987+233274134
2238+233521507+233775377+233944515+234074074+234270340+234551681+234887170
2228+235300242+235799820+236299705+236712035+237045009+237378054+237813386
2218+238449346+239327230+240385636+241508143+242633961+243779434+244945030
2208+246103641+247296076+248606814+250035510+251496618+252930707+254353449
2198+255801889+257244809+258593859+259845852+261108614+262423513+263682384
2188+264746725+265567097+266231415+266902790+267630196+268302621+268836511
2178+269246326+269526256+269612399+269445849+269034098+268474763+267860774
2168+267188964+266468961+265795703+265178999+264452517+263459135+262256583
2158+261071514+260008656+258912807+257690855+256564964+255789565+255390735
2148+255259457+255283490+255686048+257378875+261287832+267215766+274115855
2138+281361331+288967868+296922562+305075277+313391411+321907123+330660815
2128+339712716+349114185+358881872+368889929+378785528+388184717+396776438
2118+404211375+410298856+415195965+419123671+422329256+425442979+429372096
2108+434839308+442162766+451151109+461067122+470819209+479254822+485521757
2098+489357455+491020675+491088721+490135280+488155574+484598466+479107510
2088+471615710+461980640+450143195+436127333+419938233+402170428+384138256
2078+367008563+351438754+337740936+325788862+315299597+306363628+299144121
2068+293410769+288784107+284877467+281232623+277742891+274746005+272394162
2058+270563325+269239829+268375934+267810011+267642158+268157245+269506240
2048+271860924+275472378+280519840+287333749+296429011+308042339+322134824
2038+338684822+357320613+377041268+396666985+414987411+430659398+442866826
2028+451833234+458342927+463177274+466786068+469187479+470335720+470176717
2018+468261401+464106646+457886113+450194012+441516292+432135165+422077341
2008+411197317+399508415+387276121+374886705+362786413+351340305+340672310
1998+330845734+322177787+315060531+309303218+303941731+298142052+292120283
1988+286678552+282218458+278620649+275624070+273008369+270688016+268713847
1978+267060129+265565794+264130836+262781370+261655136+261047644+261131851
1968+261477492+261271978+260249242+258971696+258033094+257478356+257126887
1958+256975322+257025325+257069283+256908253+256612578+256463112+256703065
1948+257387000+258510285+260068721+261585262+261944331+260590142+258464499
1938+256873958+256177463+256020849+256089691+256295332+256611203+256950691
1928+257320438+258117536+259716565+261626325+262973383+263863683+264879723
1918+265494255+264734745+263150864+262311599+262861071+264128701+265063791
1908+265162223+264721371+264364165+264394008+264690081+265080803+265623705
1898+266472236+267455846+268076477+268356099+269133905+270682949+271755199
1888+271156104+269502729+268113088+267376977+267041054+266957101+267051116
1878+267197759+267330558+267538478+268345458+270720483+274951518+279207583
1868+280382952+277732268+273786863+270992848+269812791+269573038+269625122
1858+269658928+269634225+269682472+269927511+270481851+271553305+273407777
1848+276396357+280632894+284715260+285636868+282556336+278562937+276467823
1838+276291211+276632111+276968215+278432943+282154176+286982262+289879088
1828+289809051+288734937+287704582+285842490+283175501+281223719+280794793
1818+281251281+281806237+282640380+284434824+287025460+289027119+289293729
1808+288372284+287826504+288836734+291671251+295460422+298345268+298985027
1798+298238891+298490028+301439156+306423747+309902820+308585911+304199220
1788+301046117+300931380+302785853+305022143+307082093+308721316+309554373
1778+310200014+312505292+317887772+325441248+331220350+331636806+327925183
1768+323360232+319915762+319075611+321574240+325634672+328110680+328586279
1758+328920211+329609612+330613038+333501594+339634065+347189531+351942874
1748+352239816+350508948+349552865+350474238+352936999+355541281+356855801
1738+357894878+361796162+369239823+374827418+372908013+366592324+360678433
1728+356455813+354353551+354522942+356180552+359200277+365246822+375425428
1718+386577309+391390338+387265335+379618513+373615113+371227999+372891870
1708+378052549+384571326+389807543+394190253+400775773+409723469+416001551
1698+416631411+413662322+407827951+400691692+396452205+396949086+400767050
1688+406873859+416540852+429027486+436116294+431958860+423800607+419148790
1678+419885823+424684084+430158463+433899802+437512360+442512878+445706265
1668+443645193+439915617+439984749+444183119+448305263+449264640+449327655
1658+452728945+462120859+478125221+495612264+501437008+496847952+495929185
1648+501460462+506210874+503614048+497811419+495366647+498042595+505659592
1638+517742800+530995857+537549635+534630314+530164356+530541288+536078537
1628+544181158+552921024+562399118+571984058+579194516+584184898+590998083
1618+601957445+613190114+618394190+618704234+619284508+621643317+624245283
1608+625675988+626279716+627462776+630148280+634142801+638820389+644054579
1598+650189367+657281432+664692517+671633795+678005079+684191190+690214860
1588+695764885+700741442+705216484+709246042+713053726+717296326+723047739
1578+730797896+738500639+742942961+746169141+753546710+766415452+780634763
1568+791338193+799495613+808823354+820918904+836880702+859047577+885639907
1558+902518011+902819368+897715913+893249629+890012664+888408224+888008634
1548+888165430+889771390+893892158+900077546+906611126+908394512+897995119
1538+880371187+867731847+862575621+859995372+855060946+849098011+846669925
1528+848828505+852887815+856527556+859889900+862294388+861487535+858461295
1518+856220045+854361664+850984190+846968386+845336077+848586290+857522983
1508+869199254+873713893+864439069+851245878+843365999+841738105+844262976
1498+847416549+847312526+843851153+841396716+843212823+848231944+851681373
1488+849386990+842664183+836100488+832693118+832439393+833712723+835685045
1478+839006707+844113347+849972258+853993636+852799210+846124832+838810242
1468+835499149+836938468+840104131+841186932+840895275+843513094+850982453
1458+859146461+859168901+850375685+841489375+836516655+834462533+833693323
1448+832885312+831102432+828557582+826224615+824697343+824473370+826243654
1438+829313255+830455198+827597046+823642050+821835571+821747691+820944530
1428+818583983+816331730+815675665+816608765+819045321+823190846+827079751
1418+826359259+820294762+813082096+807913346+805077780+803601831+802871639
1408+802969292+803559266+803365914+802011218+801237810+802620810+805567639
1398+808312936+809489192+808188136+804502935+800611207+799006695+799900270
1388+801138926+800429220+798348168+798036749+801520128+807824162+814574115
1378+820634486+826436716+831994270+836043735+837899293+838653446+839379440
1368+839998297+840710392+842740699+846578569+850500629+852024064+850692388
1358+848104466+845719017+843722299+841713999+839813415+838632236+838461108
1348+838954080+839591034+840450007+842449548+846315434+851188401+854829951
1338+855766453+854890034+854454829+856025969+859453464+863342152+866449034
1328+868560851+870262799+872485010+876033830+880839692+885805607+889874689
1318+893124179+896453369+900418355+904757522+908850204+912418207+915789672
1308+919407624+923104769+926227360+928629531+930886126+933253261+935221457
1298+936358840+936719050+936163244+934346486+931705720+929506094+928528547
1288+928226104+927348600+925014764+921246170+917145019+914417241+913883079
1278+914561296+914831526+914155843+913113580+912412560+912525488+913725994
1268+915811606+918066030+919858827+921163357+922434298+924122058+926374672
1258+928938054+931183213+932570194+933060633+932914551+932559191+932474206
1248+932527774+931939537+930420518+928385940+925811989+922399696+918778632
1238+915915051+913744091+911664054+909650831+907914932+906109178+903691081
1228+901023096+899395854+899381666+899844162+899525214+898667399+897992875
1218+897485859+897213096+897766441+899083277+900331560+901327060+902748137
1208+904857999+907182351+909537324+912194451+914871702+916782710+917967219
1198+919331904+921172333+923116062+925323216+928035937+930335532+931107349
1188+931004121+931837686+934273300+937256469+939677389+941815338+944471813
1178+947357980+949662498+951518056+953522013+955684068+957806743+959890401
1168+961746393+963398682+965650138+968962679+972414786+974906141+976399245
1158+977083832+976946582+976804771+977846817+980020020+982367754+984395382
1148+985994827+987114184+988217327+989771311+991352513+992724366+994840815
1138+998129757+1001194291+1002455243+1001783686+1000318958+999662965+1000669902
1128+1002393567+1003095382+1002992734+1004668694+1009749781+1016505453
1120+1021719374+1023763145+1023171651+1021676013+1020999968+1021860244
1111+1024092155+1027117961+1029412271+1029248020+1027107609+1024710361
1103+1022322161+1020229382+1020812407+1025435196+1031585909+1035925221
1094+1038248415+1040385930+1042803955+1044376615+1044782285+1045627866
1085+1048668946+1052958600+1055456976+1055371267+1055337678+1057409971
1077+1060043353+1060012588+1056864154+1054034451+1054574476+1057404035
1068+1059609451+1060688560+1062222637+1064449771+1065416025+1064179541
1060+1062090527+1060425135+1059754881+1060610525+1062355689+1063520218
1051+1064680476+1067742042+1071772034+1073741823+1073377994+1072774990
1043+1072365917+1071405164+1070519263+1070637185+1071297232+1071736925
1034+1072011860+1072646498+1073490270+1073193618+1070721157+1066870256
1025+1063142562+1060536253+1059920364+1061625497+1064371880+1066120881
1017+1066182556+1065532137+1065259953+1065524102+1065766824+1065737723
1008+1065655417+1065137398+1063417352+1060806338+1058089056+1055272673
1000+1053117639+1053675906+1057196567+1060407472+1059784054+1055838613
991+1051818828+1049244587+1047311138+1045768012+1046275969+1049867716
983+1054354485+1056143228+1054206593+1050310305+1045929803+1040955490
974+1035377088+1030759728+1028897293+1029366594+1029439852+1026747182
965+1021613685+1016089792+1011397799+1007440341+1004220025+1002327548
957+1001564780+1000198285+996834638+992460578+989209424+987604912+986193608
947+983826618+981152987+979051739+977160710+975022760+972929185+971136606
937+969595580+968454505+967854324+967417961+966558336+965114818+963665944
927+963232476+964143714+965330829+965424500+964198151+962458995+961407973
917+961931493+963247461+963078142+960596849+958023984+958052578+960976966
907+964826709+966992673+965615753+960952860+955595970+952316729+951890572
897+953359571+955713241+958242528+959729551+959047064+956694842+954191905
887+952167679+950233650+948161286+946241156+945139461+945545131+947435726
877+949999036+952302323+953519407+952787477+950003380+946497270+943789253
867+942294556+941591076+941126191+940755267+941172086+943148824+945869002
857+947355229+947161732+947004937+948343273+950407602+951046584+949265007
847+946482792+945133960+946027390+947239044+946284372+943203044+940475772
837+939778444+940177238+939919242+938664371+937485726+937440700+938395517
827+939157343+939059545+938895655+939473613+940548958+942246852+945689186
817+950826375+955582723+958521010+960462132+962562005+964717980+966041982
807+965250983+961541676+956324570+952544683+951299947+950830067+949623335
797+948480668+948574702+949621525+950946035+952561622+954458298+956196875
787+957564745+958528828+958497918+957022983+955251251+954960391+956402461
777+958252083+959456933+960388006+961939456+964489301+967891243+971195820
767+972244888+969234935+963197005+957668986+955814441+958205247+962482883
757+965014993+963989235+961029376+959299413+960365999+962760135+963447690
747+961418180+959268286+960015707+963106880+965257715+965473074+966158964
737+969036082+973330730+977361518+979335433+977263575+970825042+962949795
727+957479760+955930409+957372479+960265523+963338237+965403725+965760170
717+965002325+964451948+964598030+964834309+964442972+963113685+961016346
707+959015430+958231669+959017239+960316195+960679952+959322071+956137805
697+952186210+949211150+948323727+948689439+947380348+942302736+935452235
687+931142530+931048713+932248496+930732444+926123770+921625636+919792663
677+919602930+918697556+916498292+913755022+910849238+907455621+904037465
667+903141501+905767789+909577645+912024770+911595718+908696159+905516019
657+903940535+904012128+904455514+904275988+902498393+897559407+890096563
647+883801433+880852432+879878577+879262471+879716280+882071326+885425635
637+888485536+890114226+889133711+885499762+880719236+876534692+874353164
627+874687603+875513060+872931725+866107284+859289140+856297213+856031037
617+855631881+854927894+854635441+851957900+844722287+838336164+840219592
607+850068464+859691408+861738437+856333263+848067620+841109765
##END=
