##TITLE=<SNM>
##JCAMP-DX=4.24
##DATA TYPE=INFRARED SPECTRUM
##DATE=2/5/2025
##SAMPLING PROCEDURE=Instrument type and / or accessory
##ORIGIN=Admin
##XUNITS=1/CM
##YUNITS=ABSORBANCE
##RESOLUTION=4
##FIRSTX=4497.3318
##LASTX=599.83466
##DELTAX=-1.4281778
##MAXY=1.7656215
##MINY=0.19860527
##XFACTOR=1
##YFACTOR=1.6443632e-09
##NPOINTS=2730
##FIRSTY=0.2176872
##XYDATA=(X++(Y..Y))
4497+132383894+131723513+131688570+132139729+132593842+132664652+132283470
4487+131716073+131439375+131915400+133242198+134955535+136325641+136773909
4477+135981159+134118300+132167748+131352462+131926455+132963334+133409319
4467+132962890+132077165+131545119+131928947+133069767+134206654+134670998
4457+134414155+133822952+133144737+132356192+131592350+131239703+131383843
4447+131583025+131469361+131132111+130681586+130005328+129241948+128956143
4437+129469621+130358436+130938855+131045741+131038066+131168014+131279658
4427+131047680+130320023+129329459+128641067+128718221+129416554+130036800
4417+130016918+129532520+129286279+129696406+130396660+130615343+130031155
4407+129118334+128554607+128414826+128205866+127676476+127201393+127192150
4397+127457312+127455753+127020054+126482516+126124079+125842180+125476792
4387+125212627+125340428+125746322+126056994+126189842+126239683+125897857
4377+124783461+123463450+123204233+124402161+126032789+126907622+126823437
4367+126291372+125774931+125382176+124848508+123780936+122252500+121053557
4357+121013874+122079127+123298921+123846944+123863273+124026026+124460611
4347+124565222+123985864+123254735+123136794+123642551+124134407+124267482
4337+124262290+124212576+123783428+122836553+121770820+121018723+120779441
4327+121282245+122558341+123951582+124593858+124309494+123490845+122442511
4317+121476597+121180524+121838160+122848089+123301259+123028893+122691697
4307+122897567+123574876+124264437+124716285+125014569+125298725+125562500
4297+125659056+125471246+125150969+125082488+125459203+126000085+126226806
4287+125932546+125304851+124698052+124362533+124286811+124229132+123985338
4277+123633543+123413492+123434642+123727009+124413634+125439756+126315831
4267+126555964+126227694+125767582+125449353+125287524+125305512+125608617
4257+126150830+126653035+126935017+127153265+127522332+128021329+128508971
4247+128815193+128641783+127842310+126867487+126449658+126773288+127324609
4237+127583799+127559431+127568539+127758097+127982960+128042334+127917796
4227+127798114+127907429+128256387+128589496+128672277+128548255+128415624
4217+128352861+128307587+128312091+128561086+129162302+129836794+130028581
4207+129488742+128695901+128439529+128968576+129781570+130311514+130592833
4197+131069737+131825714+132294253+131940900+131079225+130618542+130960722
4187+131553954+131670790+131228575+130620889+130168887+130057045+130467706
4177+131405247+132501428+133251668+133476088+133459803+133552299+133749569
4167+133917242+134175617+134575286+134695194+134216224+133571483+133412455
4157+133787611+134286526+134627012+134777857+134761446+134602037+134428165
4147+134433693+134589776+134559038+134147045+133629833+133384961+133484334
4137+133831027+134356521+134947687+135401610+135530915+135304402+134911738
4127+134582119+134319612+134004246+133672497+133425649+133179326+132806463
4117+132465606+132552003+133262669+134302412+135116620+135398303+135270610
4107+134997727+134707962+134514471+134687881+135341375+136043732+136210499
4097+135816648+135293184+134896995+134633382+134522563+134573029+134814494
4087+135449983+136558732+137741926+138463258+138574059+138267003+137786221
4077+137373222+137238162+137422718+137793135+138175604+138411324+138337750
4067+137881217+137188485+136516449+136028263+135841786+136045499+136428983
4057+136549598+136306937+136054670+135992278+135855696+135357587+134694115
4047+134461241+135017754+135938486+136337276+135854899+135051012+134734568
4037+135117046+135679024+135864332+135798905+136004131+136523128+136925833
4027+137073978+137181153+137255797+137168612+137074503+137230251+137652811
4017+138230656+138777201+138869361+138145410+136886341+135897481+135750097
4007+136372382+137315733+138246487+139167980+140130189+140791295+140642742
3997+139759255+138813757+138205255+137764681+137425047+137453339+137908440
3987+138535627+139209547+139920096+140438486+140489523+140170514+139912049
3977+140081915+140721554+141528223+141992866+141705575+140743176+139753646
3967+139468375+140037213+140943156+141611983+141983832+142370080+142861392
3957+143164995+143054385+142764937+142900196+143965357+145710284+146944351
3947+146763293+145897277+145759191+146506867+147049135+146691984+145826168
3937+145264281+145741502+147508150+149746356+150912205+150416542+149465399
3927+149501610+150442895+150972920+150507099+150130402+151043476+152855842
3917+153814525+152665015+150066950+147829107+147111055+147745664+149293040
3907+152254037+157346607+163615403+168372191+169754576+167890185+163619245
3897+158477069+154891069+154531146+156657246+158237036+157213596+155753695
3887+156982643+160420933+163025686+164046825+164918060+164915758+162719754
3878+160524004+161295576+164877789+169284115+173240025+175410238+174299133
3868+171537173+170398120+171016599+170625213+168037225+165448058+165295600
3858+168540417+175480994+184861795+190262110+185587749+175994173+168328893
3848+164748456+165189593+168636565+173461680+178455620+183274465+186956740
3838+187399073+184365381+180585110+178012436+176270400+174684484+173621117
3828+173353698+173710975+175701472+180909582+187642549+190648911+188969584
3818+186837756+185089867+181107496+175386895+171513847+171855574+176246893
3808+181756296+185006188+186998769+190823643+195278469+196142962+193780436
3798+191603462+189884951+187695163+186186709+186915200+189662117+193361211
3788+197515542+201884460+205954605+209927080+215119912+221990640+228870664
3778+234454846+240304707+248861975+261094521+276312804+292014053+304739698
3768+313332760+319206472+323488069+327248132+332247147+338852558+345052935
3758+349430516+353973750+362123755+375682774+392920806+408328393+418581752
3748+427483066+439428258+453281864+463687899+470358048+478619697+491281074
3738+507004960+522146959+533085294+538495106+540523753+543020143+548250963
3728+555510974+561793235+564572322+564569713+563322605+559998423+554194053
3718+548799248+547166971+549790446+554337595+557290925+556447691+552643877
3708+547993313+544555313+544435078+548070666+552643768+554767168+554737119
3698+555051206+557056728+560848797+566425494+573801680+581801002+586958239
3688+585959103+580310889+574433081+571841685+574291316+581139007+589764838
3678+596767344+598099960+592952148+587895790+587837068+589102372+584792429
3668+575055058+565760129+560129169+557953137+557413515+556851674+556340506
3658+556793786+557945670+559493707+563493042+572470695+585144940+593342320
3648+589585810+578332662+567957872+562020582+560191261+560554864+561289318
3638+562001806+563486554+566578388+572247698+581497209+592383999+597494114
3628+592260358+584230152+581280845+584113036+590385800+597025900+600308687
3618+599216793+597442896+598117251+600899890+604880884+610377328+616277609
3608+619216078+618215492+616789864+618265442+621977802+624586488+624457736
3598+623168327+622591696+623148318+625007253+629312411+636943238+645642869
3588+649623682+646150484+640222654+637031465+636329054+635712768+634989696
3578+635539939+637127740+637909534+637154128+636263663+636997537+639577878
3568+642484956+643864477+643567317+642940881+642648651+642227379+641624722
3558+641619502+642311184+642647999+641863522+640568169+640123335+640899184
3548+641284282+639255199+635378708+632340340+631224921+630429426+628059106
3538+624327968+621315989+620782130+622732410+626143696+630090363+633482510
3528+635056320+634720592+633528762+631805539+628916875+625082939+621922778
3518+620807286+621427560+622070017+621384570+619973151+619609730+620888554
3508+622416546+622352968+620092769+616552658+613192191+610747853+609200867
3498+608671286+609398925+610830063+611797084+611864360+611709001+612214442
3488+613624628+615207862+615359596+612838485+608527889+604819262+602826862
3478+601688172+600603455+599767217+599458748+599919313+601571382+603591366
3468+603687930+601274439+598861673+598591155+599458820+599071729+596483958
3458+592402776+588377922+586323974+586953019+588600992+589379052+589840596
3448+591237262+592393460+591221386+588134989+585227693+583476777+582543467
3438+582005875+581581159+581076879+580841739+581348194+582253267+582615310
3428+582003156+580858920+579642188+578174585+576150432+573995352+572676800
3418+572784094+574164231+576029799+577069714+576219557+573915824+571715072
3408+570232607+568707261+566890482+565644643+565393228+565623402+565943760
3398+566328785+566632687+566678867+566331322+565444120+564270088+563364145
3388+562786717+562222700+561812918+561857177+561941235+561278552+559861587
3378+558728660+558963510+560548158+562354026+563313543+563267327+562696532
3368+562077636+561335932+559820083+557439831+555671588+556255723+558884707
3358+561181372+561207253+559261141+556796214+554658134+553081389+552293542
3348+552345050+552990117+554075196+555516991+556937545+557748301+557497719
3338+556326696+555261698+555170860+555314402+554370109+552789340+552178890
3328+552697415+552988993+552345485+551461255+551126687+551203242+551127448
3318+550960128+551334496+552349400+553274844+553491932+553039668+552154096
3308+550970350+549907490+549665064+550300308+550725640+549904771+548342779
3298+547478412+547835381+548589808+548811754+548517675+548376997+548736177
3288+549361307+550227124+551790711+553878189+555122614+554457720+552635830
3278+551451866+551864476+553199883+553936512+553253602+551767368+550625560
3268+550320788+550710344+551606028+552785063+553685967+553783945+553229498
3258+552570801+551949404+550918805+548979799+546284045+543991296+543535407
3248+545007178+546830808+547441440+546580082+544906772+543209031+541925893
3238+540844873+539675988+538925368+539060645+539206542+538289580+536879973
3228+536185791+536100898+535674696+534554746+533059667+531692869+530934926
3218+530723130+530312550+529399503+528804676+529324687+530604744+531700263
3208+532069520+531510578+529887508+527600993+525763879+525174815+525327745
3198+525023843+523861410+522485876+521508018+520951106+520638033+520358453
3188+519751773+518658030+517422413+516414795+515648950+515173777+515146301
3178+515164860+514283530+512236178+510071420+508939617+508678197+508139953
3168+506654334+504651459+502978149+502143324+502110846+502257324+501702043
3158+500198192+498496572+497451438+497005915+496493951+495618746+494552950
3148+493426367+492315225+491442232+490892062+490445669+490016893+489780738
3138+489624510+489037875+487808493+486362602+485204193+484345300+483481259
3128+482574592+482020362+482111997+482532508+482689062+482417349+481962945
3118+481409731+480572405+479378328+477949075+476374432+474784383+473531295
3108+472913885+472760448+472567500+472054629+471388140+470855297+470511196
3098+470291062+470313790+470634873+470745429+469972661+468479213+467164576
3088+466518820+466258488+466008632+465686316+465385205+465286067+465361789
3078+465027946+463666839+461587263+459694762+458196638+456513251+454534590
3068+453077933+452813070+453387635+453941248+454064310+453913917+453674972
3058+453302380+452712736+451970742+451291204+450908317+450776303+450397476
3048+449276656+447617918+446173405+445287543+444526121+443460832+442390651
3038+441851464+441756929+441611974+441303541+441029870+440751088+440402311
3028+440278126+440572784+440926056+440862513+440270368+439248868+437919151
3018+436423166+434867335+433390235+432283008+431748606+431597923+431426435
3008+431010164+430422768+429848747+429279909+428385239+426855181+424908743
2998+423201034+422153942+421629472+421372801+421415465+421732670+421878169
2988+421414486+420434707+419325051+418361365+417708759+417366398+417013634
2978+416300421+415299799+414388926+413758322+413273870+412753930+412197272
2968+411715103+411345629+410989095+410472454+409678263+408701565+407822482
2958+407168860+406490735+405535822+404572607+404103778+404013484+403546104
2948+402421841+401390118+401164258+401313889+400851910+399595849+398276536
2938+397501665+397188991+396916806+396417347+395712072+395024450+394610826
2928+394489251+394300834+393668635+392721116+391926020+391374182+390697870
2918+389827812+389267493+389333645+389610905+389481065+388821572+387932339
2908+387107954+386482244+386037591+385636291+385165359+384664957+384254885
2898+383961024+383619932+382950579+381806560+380399454+379190407+378513043
2888+378285407+378080969+377544355+376755566+376108578+375847629+375812215
2878+375634565+375141666+374509685+373945342+373366971+372658905+371994265
2868+371496726+370895737+370039273+369410010+369502478+369919691+369715035
2858+368568298+367113527+366136538+365824009+365732375+365255896+364216235
2848+363074174+362412651+362279331+362248593+362002397+361610304+361288858
2838+361044548+360617983+359806502+358768255+357870794+357293511+356887607
2828+356342548+355449437+354315894+353329626+352842129+352905055+353266990
2818+353526814+353361887+352716856+351764625+350717170+349734745+348926562
2808+348319374+347853916+347445330+347010319+346435030+345596979+344515379
2798+343478835+342854285+342645570+342410249+341802118+341010175+340414731
2788+340015606+339526333+338881737+338289991+337824931+337273311+336447295
2778+335463673+334610688+334026300+333630220+333326064+333075628+332755450
2768+332178566+331354724+330530702+329872404+329258946+328487809+327586904
2758+326806778+326321238+326036910+325719958+325205855+324446861+323483067
2748+322453664+321553666+320901748+320453616+320053041+319574569+319011350
2738+318422213+317850476+317320387+316826764+316300010+315669696+314968264
2728+314291081+313678130+313126365+312679284+312359614+312000361+311347537
2718+310451055+309731535+309434702+309234469+308661390+307750771+306963576
2708+306577646+306409347+306107982+305570499+305018843+304707908+304630773
2698+304537797+304183982+303516804+302684535+301907254+301297148+300782628
2688+300239544+299669492+299176612+298801429+298492941+298224562+298002363
2678+297764087+297405143+296920147+296412514+295973407+295624467+295335318
2668+295037215+294678199+294295856+293963898+293682452+293394934+293043474
2658+292561305+291944892+291333790+290832754+290324704+289684168+289009523
2648+288413354+287834023+287266544+286877605+286728336+286671101+286577436
2638+286400674+286062681+285536325+284966708+284534725+284276441+284125015
2628+284043874+284049891+284112002+284050943+283621514+282765648+281732765
2618+280871625+280333090+280024820+279815507+279695219+279716786+279848420
2608+279932968+279781978+279338721+278782226+278396132+278271149+278233288
2598+278100965+277859808+277556776+277230582+276971645+276846064+276760447
2588+276555828+276191011+275773055+275508500+275576375+275879425+276028476
2578+275754297+275186348+274593151+274060580+273559290+273129717+272835402
2568+272634154+272450269+272350098+272477672+272798701+273102458+273274944
2558+273347385+273302129+273099069+272831850+272605754+272351856+271956246
2548+271475727+271108898+271018351+271174924+271326621+271205281+270797566
2538+270305809+269875076+269507015+269199162+269001829+268940570+268978576
2528+269060677+269152475+269222487+269219968+269125687+269011706+268962391
2518+268942926+268850729+268685475+268557883+268522741+268477576+268268208
2508+267898534+267575367+267458648+267450420+267360906+267169862+266967182
2498+266769359+266533241+266229230+265842501+265419036+265101432+265011954
2488+265122329+265273736+265278702+265029879+264582943+264113098+263755169
2478+263511674+263306076+263078185+262829489+262597321+262399499+262226596
2468+262079466+261962386+261834050+261636119+261391246+261180084+260982896
2458+260675224+260253462+259897726+259695698+259486149+259133639+258793525
2448+258712330+258866220+258988158+258916859+258745569+258603351+258460462
2438+258236976+257988932+257879789+257986358+258170823+258185286+257950636
2428+257661034+257514846+257452753+257308668+257097706+256982220+257033257
2418+257168008+257282860+257358346+257447733+257604106+257813963+257996308
2408+258082089+258091114+258091114+258081926+258003050+257880043+257844937
2398+257951723+258098998+258233115+258517770+259203054+260451611+262426594
2388+265463983+270037230+276597241+285466730+296762903+310386063+326182952
2378+344094505+363999654+385434028+407586146+429465317+449898053+467637538
2368+481927604+492846147+500841048+506040948+507946425+505588865+498150442
2358+485793764+469728133+451168360+431138228+412194372+398490905+393079644
2348+396732739+408452868+425082117+441258884+452575139+458265690+459699837
2338+458427030+455848031+453172721+450906396+448584322+445424778+441144594
2328+435902465+429776903+422690918+414747019+406446005+398416344+390820605
2318+383219755+375198938+366930439+358914442+351322328+343839973+336149953
2308+328397153+321108361+314698072+309113836+303983078+299028431+294261928
2298+289852213+285908247+282355014+278992645+275719445+272633610+269867500
2288+267449731+265381157+263700108+262411479+261442229+260690394+260087991
2278+259624634+259291317+258985204+258551390+257950527+257284346+256644517
2268+256073432+255665390+255518423+255554761+255551136+255375679+255073698
2258+254732623+254382995+254029052+253692382+253409268+253198795+253037293
2248+252876334+252688516+252503108+252401814+252430540+252500045+252470195
2238+252359730+252348674+252539845+252836027+253086826+253252496+253381068
2228+253505887+253651875+253907242+254363965+254965679+255527013+255946329
2218+256313429+256775806+257383810+258106193+258922495+259815244+260704512
2208+261507058+262274752+263164528+264243119+265415991+266567459+267678383
2198+268778777+269867826+270922276+271921757+272844663+273706583+274594946
2188+275571608+276563657+277449138+278191458+278797305+279246307+279573100
2178+279925030+280424634+280996807+281387686+281382176+281017631+280550614
2168+280165716+279769599+279189869+278494871+277868327+277236726+276368463
2158+275277747+274168236+273086382+271948127+270768350+269691444+268914254
2148+268501753+268232305+268005629+268388823+270136060+273200291+276853858
2138+280678043+284817077+289381680+294181150+299040085+304030581+309312184
2128+314892107+320685493+326754980+333267560+340189016+347216533+354047406
2118+360628386+367197404+374126871+381679475+390013401+399579139+411375714
2108+426563422+445819517+469084117+495582643+523753645+551468830+576899530
2098+599171447+618170690+634172669+647502819+658062545+665399765+669224639
2088+669432411+665834449+657947277+644921029+626410045+603479179+577757771
2078+550385346+522355130+494830645+468842091+445209465+424422877+406390619
2068+390781348+377448444+366152922+356420952+347996479+340874064+334898641
2058+329850039+325660004+322200944+319271247+316950405+315605755+315559285
2048+316941742+319792056+324329309+331155796+340973927+354201931+371185756
2038+392495691+418474604+448554889+481187024+514261310+545696758+573998542
2028+598378670+618673013+635372256+649171091+660473826+669713550+677255787
2018+682464749+684064004+681954089+677570418+672035153+664720770+654154084
2008+640107314+623830213+606286503+587446824+567276195+546236089+524809582
1998+503447631+482959399+464173874+447112913+431077839+415660175+401149541
1988+387935130+376141092+365800847+356852338+349000109+341873019+335267971
1978+329181266+323706535+318880277+314610678+310867580+307817141+305486694
1968+303394014+300878993+297852152+294869877+292428820+290535648+288972423
1958+287627591+286452381+285362444+284296286+283234876+282192551+281291176
1948+280792713+280993599+281927869+282933258+282823191+281158146+278955907
1938+277479768+276986181+276971047+276980743+276878724+276696053+276512276
1928+276502942+277002456+278139787+279390682+280155295+280711681+281538785
1918+282009445+281154231+279460532+278410051+278708933+279843019+280800688
1908+280963477+280546808+280201221+280230926+280428277+280589780+280887175
1898+281628625+282729726+283677354+284315153+285200543+286527487+287344496
1888+286799853+285483313+284479682+284073579+284011940+284152763+284454943
1878+284798428+285029617+285180970+285826961+287956812+291813422+295624902
1868+296465979+293671251+289753546+287205159+286470542+286632678+286793727
1858+286706316+286595343+286704521+287039452+287575902+288515102+290171810
1848+292854369+296586902+300104430+300834190+298088977+294529093+292600725
1838+292398172+292762771+293163129+294438890+297558435+301673763+304257058
1828+304296278+303347563+302390800+300834879+298732213+297289059+297101096
1818+297580782+298066086+298742852+300226151+302434552+304230850+304557697
1808+303727096+303065101+303750947+306161085+309536268+312175801+312855485
1798+312292483+312549698+315161320+319634813+322844814+321733093+317759276
1788+314843100+314630144+316150052+318107219+320146198+321920240+322787398
1778+323203668+324983909+329581225+336270006+341528266+342091992+339001935
1768+335179816+332355093+331729491+333837594+337124405+339038872+339433248
1758+339889065+340643673+341558750+344079644+349509029+356246129+360405679
1748+360354280+358270100+356828487+357187921+359119823+361342034+362522119
1738+363551160+367215601+374062350+379265404+377946308+372994560+368623902
1728+365747236+364501506+365033552+366862800+370037170+376061274+385894521
1718+396676519+401844195+399066195+393148189+388609993+387079101+388931801
1708+393886050+400321785+405922768+410795096+417483152+426203517+432546457
1698+433811109+431884136+427572635+422239451+419553376+421215848+425948260
1688+432664227+442432372+454681792+462082300+459285270+452785848+449456627
1678+451011660+456160922+461831392+466015990+470334922+476239372+480932781
1668+481239003+480086104+482272393+488245025+494366419+497683388+499841585
1658+504501574+514200522+529601585+545749389+550483541+545554666+544077602
1648+548264338+551249785+547253204+540333923+536489149+537321581+542643999
1638+551775632+561258833+563949729+558271248+551981013+550654740+554237840
1628+560066641+566074144+572013682+577156492+579855000+581255943+585097382
1618+592781602+600562169+603354776+602404394+602139386+604160784+607393005
1608+610099162+611568505+612381182+613269979+614312105+615415200+616985675
1598+619611252+623366603+627655014+631598999+634624173+636758229+638390253
1588+639832193+641145887+642340544+643678163+645736606+649251126+654863020
1578+662330803+669058841+671668179+672045012+675075115+681552318+687650585
1568+690434711+692544118+697592575+706432993+719741322+740209327+767429367
1558+787776522+792440679+793068710+796977389+803378398+810265564+816337515
1548+821150941+826054116+833047488+842484473+852319387+856789183+849077378
1538+834704377+825079121+822250338+821508054+817956634+812397300+809027409
1528+809309635+811660309+814840478+819404229+824575058+827073551+826051724
1518+823936661+821256639+817181365+813027868+811627251+815138943+824252090
1508+836161831+841072981+832255835+819682322+812681773+812054975+815386734
1498+818871168+818627510+814825762+812108695+813855117+818967732+822655009
1488+821036397+815773136+811062219+808978837+809079679+810215107+812164734
1478+815601973+821018491+827962928+834121222+835434627+830944822+825348008
1468+822877934+823645228+824871348+824413755+824278043+828349983+837670975
1458+847408599+848123770+839167794+830086473+825704542+825374541+826952628
1448+828138585+827798435+826899923+826878755+827934002+829956053+833506386
1438+838045415+840231378+837859463+834113682+832354139+831887049+830289243
1428+827379845+825432393+825693885+827096749+828510996+830070089+830865077
1418+828210646+822216700+816432049+812864463+810725259+808669570+806834124
1408+806478895+807890676+809525962+810037202+810239610+811435862+813297262
1398+814692225+815196070+814592398+812607610+810310366+809700025+811211270
1388+812723676+811806460+809364079+808733657+811336398+815804091+820555751
1378+825562667+831379724+837327997+841487947+843047257+843506807+844480062
1368+846166893+848552727+852079426+856208927+858799271+858092801+854579441
1358+850313865+847377354+846574391+846883150+846805797+846165660+845820581
1348+846158918+846749903+847274990+848174154+850087461+852752041+854834263
1338+855309690+854740381+854548050+855481505+857177180+858810508+859887940
1328+860593903+861616745+863593558+866616122+870228076+873768622+876584283
1318+878294385+879291926+880692543+883392718+887252390+891266043+894469774
1308+896719824+898589633+900582468+902698690+904710157+906395609+907465646
1298+907705897+907381769+907136298+907114332+906519432+904609170+901798076
1288+899061870+896717359+894459770+891953810+888993520+885848438+883487615
1278+882600920+882591568+882301585+881456213+880746190+880826805+881896624
1268+883871335+886331912+888518238+890086320+891782430+894465279+897588032
1258+899551434+899474153+897889832+896028867+894940634+894813911+894889814
1248+894418085+893535449+892831298+892419885+891751330+890119379+887420725
1238+884608182+883073592+883310798+884536556+885801534+886906586+887897022
1228+888397243+888181931+887886293+888429141+890061382+892255465+894149415
1218+895116726+895274621+895290716+895730185+896909835+898795593+900607334
1208+901545791+902255162+904364714+908414543+913178454+916991946+919260844
1198+920772235+922581583+924605011+925843746+926067975+926425016+928186155
1188+931588161+936028524+940727044+944872784+947496404+947934713+946955731
1178+946728529+948824815+952591910+956057061+958009515+958397512+957688214
1168+957231854+959147191+964087484+969675019+972820173+973267181+973119435
1158+973838810+975543112+978162890+981434476+984357214+986090441+986771684
1148+986839467+986482643+986321195+987484606+990108226+992765122+994420417
1138+996123414+999313080+1003178117+1005611725+1006550255+1008003069+1010552381
1128+1012268717+1011649241+1009835398+1008839887+1008939641+1009161406
1120+1009444357+1010561298+1011998526+1012036368+1010873465+1011509760
1111+1015951572+1022704911+1029121724+1033774282+1035827360+1034747247
1103+1031710909+1029141950+1027982816+1027135486+1026117792+1026186082
1094+1028427650+1032197355+1035326850+1035797057+1033864684+1032582887
1085+1035005984+1040314483+1044191699+1044215115+1042918601+1043990886
1077+1047765448+1051825208+1054278245+1054982976+1054826675+1054990298
1068+1056155812+1057721429+1057827708+1055249615+1051594816+1049957356
1060+1051410025+1054191540+1056467254+1058252968+1060074568+1061692600
1051+1062869495+1063923366+1064895606+1064931563+1063491581+1062041087
1043+1062680789+1065032115+1066479855+1065838702+1064376681+1063218635
1034+1062226313+1060879198+1059104068+1057646396+1057710990+1059592181
1025+1061564282+1061140182+1057984009+1054606796+1053570760+1054785643
1017+1056397803+1058072019+1061201369+1066110344+1071158293+1073741823
1008+1072072899+1067206407+1062451920+1059937116+1059143288+1058725205
1000+1057750138+1055669076+1053198712+1051996733+1052035808+1050865654
991+1046705125+1041068148+1037074359+1036081748+1036744286+1036984247
983+1036108789+1034727818+1033592317+1033399696+1034472995+1035589429
974+1034618204+1031427740+1028273814+1026383488+1024437413+1021334234
965+1018043001+1015645858+1014276921+1013919227+1013847239+1012007878
957+1006876341+999283429+991287659+984566074+980117664+978000789+977271410
947+976632505+975226016+973148723+971549250+971589123+972800454+973320248
937+972276600+970671690+969623619+969238667+969312902+970025535+971492341
927+973171270+974050208+973352291+971531851+970286520+970725481+972034972
917+972728321+972204322+970392364+967579747+965317736+965692394+968743811
907+971656616+971561502+968700096+965574226+963502298+961783787+959946528
897+958682275+958197497+957733162+957038870+956423671+955693422+954835798
887+954761417+955519867+955121286+952286123+949037155+948079559+948975751
877+949289585+948566151+948218026+948150605+946981684+945129129+944471303
867+945167479+945508426+944701694+943760047+943784841+944870609+946462832
857+947858375+948615665+948970894+949597185+950566742+950981273+950084936
847+948376429+947277032+947953634+950276687+952278511+951404285+947388748
837+942965711+940907848+941606344+943959773+947076219+950181355+951764227
827+950546951+947629143+945763466+946000020+946841550+947034679+947332201
817+948863818+951400806+953943375+955986740+957691477+959234910+960613706
807+961538969+960950231+957987477+953862470+950839399+949540711+949606464
797+951375722+955245254+960149081+963898922+965203048+964871960+964817951
787+965699281+966133820+964837089+962341787+959723096+957198216+954975134
777+954059151+955077643+957007624+958064829+957587155+956417872+955601353
767+955587361+956678784+958936880+961568620+963826064+966195079+969059602
757+970858221+969515166+965688624+962528608+961547886+961087538+959539175
747+957921578+958184230+960662568+964224138+967549227+969708584+970408313
737+969849806+967980286+964483890+959838220+955317169+952153964+951603286
727+954013914+957183934+958541271+958922164+961029252+964763144+966498909
717+963603502+958181910+955063507+957141307+962657143+966367256+964589589
707+958983640+953805489+950967426+949435664+948026855+946485451+944359587
697+941579231+939733272+940571830+943306151+944957169+943927585+941924456
687+941019056+940332160+937800102+933348212+928614532+925516137+925610817
677+928971138+933321896+935349529+932710902+924044619+908743311+891579007
667+884301017+889964310+899690408+905226761+903540946+897719177+893908657
657+895223874+899284070+901751171+901607122+900865419+900240796+898851343
647+896900410+895128470+893234012+891573425+891957217+894707632+896687925
637+894322970+888603783+883503854+880668547+878789023+875947263+871606800
627+867304034+865551305+867196450+869574092+868039068+860592018+851074998
617+845655145+846890762+852653447+858990733+863552091+865421755+864075002
607+861124427+859580268+859189371+857583518+856314191+858454264
##END=
