##TITLE=<SNM>
##JCAMP-DX=4.24
##DATA TYPE=INFRARED SPECTRUM
##DATE=3/5/2025
##SAMPLING PROCEDURE=Instrument type and / or accessory
##ORIGIN=Admin
##XUNITS=1/CM
##YUNITS=ABSORBANCE
##RESOLUTION=4
##FIRSTX=4497.3318
##LASTX=599.83466
##DELTAX=-1.4281778
##MAXY=1.7080727
##MINY=0.18091388
##XFACTOR=1
##YFACTOR=1.5907666e-09
##NPOINTS=2730
##FIRSTY=0.20012312
##XYDATA=(X++(Y..Y))
4497+125802938+126140891+127155686+128200298+128609301+128192176+127327838
4487+126568611+126183803+126221394+126832740+128077146+129361120+129683822
4477+128803260+127682437+127323820+127661351+127985881+127919570+127551501
4467+127039382+126532415+126301812+126551019+127062089+127320813+127102443
4457+126675735+126376638+126248990+126093062+125680742+124985605+124322027
4447+124115066+124363852+124466724+123835696+122688392+121937969+122187420
4437+123106257+123868866+123917726+123248752+122214388+121249727+120752071
4427+120891522+121308160+121337170+120816200+120221218+119830106+119391904
4417+118787996+118384219+118538414+119141835+119751046+120006492+119862741
4407+119423631+118726022+117878648+117210245+116993393+117117622+117253747
4397+117301651+117465878+117817077+118066883+117985969+117666975+117190546
4387+116567565+116063559+115873806+115640195+115036839+114431816+114232096
4377+114176754+113929598+113727480+113925570+114432378+114936590+115321389
4367+115637488+115884531+115981192+115905280+115786034+115791879+115894086
4357+115867014+115621133+115379288+115400702+115704155+116162627+116629455
4347+116886306+116759098+116349533+115877815+115362980+114799697+114513480
4337+114881754+115729568+116355565+116277376+115754382+115416664+115565463
4327+116012357+116376398+116328231+115768649+115040014+114765010+115203520
4317+115945109+116421314+116448807+116150375+115705148+115344929+115345247
4307+115874377+116852481+117875060+118418166+118393905+118288504+118507118
4297+118885397+119023086+118806730+118521805+118634513+119356243+120322038
4287+120899447+120801737+120166026+119264800+118426849+117939751+117820964
4277+117972864+118503848+119456773+120418446+120937178+121134950+121438150
4267+121924893+122341287+122519528+122437695+122067697+121450992+120799001
4257+120382907+120457423+121181205+122313447+123196136+123474878+123591051
4247+124075096+124714928+124994635+124948342+124998336+125292346+125629222
4237+125717930+125335886+124515171+123593074+122965897+122874257+123378536
4227+124365491+125552101+126478797+126613368+125880143+125057818+125034999
4217+125752177+126558756+127265583+128000419+128423998+127973029+126677908
4207+125270324+124629246+125166403+126490441+127672442+128012484+127573233
4197+126986701+126755872+126846126+127025884+127263382+127510407+127510116
4187+127174768+126824328+126868195+127426232+128164384+128486065+128233683
4177+128057269+128602388+129620453+130375250+130598219+130570389+130509492
4167+130333565+129957619+129466127+128979768+128631399+128651810+129184443
4157+130025756+130765669+131110881+131001921+130627070+130334193+130342642
4147+130578370+130803868+130808889+130591259+130410902+130483742+130728265
4137+131023803+131420704+131855561+132064124+132037511+132203397+132877935
4127+133756071+134195387+133919970+133239774+132643949+132392709+132440501
4117+132541912+132508283+132460772+132662197+133071510+133316136+133139694
4107+132686561+132335419+132424427+133126917+134326145+135494114+136012527
4097+135844853+135580846+135603252+135653742+135459314+135240251+135254536
4087+135330823+135228683+135070404+135065355+135151815+135202782+135259819
4077+135366916+135490620+135682331+135963152+136085836+135818437+135398230
4067+135326655+135761784+136362320+136683112+136602207+136371332+136285930
4057+136388062+136559024+136746501+136947242+137117886+137286347+137640065
4047+138301891+139061681+139513887+139510009+139347411+139422106+139736575
4037+139849020+139442798+138884330+138927635+139785369+140764316+141041213
4027+140633324+140330067+140707016+141521848+142203215+142548203+142648226
4017+142495699+142033995+141403361+140856574+140522574+140418148+140619376
4007+141207229+142024984+142756990+143324244+143870732+144295004+144219316
3997+143586903+142901724+142652947+142792735+142963660+143000670+143070766
3987+143446675+144166307+144883972+145185964+145042541+144761776+144632723
3977+144835009+145434899+146227849+146817773+146938526+146542637+145789844
3967+145149300+145142818+145810471+146716203+147440603+147809805+147823257
3957+147628277+147414834+147263899+147281978+147728872+148586278+149184923
3947+148981971+148546711+148794157+149451206+149386619+148441844+147645213
3937+147691778+148489945+149863451+151565721+152758888+152618425+151528073
3927+150720651+150876682+151639385+152406565+153156257+154188532+155347265
3917+155784932+154643004+152119917+149558855+148230677+148359899+149599500
3907+152019996+155849866+160317245+163652316+164697218+163551225+160729705
3897+157225030+154820224+154952405+157131582+158767859+158114772+157167365
3887+158463816+161052071+162194336+162017089+162390225+162603743+161048530
3878+159172863+159307321+161404037+164231833+167182995+169239545+168999517
3868+167546877+167180728+167572131+166514059+163681561+161155392+160802789
3858+163464259+169502541+177590084+181963669+178067834+170621144+164923813
3848+162355435+162636828+164957872+168274452+171915609+175650663+178520068
3838+178807681+176606875+174082749+172324322+170753298+169201645+168542881
3828+169102801+170395261+172844787+177421979+182482223+184003507+181988642
3818+180185852+179153296+176775468+173331230+171238898+171908171+175066369
3808+178812721+181164527+182954577+185807196+188071643+187119627+184642168
3798+183414361+182646206+180648165+178248435+177308953+178273034+180441054
3788+183140536+185871062+188165690+190333917+193473980+197574751+200696942
3778+201697967+202364674+205084034+210505087+217596963+224403811+229525917
3768+233551900+237634799+241899910+246846978+253988913+263504256+272968378
3758+280328402+287124534+296562109+310322498+327099152+342251969+352313367
3748+360010988+369513010+380491691+388323114+392211623+397092127+406680741
3738+421223185+437823996+452170440+461736946+466837582+469446258+472028705
3728+476313413+482147469+487564681+490768667+491717348+491612734+492072967
3718+494481108+499557239+507531270+518125292+529987083+541005443+549692399
3708+555611248+559741657+564241138+570065640+575440887+578201650+578973626
3698+580383402+584526552+591673938+600670989+610307937+619141098+624201828
3688+623380430+618854084+614460866+612512171+613451597+616497800+620971053
3678+625983111+628020945+623988517+618101966+615923886+617279182+619096922
3668+620477247+622099735+623226320+622759604+621736584+622928815+627705042
3658+634230854+639524568+643616047+649481990+658570877+667779965+670949479
3648+667343150+662900810+661061825+661578674+663656187+666275055+668154282
3638+669469598+671504397+673976535+675731140+677814274+682173208+687113962
3628+688516282+687143563+686303430+686574332+687669854+690697210+696256356
3618+702336996+706809387+709234614+709651795+709435523+711618999+717239744
3608+722764717+724175355+722392499+720634597+719574820+718339163+718269770
3598+721164186+724454875+723500011+719312311+717953606+721090372+724296530
3588+724025703+722495839+723042139+724161866+722292981+717498056+713947931
3578+714676331+718049677+720478351+721268575+723201757+728495171+735675756
3568+740696919+740804081+736467479+730049990+724622212+722783602+724776285
3558+728181480+730256595+729937658+728244203+727493322+728957466+730904437
3548+730351617+727096074+724272475+724604976+727944750+732303834+735849762
3538+737505748+736615482+733612256+730687715+729907683+730738898+730922796
3528+729843685+729271157+730339402+731972007+732738551+732323692+730872288
3518+728663782+726750758+726173284+726348640+725524544+723270775+721513473
3508+721920238+723559587+724439962+724011990+723280817+723448679+724750281
3498+726351412+727131295+726860693+726758702+727851527+729387461+729870738
3488+729019814+727980645+727643423+727515428+726979020+726799543+728003576
3478+730125378+732205889+734577236+737678931+740091118+739984181+737859757
3468+735997541+735569943+735395562+733195599+728016016+721573349+716889707
3458+715926900+718596801+723479179+728499892+731342076+731002756+728917748
3448+727344269+727137964+728071246+730126502+732854705+734634863+734082269
3438+731785186+730054487+730714993+733059886+734647228+734165450+732363335
3428+730124629+727796822+726291837+727127923+731043522+736877016+741985408
3418+744234230+743626481+741156141+736954352+731346947+726689834+725661980
3408+728097774+731205014+732888427+733219429+732612879+730799898+728028006
3398+725763896+725719308+728631259+733718743+738879891+741783149+741075208
3388+737252157+732586426+729224545+727260938+725664753+724769091+725945847
3378+729148633+732904839+736266944+738820990+739538224+737755592+734405477
3368+731034754+728603157+727583023+728094626+729286220+729579228+728564714
3358+728177733+730753211+735913010+740415676+741596478+739796536+736787315
3348+733774422+732030834+733293468+737098609+739258329+736685699+732230394
3338+730855727+733091060+735355095+735572491+735402156+736728489+738557207
3328+738462110+736356945+734982127+736146068+738611837+740550340+741759769
3318+742380632+741690376+739362194+736613758+734978755+734503646+734150088
3308+733583479+733472871+734045549+734431181+733926547+733026463+732746119
3298+733586252+734987148+735999864+736864726+738541020+740436059+740760917
3288+739789492+739896054+741537277+742847722+743334521+744374664+745832663
3278+745075862+740971418+736259825+734036931+734290522+735199148+735975359
3268+736663592+736432258+734236267+730792779+728248774+727929088+729549628
3258+732253925+735279707+737926751+739706835+740222710+738732488+735024168
3248+730859249+728994935+730780039+735087341+739120818+740497808+738974763
3238+735786065+732147962+729351641+728662284+730136319+732482037+734379699
3228+735242088+734927197+733973908+733521880+733858278+734118389+733916505
3218+733627843+733073525+731924121+730959366+731128277+732009551+732570914
3208+732665261+732551355+731838917+730169067+728392281+727896040+728769670
3198+729737648+729920272+729799921+730178435+730624617+729474015+725706344
3188+720568127+716498829+714617804+714220331+714489435+715648280+718216489
3178+721822668+725049885+726553146+726374643+725638300+724983564+724116229
3168+722600677+720254435+716921481+712657943+708276978+705089029+703949518
3158+704682114+706375869+707986892+708731553+708636756+708902787+710904913
3148+714337085+716951306+716804427+714414796+712074099+711249404+711226847
3138+710435724+708670329+707127949+706754607+707718912+709590421+711044822
3128+710415341+707584398+704369697+702388254+701562060+701059599+700557137
3118+699764066+698027746+695645908+694235121+694623001+695574043+695475948
3108+694132530+692375228+691048596+690552804+690535344+690097030+689003231
3098+688120908+688178460+688938110+689754562+690178787+689907886+688918401
3088+687749963+686821778+685730827+684096423+682615868+682387981+683431046
3078+684494645+684220896+682267855+679469210+676960802+675336215+674699315
3068+674836677+675003414+674420619+673350801+672803826+673246412+674377680
3058+675516442+675747251+674612237+672905967+671917906+671814267+671608636
3048+670628518+669048370+667044896+664601684+662310296+661181276+661213125
3038+661367198+661169661+661127621+661593362+662318989+663040045+663566037
3028+663401772+661974648+659339893+656402238+654449272+654178895+654866678
3018+654868327+653337338+651108749+649560600+649179239+649545912+650096408
3008+650410325+650150664+649349723+648308082+647017270+645403400+643884851
2998+642700227+641387833+639925937+639215447+639558515+639920167+639241826
2988+637442108+635045358+632807626+631575042+631595050+632129285+632242742
2978+631670063+630769380+630162905+630406080+631425765+632320153+632167054
2968+630844319+628782992+626479352+624485582+623201890+622360445+621216101
2958+619455276+617575450+616240050+615451662+614701268+613853341+613308952
2948+613271820+613402438+613336904+613051240+612661036+612350679+612310737
2938+612200953+611108652+608702834+605880547+603713894+602445077+601871725
2928+601947300+602492701+602740409+601745978+599391980+596654410+594633925
2918+593665310+593574523+594086576+594437362+593573511+591496672+589379966
2908+587972550+587069094+586541866+586510692+586536358+585905191+584512613
2898+582687492+580696007+578908467+577839323+577651153+577867462+577578463
2888+576101130+573844402+572200668+572140231+573190490+574064083+573929794
2878+572751202+570942230+569155515+568019825+567644122+567477160+566859106
2868+565670511+564298129+563075661+561973656+560744069+559254484+557735785
2858+556606690+555986351+555672023+555525631+555366499+554702134+553244473
2848+551451050+549959142+548811125+547658986+546357496+545073279+543996341
2838+543084418+542157356+541154270+540154931+539315285+538855951+538747703
2828+538336554+536918535+534810409+533165252+532611158+532616629+532239240
2818+531154059+529876773+529063956+528714106+528263465+527382528+526271419
2808+525128797+523798418+522184885+520703955+519920213+519798176+519695848
2798+519172292+518364420+517408208+516090906+514477897+513282782+512967441
2788+512899472+512076163+510394548+508573624+507098501+505835567+504545654
2778+503279610+502207618+501309820+500373017+499229197+497899342+496598976
2768+495631036+495075781+494615135+493914275+492999129+491989111+490823372
2758+489527577+488312865+487213183+486081391+484975489+484139366+483638441
2748+483252771+482654164+481620766+480197313+478654597+477225524+475923659
2738+474640753+473370887+472263374+471357745+470389318+469160631+467977730
2728+467252478+466825254+466214320+465332334+464388150+463308514+461877418
2718+460274376+458931108+457983738+457192053+456238014+454990742+453649534
2708+452582413+451895154+451322776+450629297+449896363+449304951+448792748
2698+448070155+446968226+445633500+444287759+442998034+441850729+441068299
2688+440697991+440420420+439870523+438971114+437902269+436935828+436244410
2678+435686757+434904364+433824054+432817521+432079229+431190461+429752021
2668+428131856+427018461+426531849+426320636+426189232+426083718+425762608
2658+424978454+423821407+422618049+421601511+420775541+420058420+419492036
2648+419150730+418825236+418119167+416972762+415778546+414914545+414412608
2638+414022705+413404389+412414342+411302558+410426605+409856287+409481034
2628+409271881+409187463+409042570+408623927+407810547+406663355+405531675
2618+404817813+404482464+404061311+403269139+402293368+401452410+400844811
2608+400399041+400089883+399963499+399931239+399694996+399043258+398103232
2598+397123939+396197290+395368135+394759449+394375203+394036033+393699073
2588+393554629+393617090+393530761+393020507+392288922+391727897+391433202
2578+391212097+390910283+390513784+390015482+389412829+388838577+388479398
2568+388296399+388006013+387446411+386817455+386464870+386520924+386770768
2558+386803853+386378054+385723019+385355709+385478195+385688547+385440426
2548+384708842+383998652+383727038+383831989+384022894+384158158+384212376
2538+384065272+383624110+383148852+383129780+383658020+384189744+384207542
2528+383846340+383553556+383449617+383352909+383123523+382726687+382221266
2518+381813489+381697448+381814613+381922000+381836720+381530223+381111505
2508+380782976+380700394+380824642+380941770+380849896+380527174+380079868
2498+379572985+379031706+378544607+378170703+377797960+377314196+376853551
2488+376655151+376729303+376832980+376746052+376488114+376281921+376302080
2478+376454542+376484817+376301106+376033651+375801342+375630596+375567572
2468+375646482+375780997+375853350+375828657+375682078+375371721+374952142
2458+374517125+374025980+373416657+372860390+372636849+372741388+372848438
2448+372719806+372453363+372242524+372087814+371879224+371606823+371345626
2438+371121822+370893635+370604561+370210236+369727221+369309441+369192387
2428+369424583+369698707+369651721+369314686+369017818+368890348+368759206
2418+368516819+368294027+368262740+368450461+368719452+368850256+368730580
2408+368484857+368330297+368315235+368288107+368126915+367921959+367847208
2398+367874073+367767848+367421184+367016217+366792714+366833068+367061592
2388+367238784+367009922+366181105+364850427+363119802+360878586+358019054
2378+354633756+350848699+346686515+342283705+338066854+334471991+331594062
2368+329336172+327724100+326746193+326171866+325965449+326556524+328385392
2358+331603766+336258481+342277036+349415655+357212232+364580087+369953535
2348+372270963+371732082+369739174+367730267+365801318+363070530+359076433
2338+354269781+349524727+345507287+342405630+340039117+338149436+336648385
2328+335622368+335096938+334920459+334994610+335489240+336627365+338295266
2318+340043351+341485950+342566635+343436855+344256905+345155040+346211107
2308+347405511+348632400+349744034+350593572+351122748+351383758+351423476
2298+351275472+351114018+351218932+351703932+352416857+353127010+353677019
2288+353956389+353894153+353579562+353296670+353278984+353440514+353504848
2278+353393115+353282694+353282994+353292736+353209067+353067996+352930634
2268+352771577+352514090+352122612+351677629+351364986+351335461+351571441
2258+351906190+352130293+352106838+351881461+351658444+351593473+351687258
2248+351914621+352271065+352649128+352887432+352976646+353037159+353129370
2238+353237956+353351525+353448907+353520435+353644346+353910452+354266558
2228+354548701+354647132+354610750+354631283+354869474+355244390+355527882
2218+355674686+355836178+356054660+356243355+356451721+356847470+357446226
2208+358072673+358545458+358800473+358923559+359091271+359404850+359832935
2198+360337419+360923399+361554080+362139422+362592462+362853659+362970076
2188+363174207+363720807+364573942+365366414+365780935+365916873+366153303
2178+366703313+367487054+368364319+369224236+369912656+370379447+370859763
2168+371658118+372816064+374174583+375648206+377263800+379038301+380994676
2158+383220605+385769930+388586747+391633437+394936753+398377281+401634473
2148+404463804+406863365+408984193+411072273+413378310+415916694+418462872
2138+420901625+423394409+426160118+429259340+432601212+436050508+439495420
2128+442854677+446101527+449257028+452206036+454562394+455956658+456402916
2118+456164837+455398930+454098227+452216077+449737382+446759410+443538114
2108+440378754+437452115+434686669+431840888+428768532+425601865+422569301
2098+419694032+416770279+413586564+410120295+406526031+402967400+399513982
2088+396234009+393309057+390941270+389137468+387672313+386305476+384971500
2078+383736218+382667224+381773585+380982836+380189128+379400927+378754322
2068+378297049+377887511+377406707+376914026+376449708+375855223+375044990
2058+374325096+374084469+374219808+374266457+374066859+373887457+373889967
2048+373904543+373778309+373660356+373829941+374361891+375086469+375872684
2038+376800045+377999506+379479725+381153958+382903654+384594074+386088455
2028+387227329+387863555+387997133+387752946+387200127+386358907+385307449
2018+384069281+382546311+380775032+379061906+377684503+376613486+375611299
2008+374483928+373205294+371896272+370734017+369839929+369185380+368585874
1998+367893145+367261228+367041434+367257031+367372998+366846033+365771156
1988+364703210+364019324+363673146+363402282+363027703+362603215+362307247
1978+362203157+362161042+362000300+361646966+361203369+360922125+361009353
1968+361350060+361517772+361201345+360539715+359893073+359449626+359201580
1958+359114689+359127504+359110193+358969197+358722800+358448451+358242520
1948+358237987+358584576+359283300+359942682+359924435+359073173+358026848
1938+357447163+357329210+357265962+357065802+356904085+356971455+357180758
1928+357404148+357858724+358771584+359761594+360274846+360500223+360880010
1918+361021793+360239138+358885004+357989791+357985107+358480412+358851169
1908+358750227+358239935+357593517+357009374+356554424+356302406+356398814
1898+356919673+357633722+358096915+358258819+358624968+359354042+359711910
1888+359079056+357926993+357059133+356664021+356533628+356523549+356566414
1878+356626139+356709920+356869689+357440756+359100863+362028439+364862192
1868+365423180+363310820+360378785+358344137+357543684+357500557+357664409
1858+357734326+357730092+357800872+357960677+358175113+358580717+359484397
1848+361288274+364098608+366826736+367365392+365220247+362472598+360972334
1838+360802786+361118838+361513576+362589652+364984753+367895580+369444667
1828+369200593+368526785+367996073+366945513+365399986+364379589+364397275
1818+364990973+365619106+366377781+367627676+369176950+370216868+370232080
1808+369651983+369378833+370124694+372142257+374965181+377414014+378526060
1798+378678934+379324565+381619699+385191144+387739045+387183191+384751257
1788+383281567+383894450+385857345+388212430+390609518+392694188+394015537
1778+395007158+397056607+401229169+406991397+411806593+413295766+412058385
1768+410042883+408487652+408421407+410439644+413544186+415890691+417258539
1758+418683190+420282935+421913891+424609495+429330306+434913619+438582297
1748+439252470+438538046+438330055+439425952+441693171+444277455+446219892
1738+448072066+451782147+457746858+462518627+462633957+460174296+458225227
1728+457540553+458276897+460467043+463525498+467317112+473056708+481618780
1718+490887968+496091494+495700616+493125400+491377840+491564923+494209719
1708+499390014+505839801+511489846+516337040+522604427+530736053+537402786
1698+540471770+541412208+540675115+538800047+538484857+541416966+546898063
1688+554115405+563936926+576178916+585334873+586699012+584608047+584370792
1678+587569157+593665160+600774329+607111408+613148509+619848028+625556750
1668+628098955+629453914+633151218+639512877+645599888+649152036+651717323
1658+656297475+664794874+677688902+691683773+698368790+698290929+700436562
1648+706666629+711955247+711744146+709032655+708595915+711683221+717937194
1638+726602755+734828354+737147768+732549706+726831617+723969575+724023081
1628+725517200+727156025+728252147+727761900+724915595+721484397+720157540
1618+720681508+719285184+713614306+706656887+701600203+698573896+696169052
1608+693189657+689551779+686019939+683331154+681697275+680934178+680788348
1598+680945419+680884644+680170258+678889038+677415752+675886936+674231550
1588+672434980+670605288+669053166+668211684+668340054+669635661+672491259
1578+676723547+680109857+679961555+678165509+678953410+683214100+688023413
1568+690453211+691587327+693979281+698756970+706815906+719538550+735144668
1558+744864761+746250369+747496293+752466573+760151642+768793223+777323445
1548+785557662+794277628+804183342+814770246+824863156+832258289+833018687
1538+828213121+824307713+823937144+825172276+825317132+824801931+826180571
1528+830356355+836095352+842224853+848831260+855200413+859236888+861066655
1518+862678053+863739179+863155335+862629568+864997917+871006841+879351217
1508+887584384+891459442+888614711+883467201+880428979+880593694+883324894
1498+886333590+886787866+885063761+884836473+888368538+894248869+898328059
1488+897648518+893902879+890711034+889909719+891068040+892782927+894500886
1478+896932708+900509661+904323944+906732160+906587154+904510465+902645402
1468+902630039+904489558+906614432+907390418+908107652+911855165+919462672
1458+926792159+926603315+919268432+912375236+909149069+908741330+909756144
1448+911026422+911619933+911147897+909787093+908077452+907045102+908002888
1438+911422021+915454000+916994206+915887518+914506480+914112455+914395871
1428+915012089+916107311+917445259+918393978+918930985+919464096+919569309
1418+918160620+915244098+912036890+909640139+908524234+908427638+908864678
1408+909875820+911415427+912425445+911947638+910647235+909723321+909330419
1398+908960899+908249360+906790762+904359090+901848583+900547580+900216653
1388+898839662+895009043+890652057+889281586+891970671+896690807+900808290
1378+903452562+905383871+907355272+909315956+910954856+912435711+914283764
1368+916882248+920195643+923664011+926227724+926890103+925865547+924633263
1358+924393760+925103350+926007855+926582332+926990296+927906866+929793886
1348+932162685+933858987+934446203+934836857+936260684+939017213+942161772
1338+944197545+944550579+944309952+944802522+945849859+946348573+946168871
1328+946249430+946900568+947302087+946958046+946660316+947495203+949428086
1318+951349728+952375483+952680482+953060718+953958329+954887638+954871152
1308+953615336+952136505+951697741+952268171+952742755+952545593+952343109
1298+952921633+953806204+953677235+952228829+950546764+949184162+947160679
1288+943733527+940034425+937666675+936490444+935056800+932723148+929994046
1278+927008581+923262792+918954216+915208877+912744232+911258356+910096064
1268+908764036+906997441+904950128+903071726+901564492+900248052+898784283
1258+896701898+893614592+889896530+886754968+885107300+884691543+884633465
1248+884531924+884557478+884774724+885040680+885454489+886223206+887157161
1238+887856710+888297122+888824912+889676436+890754648+891870778+893080207
1228+894618540+896397949+897786405+898342671+898601583+899522874+901351368
1218+903552829+905545438+907101756+908486315+910300270+912612416+914551368
1208+915545424+916377089+918186923+921097226+924426508+927544314+930037660
1198+931700615+933012260+935111206+938560764+942347319+944850332+945691439
1188+945781215+945921200+946431829+947628668+949497779+951354674+952579989
1178+953167955+953494086+954233202+956156118+959122624+961765247+963173037
1168+964183880+966087611+968956548+971813195+973718425+974514044+974957229
1158+975968821+977641893+979407663+980861690+981711115+981756228+981986513
1148+984251522+988619824+992613584+994212916+994122166+994223482+995566976
1138+997966199+1000373516+1001923839+1002665652+1002719233+1001873180
1130+1000895611+1001574326+1004649643+1008921274+1012905442+1016312435
1121+1019312738+1021446680+1022168710+1021789073+1020986634+1020097267
1113+1019472581+1019676863+1020765791+1022288312+1024234309+1026892294
1104+1029823279+1032249705+1034372332+1037006412+1039856539+1041004368
1095+1038948137+1035328094+1033807672+1035576814+1038040560+1038611140
1087+1037539298+1036394765+1036262050+1038298197+1043567107+1051214856
1078+1058201800+1061497510+1060497609+1057220634+1054302238+1052844838
1070+1052131726+1051356415+1051015071+1052079944+1054491082+1057312733
1061+1059931151+1062137708+1063514923+1064063771+1064912147+1067014315
1053+1069627487+1071099200+1070568712+1068180280+1064868233+1062536754
1044+1063062971+1066588066+1071039849+1073741823+1073522853+1070954569
1035+1067694755+1065440986+1065011890+1066335974+1068394154+1069480683
1027+1068550400+1065982191+1063282390+1061764440+1061414329+1061652033
1018+1062639345+1065050034+1068455678+1071052214+1071202690+1068421656
1010+1063394273+1058308288+1056185361+1058173099+1062069514+1064403466
1001+1063523316+1060333419+1056802253+1053930919+1051316323+1048645823
993+1046508883+1045399947+1044977220+1044516125+1043263532+1040571225
984+1036969917+1034653950+1035350576+1037924855+1038925805+1035896426
975+1029997211+1024343419+1020342914+1017226981+1014496531+1012628994
967+1011316900+1008940608+1004428800+998329200+991702784+985368777+980287288
957+977116051+975146973+972809199+969492581+966192450+964112164+963298484
947+962945525+962649893+962717038+963047291+962451082+959872307+956079307
937+953344734+953421921+955915941+958449604+958862589+957311591+955548294
927+954665596+954680059+955661451+957781154+960225566+961176233+959397798
917+955514122+951531378+949201623+948902994+949934069+951155113+951232225
907+949431833+946730683+945201268+945685070+947048496+948094709+949097383
897+950781921+952581113+952906420+950877317+946965390+942399851+938876778
887+937943198+939360880+940767021+939935656+937082232+934346610+933293803
877+933452522+933406210+932686278+931837078+931032541+929849715+928500227
867+928114445+929564650+932719251+936528663+938999677+937939900+933280239
857+928066035+925869219+927521758+930824287+933173977+934005866+934436312
847+935037242+934880546+933300247+931445226+930841673+931290328+931363993
837+930568223+929845893+930138003+931563253+933548143+934882794+934599003
827+933604497+933756921+934906774+935175952+934059147+933096266+933670817
817+935708389+938293534+940339798+940872759+940077514+939667227+940860244
807+942675849+943267936+942573858+942699979+945293967+949127808+951101158
797+949674033+946307057+943389711+941942877+941559194+941670327+942187251
787+943137693+944155879+944695135+944903314+945682297+947260796+948366211
777+947852284+946243060+944518880+942594016+940183327+938334450+938517899
767+940205359+941165992+940641350+940212403+940801418+941611051+942742244
757+945330986+948530251+949983678+949695316+949912037+951012131+950505099
747+946520331+940671925+936593035+936246146+938647018+942103170+946199446
737+950740780+954225034+954977414+953428066+951822963+951294049+950623501
727+948851136+947262520+946979478+946895098+945857802+944910882+945867844
717+948412373+949841445+948295694+945467898+944536116+946070477+947602590
707+947029687+944537915+941116383+937716210+935145677+932906297+929582260
697+925224600+921397503+918979171+917701323+916964231+915449653+911396767
687+905500400+901601737+902123082+904588926+904927796+902498897+899998957
677+900016118+902400653+904371305+902466749+894954338+883366259+873811106
667+872973971+877667579+880932115+882074998+883884757+886968167+888618982
657+886317178+879981598+871785150+865672061+864292223+866098460+868284259
647+870265028+871276020+868358448+860765853+852920716+849473931+850368169
637+852027902+851559613+849179723+847097114+846683380+847721724+849722951
627+852002573+852936378+851291184+848268474+845637391+842008281+835256419
617+827798712+824442153+826687453+831825820+835453356+834682167+830597057
607+826906572+824912240+821409626+814373223+808127044+807947042
##END=
