##TITLE=<SNM>
##JCAMP-DX=4.24
##DATA TYPE=INFRARED SPECTRUM
##DATE=2/5/2025
##SAMPLING PROCEDURE=Instrument type and / or accessory
##ORIGIN=Admin
##XUNITS=1/CM
##YUNITS=ABSORBANCE
##RESOLUTION=4
##FIRSTX=4497.3318
##LASTX=599.83466
##DELTAX=-1.4281778
##MAXY=1.8010386
##MINY=0.25835153
##XFACTOR=1
##YFACTOR=1.6773479e-09
##NPOINTS=2730
##FIRSTY=0.27676329
##XYDATA=(X++(Y..Y))
4497+165000526+164771840+164698975+164849218+165211195+165495032+165373573
4487+164851900+164227141+163771244+163580598+163681198+164072812+164554614
4477+164695280+164299170+163824671+163912265+164498682+164841986+164458741
4467+163571839+162670190+162177835+162433420+163365043+164296097+164648018
4457+164716441+165194227+166051759+166527076+166237483+165590852+165024299
4447+164617653+164468726+164583735+164535798+164093884+163800631+164083970
4437+164522544+164804337+165411489+166557299+167417087+167150983+166028750
4427+164990416+164544878+164465475+164313580+163934119+163442687+162946173
4417+162399378+161764473+161282742+161383448+162109021+162796535+162686696
4407+161777070+160749556+160152727+160033347+160306150+160966071+161830373
4397+162501967+162711997+162434522+161739421+160868936+160294193+160308638
4387+160687335+160965645+160873503+160408988+159795725+159373515+159168335
4377+158764568+157971160+157235051+157024435+157282881+157829410+158729868
4367+159930260+160968008+161267498+160492993+158727328+156615426+155104156
4357+154744044+155353452+156336494+157079674+157177378+156713734+156293603
4347+156473890+157186439+157859917+157957869+157347413+156425012+155895682
4337+156078119+156468436+156364620+155770794+155270371+155267333+155730550
4327+156370128+156780966+156674823+156187229+155820312+155932514+156329049
4317+156516763+156354084+156136218+155992746+155687038+155180912+154852408
4307+154935986+155264473+155698533+156297796+156956350+157251362+156840061
4297+155918726+155220036+155440176+156560294+157876707+158765563+159097283
4287+158888781+158139756+157133225+156347066+155864126+155293931+154495796
4277+154023819+154536022+155915404+157278066+157901049+157889873+157759850
4267+157667459+157437032+157120895+157011820+157112793+157075250+156784911
4257+156621894+156972962+157790233+158730064+159467292+159867932+160029599
4247+160074586+159863845+159192784+158290602+157768201+158032333+158982718
4237+160111773+160743213+160530127+159822962+159217534+158911328+158809449
4227+158885565+159120647+159444407+159860647+160336728+160684723+160772974
4217+160645314+160413537+160241743+160258018+160295951+160018298+159354290
4207+158565821+158032671+158105198+158875527+160035711+161155473+161942202
4197+162202585+161935574+161462656+161096929+160825673+160589578+160528564
4187+160715532+161001002+161238963+161348180+161170043+160652581+160175505
4177+160310130+161193567+162404264+163444641+164084699+164283251+164110675
4167+163798890+163592876+163486875+163277804+162897366+162530342+162353786
4157+162300111+162196046+162049553+162029387+162181672+162335628+162305388
4147+162070519+161762821+161559649+161551121+161644809+161647776+161490338
4137+161334517+161420121+161831528+162453125+163112193+163712540+164201645
4127+164427470+164189598+163543269+162913943+162740834+163041780+163424759
4117+163477014+163106063+162574601+162230622+162181388+162242810+162183111
4107+161983404+161852369+161966561+162240181+162444632+162470057+162304215
4097+161897552+161322399+160879828+160748082+160725979+160613208+160627209
4087+161092203+161857095+162370328+162324363+161976848+161798142+162031928
4077+162637640+163373127+163830126+163642429+162791241+161626313+160590466
4067+159992074+159975319+160507350+161269203+161733540+161642108+161324727
4057+161224429+161274516+161164233+160963584+160971029+161179904+161366747
4047+161516403+161826038+162448754+163333861+164119203+164245068+163465145
4037+162195851+161160590+160786566+161027920+161588859+162207719+162795114
4027+163358966+163807614+163906526+163552028+163022627+162780918+162995443
4017+163336704+163296993+162717488+162037240+161938364+162587536+163405642
4007+163831902+164013309+164423437+165187973+166059843+166688352+166790693
3997+166400269+165908162+165617094+165512888+165618018+166095805+166861088
3987+167511521+167737293+167547163+167138617+166708269+166346505+166109024
3977+166146584+166593562+167339283+168058050+168459081+168473562+168235122
3967+167899831+167558836+167369808+167548513+168098720+168762888+169273900
3957+169465771+169323987+169188563+169639502+170837638+172103378+172510468
3947+171987268+171400389+171380578+171643235+171655264+171367572+170940529
3937+170420652+170100285+170566470+171920302+173251623+173499035+172811077
3927+172330341+172741179+173570230+174054679+174286190+174831582+175543100
3917+175492818+174202434+172371686+171095196+170847019+171412239+172602450
3907+174745676+178095690+181840587+184432460+185215706+184559835+182650839
3897+179892555+177696524+177357396+178570989+179518851+179076102+178618979
3887+179720939+181620021+182634902+183122478+184347993+185417563+184762581
3878+183384283+183221603+184468297+186367699+188550386+190153354+189862216
3868+188344372+187536944+187735230+187753868+187096416+186472243+186634425
3858+188189208+191838373+197137644+200152438+197245067+191481353+186897917
3848+184739429+184772122+186311305+188802312+192088149+195842232+198708542
3838+199015974+197146368+195280121+194457147+193994551+193158092+192221494
3828+191769844+192119935+193831730+197346377+201309264+203016013+202508945
3818+202096046+201654345+199506198+196278496+194181093+194448743+196968391
3808+200305417+202673828+204379350+206944181+209677289+210248515+209032399
3798+208278398+208321307+208333620+208555927+209969831+212919418+217017871
3788+221685329+226216261+229977096+233506099+238639688+246322509+255025949
3778+262913184+270703996+280170018+291614366+304061175+316230722+326926666
3768+335568612+341962505+345778117+347516563+348586203+349744895+350954295
3758+352712853+356185694+362164004+370775107+381464903+392439832+401811634
3748+410384181+420349417+431690002+441185288+447870959+454920829+464773704
3738+477849004+493086753+507683522+518514321+525335950+530535758+536476579
3728+544229901+552980869+560440671+565260362+567973854+568993852+567854562
3718+564449132+560024769+556854616+556235738+556843600+556330901+554413287
3708+552032581+549773475+548501889+548944656+550254194+550881139+551144809
3698+552842282+556892425+562625722+568924452+574970208+579023300+578370450
3688+573498914+568606839+566102755+565775762+567069167+569889655+574463833
3678+580052999+583159189+580807764+576395270+574287331+573798510+572256360
3668+569701212+567395592+565276388+562796894+560284601+559234185+560940721
3658+564439644+566717867+566731299+567213546+570819429+576652686+579443964
3648+575011499+566500748+559443096+556616745+557607924+559907752+561203822
3638+561075327+560472511+560746024+563368333+568957890+575869529+580372495
3628+580829369+580304054+581208208+583183815+585283901+586896766+587273473
3618+586488468+586439998+588709658+592373321+595065848+596420799+598141051
3608+600465612+601480138+600302933+598563492+598584102+601451994+606590007
3598+612289332+616237631+616641310+614191950+611871866+612104336+615355438
3588+620591386+625700047+628443424+628214792+626344013+624492850+623179048
3578+622041927+620924989+620123034+620214928+621999356+625987526+631407687
3568+635641688+635843456+631964805+626318215+620708225+616097339+613651248
3558+614178020+616742229+619266213+620855696+622217683+623479817+623596301
3548+622289180+620688254+619640397+618828705+617834079+616573082+614833002
3538+612660318+610839715+610451814+612005975+614700030+616281695+614751484
3528+611035797+608249707+607822931+608252479+607644119+605787128+603741233
3518+602767857+603372379+604650504+605269382+604925332+603769306+601456116
3508+598157966+595145091+593506463+593268591+593763559+594211834+594256039
3498+594237597+594470351+594420069+593499178+592056704+590602361+589024711
3488+587396424+586670976+587389744+588578569+588803719+587650073+585538332
3478+582820220+580052644+578236732+577592268+577044033+575986510+575438275
3468+576473909+578467781+579835667+579974893+579621497+579503521+579198701
3458+577611528+574625731+571867571+571136367+572143430+572670201+571214082
3448+568569990+566462832+565705509+565916374+566034244+565017231+562659267
3438+559867775+557991276+557847110+559367868+561827391+564139870+565216938
3428+564366300+561641898+557981113+554857440+553318132+553059295+552798148
3418+551821822+550844147+550753141+551195197+551176328+550299785+548898069
3408+547420486+546115639+545319228+545505680+546454502+546866459+545801687
3398+544012249+542641520+541563919+540304059+539352289+539318957+539756820
3388+539758063+539109904+538333499+537908002+537772684+537551976+537163365
3378+536995462+537209738+537157253+536144042+534567139+533541526+533653070
3368+534675520+535965016+536627496+536169023+535304384+535058162+535112566
3358+534298529+532569180+531182425+531027990+531755534+532587587+533254936
3348+533744822+533810633+533410579+533022288+532862167+532513532+531749493
3338+530882047+530277809+530196896+530691473+531266465+531192410+530231045
3328+528575893+526632055+525312710+525600650+527274138+528662848+528218624
3318+526169389+524106259+522993159+522288961+521304214+520461642+520418041
3308+520913541+521153225+520714438+519861384+519326653+519707482+520772147
3298+521555091+521449197+520974733+520988414+521269958+520743009+519265070
3288+518237397+519038783+521565219+524506384+526500078+526981151+526247281
3278+524940160+523763168+523323884+523724790+524393560+524540711+523800977
3268+522467809+521301300+521002699+521505449+521929311+521552426+520547317
3258+519458274+518385436+517200235+516234499+516002633+516324154+516501971
3248+516294695+516000749+515739247+515272672+514514816+513712150+513064879
3238+512499978+511860632+511018486+509814275+508294298+506975024+506346302
3228+506095496+505429107+504180939+502970153+502288484+501954419+501567620
3218+501157261+501025675+501117284+500956737+500208688+498996375+497692593
3208+496724761+496463898+496854215+497246024+497023540+496208188+495103048
3198+493793297+492366600+491095085+490132902+489451624+489090659+488997984
3188+488737370+487866512+486493615+485101885+484008365+483169382+482277915
3178+481019832+479435928+477916769+476674357+475449073+473978064+472543016
3168+471731751+471813695+472520913+473160082+472887031+471376649+469340953
3158+467939308+467648560+467904342+467663094+466303132+464286340+462804458
3148+462451843+462489226+461812994+460417497+459301732+458993501+458807511
3138+457791208+455907460+453939102+452618051+452169492+452403917+452958193
3128+453413787+453238102+452022945+450088204+448454658+447855857+448031471
3118+448153569+447664429+446589530+445362540+444510765+444192975+443927457
3108+443102155+441754915+440496512+439764987+439504906+439406830+439174146
3098+438692788+438135847+437757399+437504318+437037814+436241580+435538164
3088+435483191+436028868+436452410+436069058+434698080+432598598+430490872
3078+429361177+429589135+430414152+430686599+429995833+428840980+427937856
3068+427555570+427426223+427153811+426561370+425665674+424582850+423551871
3058+422895468+422845648+423302877+423711033+423355718+422007802+420221704
3048+418863803+418351246+418384471+418376156+417952933+417012391+415656481
3038+414244069+413202181+412687989+412631950+412907063+413219558+413173753
3028+412658921+411865068+410893433+409680018+408285729+406989020+406032487
3018+405397120+404921768+404561265+404318560+404017330+403423433+402490282
3008+401321819+400139958+399309078+398984820+398766990+398131837+397149435
2998+396385076+396180359+396332733+396359491+395878417+394833758+393518250
2988+392372636+391641964+391164017+390562267+389717208+388946310+388595473
2978+388596290+388585701+388304903+387742845+387032499+386348698+385830668
2968+385463165+385055080+384396225+383392928+382091812+380727941+379684846
2958+379137357+378749741+378049061+377112179+376521444+376602535+377062039
2948+377350619+377031337+375915358+374277121+372890935+372436228+372775837
2938+373053259+372547773+371329418+370128582+369630096+369830514+370082031
2928+369802086+369012888+368111897+367352335+366734665+366195740+365630555
2918+364841464+363783337+362842475+362488155+362637260+362765470+362619919
2908+362394911+362260979+362103843+361648853+360651739+359158343+357652901
2898+356714420+356507961+356731370+356931859+356791922+356252606+355442762
2888+354523080+353654568+352990879+352557352+352254593+352011853+351746406
2878+351274039+350546743+349845032+349466229+349367157+349329774+349319718
2868+349445014+349621126+349484423+348737796+347511339+346241920+345203942
2858+344325337+343476263+342723559+342173761+341777439+341499448+341493087
2848+341817309+342118930+341955292+341352937+340735444+340384358+340190728
2838+339879867+339323495+338632231+337987803+337408759+336759925+335973143
2828+335126841+334361309+333823095+333546277+333325071+332941861+332498952
2818+332204793+331983445+331657802+331272531+330904388+330444032+329793918
2808+329012751+328212217+327529837+327088066+326806273+326448222+325915267
2798+325267321+324536365+323795672+323270286+323091332+323082555+322979219
2788+322678450+322164187+321431596+320576623+319758890+319033371+318345484
2778+317658875+316998883+316415291+315905967+315357697+314644863+313801972
2768+313011850+312433517+312079872+311799678+311390066+310797626+310146197
2758+309548604+309029544+308599072+308201399+307648794+306823350+305877904
2748+305057329+304424556+303918217+303531027+303241026+302919149+302486261
2738+302017980+301560929+301044320+300473734+299986584+299661189+299462904
2728+299319804+299069282+298508681+297706904+297036481+296686603+296393013
2718+295854746+295164726+294570722+294050453+293448028+292839046+292434817
2708+292257515+292153681+292000738+291750820+291391952+290923049+290315844
2698+289578491+288861767+288337341+287997413+287717823+287414194+287047419
2688+286651771+286391690+286388936+286511461+286494902+286194808+285614841
2678+284834917+284014555+283331962+282833779+282429106+282045700+281709556
2668+281468416+281318280+281221731+281149471+281067047+280897634+280550776
2658+280017981+279404611+278821907+278310362+277926139+277778100+277863189
2648+277973970+277880548+277520738+276970691+276362686+275863792+275574910
2638+275393734+275126795+274786866+274588403+274578453+274503510+274165660
2628+273679825+273235246+272826202+272378052+271973023+271778060+271787513
2618+271760630+271489960+271062971+270723238+270546913+270422576+270248472
2608+269982865+269615717+269211701+268863618+268587581+268380927+268311030
2598+268417155+268602613+268689460+268521557+268061307+267480860+267098805
2588+267130715+267490046+267852752+267949443+267797513+267583041+267366970
2578+267071567+266686385+266272277+265847900+265473663+265317468+265426703
2568+265575826+265529435+265323136+265140646+265078300+265150578+265340673
2558+265529595+265557579+265442498+265349770+265307998+265168079+264865622
2548+264518640+264230575+263958537+263634741+263332782+263212567+263274647
2538+263262085+262923418+262320033+261732408+261315404+261015097+260794016
2528+260722431+260784013+260785061+260590862+260320352+260172366+260162985
2518+260154350+260072406+259991670+260018570+260158116+260329733+260476972
2508+260579829+260573290+260367951+259967364+259482542+259037145+258725485
2498+258626733+258762459+259022931+259201797+259159848+258948166+258734671
2488+258602800+258442129+258075620+257505904+256969236+256698708+256713846
2478+256882353+257054112+257070689+256808049+256321308+255841496+255543268
2468+255376253+255184204+254936614+254742219+254653737+254591533+254483737
2458+254362811+254284599+254222341+254073183+253775328+253412000+253124042
2448+252921865+252715247+252523180+252468811+252555978+252627173+252564489
2438+252396924+252200361+252016787+251894867+251888417+251956040+251962081
2428+251845491+251698393+251623503+251616592+251644380+251725240+251861215
2418+251993654+252094574+252194818+252263543+252202831+252031250+251916827
2408+251969579+252151305+252392766+252642560+252827999+252914705+252984353
2398+253174448+253550569+254072970+254744529+255850859+257997177+261835406
2388+267828766+276321554+287713736+302445218+320771319+342533127+367161370
2378+393919441+422026743+450422696+477695634+502709503+525113216+544857059
2368+561626725+574923444+584036905+588021379+586529120+580598569+571678312
2358+559821544+543804688+522765095+497511862+471871937+451831340+441949185
2348+443894764+456927138+476970613+496377050+508965555+514300753+515048161
2338+513784713+512353787+511814685+512307520+512998073+512488643+509899097
2328+505516488+500119104+493893292+486353643+477325821+467501232+457645337
2318+447799996+437737144+427655992+417875787+408208831+398191607+387747926
2308+377208479+366874815+356888861+347355767+338362378+329966654+322256471
2298+315315054+309077089+303313020+297808836+292522428+287539153+282931465
2288+278716421+274929380+271661008+268954552+266702482+264751573+263101307
2278+261855057+260963287+260194789+259399514+258634391+257988133+257408236
2268+256753343+255985324+255267463+254807781+254597005+254401438+254051755
2258+253633810+253318916+253084722+252724024+252122522+251406171+250793067
2248+250411456+250259632+250223191+250131084+249878377+249499360+249112206
2238+248824443+248681432+248673454+248773681+248944835+249126100+249255732
2228+249294358+249235690+249141096+249104423+249128481+249144365+249184537
2218+249365428+249673997+249956625+250137090+250294546+250523835+250833968
2208+251199517+251624925+252108201+252593841+253022802+253409868+253834530
2198+254359773+254966925+255574468+256123804+256613850+257029859+257307690
2188+257429931+257514255+257724196+258078765+258430953+258677193+258876118
2178+259096009+259303605+259461416+259563846+259568714+259447131+259243480
2168+258989902+258688369+258414216+258269233+258221438+258138286+257977064
2158+257822788+257746104+257743350+257820834+258002098+258260900+258598501
2148+259114434+259887019+260986563+262669716+265220511+268570613+272423395
2138+276675608+281401006+286578089+292096292+297920238+304131499+310829003
2128+317981001+325451783+333185170+341173130+349285995+357340618+365182494
2118+372559606+379168948+384872963+389662733+393510752+396392787+398341849
2108+399458716+399882720+399724163+399133570+398338402+397338126+395793417
2098+393533672+390874656+388220010+385655978+382982356+379855627+375899723
2088+370870056+364781125+357858400+350322801+342239252+333651567+324804370
2078+316156418+308212770+301288730+295378878+290341909+286155027+282851724
2068+280343589+278410891+276748081+275093196+273459899+272058965+270951142
2058+270027550+269237286+268581416+268035953+267627353+267444454+267564136
2048+268007383+268685356+269492535+270552243+272153737+274439813+277437124
2038+281269011+286009600+291455560+297239049+303031689+308595838+313791738
2028+318573761+322964792+327029397+330803824+334246708+337239790+339509059
2018+340640743+340425579+339081359+336960947+334240277+330969453+327183868
2008+322920160+318265956+313396162+308507285+303757421+299269131+295112667
1998+291308569+287942564+285190232+283047202+281151709+279145010+277095454
1988+275294325+273846040+272680668+271727903+270932557+270265546+269747339
1978+269370738+269070698+268794093+268515196+268254778+268151087+268342230
1968+268692463+268830836+268579533+268161498+267886439+267837490+267949034
1958+268182020+268491797+268778120+268982216+269143687+269332627+269584411
1948+269914016+270403849+271186775+272128258+272662830+272401025+271734654
1938+271341388+271408496+271674351+271916842+272154679+272500808+272964718
1928+273491099+274202190+275299602+276629465+277797378+278779993+279782793
1918+280570534+280734581+280521886+280635829+281428510+282677922+283890431
1908+284739328+285322743+285942723+286701982+287492051+288264618+289111099
1898+290088775+291023578+291590646+291789091+292090962+292722828+293152465
1888+292818684+291992512+291313366+290993089+290857878+290743082+290629174
1878+290567521+290554533+290540923+290703016+291500494+293067341+294539629
1868+294561394+292921292+290828330+289390831+288811396+288766018+288895934
1858+288971819+288925695+288833499+288836928+289095659+289710558+290687025
1848+292110524+294062429+295920841+296318727+294920831+293150830+292272688
1838+292321016+292717942+293197808+294138207+295954528+298176357+299599287
1828+299841672+299677606+299458000+298811368+297876370+297415285+297735172
1818+298411279+298989257+299523100+300346660+301508372+302566464+303023836
1808+302914778+302806041+303350829+304862455+307004863+308848315+309634243
1798+309638259+309954770+311456232+313920979+315801458+315670085+314288411
1788+313529205+314130742+315562165+317159857+318740456+320140395+321061321
1778+321750168+323154371+326034736+329940749+332969437+333568167+332462422
1768+331129716+330303490+330514711+332055013+334177770+335665907+336497285
1758+337413628+338456937+339599211+341660244+345210231+349192325+351616064
1748+351939504+351418773+351366075+352391901+354473970+356891882+358671868
1738+360054253+362562246+366657127+369927027+369834423+367790624+366024923
1728+365109967+365102540+365942411+367259340+369143941+372572789+378129938
1718+384269827+387588445+386879698+384512851+382780126+382556895+384097979
1708+387288600+391244895+394760946+398008424+402343451+407712833+411768200
1698+413322858+413316355+411833051+409495733+408525200+410047699+413401959
1688+417969457+424216626+431580199+436056443+435162701+432514913+431690891
1678+433552039+437406704+441532501+444656885+447595776+451306843+454473478
1668+455462490+455813256+458092936+462518294+467102706+470318202+473113318
1658+477399734+484325373+494014822+504030874+508674168+508455201+509608314
1648+513727928+517786350+518483015+517081406+516729005+518871413+523791312
1638+531097674+538887135+543624597+544457787+545041806+548192237+553936549
1628+560913323+568130314+575784884+584122758+592433767+600193485+608186739
1618+617159766+625844675+631925006+635709347+639200595+643155930+647026408
1608+650066503+652146369+653778707+655517438+657506619+659684988+662158939
1598+665159021+668780185+672841415+677014935+681089811+684864557+687897616
1588+689985371+691741442+693988466+696784648+699630721+702469190+705976926
1578+710662365+715623769+719109686+721769627+726189832+733320366+741525268
1568+748673427+755327224+763484579+773853494+786587693+803002967+822886534
1558+838269018+843830823+846148348+849073309+851167389+851004354+849204575
1548+847323278+846641929+847613244+849957776+852668248+852855162+847359595
1538+839425827+834549422+832759522+830696357+826270679+821370041+818653528
1528+818437333+819592435+821226621+823001384+824249304+824317673+823975542
1518+824155846+824183706+823076220+821284188+820262555+821377005+825355154
1508+830992009+833479675+829453199+823606546+820542998+820496944+821874638
1498+822613625+821272319+818773779+817682781+819178949+822065817+823831482
1488+822930100+820212024+817525148+816087400+816061388+816885304+818172810
1478+820215151+823360927+827078675+829632509+829177091+826264141+823581245
1468+822682847+823097470+823472152+823361567+824074400+826833697+830986465
1458+833753224+832117972+827378236+823406910+821687226+822057502+823806181
1448+825447688+825438164+823626232+820975957+818455811+817116637+817983479
1438+820790606+823252759+823246078+821628167+820278830+819748931+819712259
1428+819857313+820142589+820626434+821264572+821866039+822056649+821172750
1418+818734406+815244295+811705217+808875348+807196743+806512480+806122163
1408+805591696+804971823+804250603+803491930+803265500+803986578+805224264
1398+806271481+806930657+807127308+806654549+806046047+806411916+807811784
1388+808707338+807711220+805889338+805942782+809283432+814916662+820642709
1378+825194607+829057480+832947431+836333993+838425159+839667323+840911547
1368+842238994+843593733+845524423+848173348+850209577+850147178+848421738
1358+846644275+845564436+844906966+844546712+844883015+845978277+847036368
1348+847151147+846365253+845674310+846091065+847898307+850517737+852851253
1338+854104717+854473002+854726722+855474166+857084046+859568657+862230659
1328+864208540+865570669+867149776+869376118+872069035+875185104+878850189
1318+882630834+885700636+887962087+890305553+893623247+898029523+902845517
1308+906861973+909124774+910037669+911044875+912952965+915426844+917980464
1298+920201334+921168242+920119176+917625255+914901778+912288886+909471027
1288+906681455+904594836+903328794+902379013+901321276+900009038+898390701
1278+896686937+895528637+895496655+896616436+898397950+900188064+901482535
1268+902034962+901916702+901674424+902265727+904441538+907871808+911095903
1258+912838400+913379883+914029961+915343337+916672063+917335645+917333015
1248+916981289+916469513+915736923+914514659+912668755+910620586+909121149
1238+908557137+908604754+908458776+907453560+905660462+903833534+902703590
1228+902428620+902609564+902714890+902525559+902207876+902155782+902747227
1218+903892451+904873076+905170149+905295374+906098111+907554835+908937149
1208+909966244+911296676+913818954+917533007+921222398+923526348+924229374
1198+924263985+924728641+926144073+928374609+931181593+934452168+937568237
1188+939549529+940527170+941922986+944478099+947501563+950334986+952839923
1178+954659246+955746193+957118059+959595634+962389541+964205027+965213370
1168+966509617+968043097+968659630+968083394+967740836+969087756+971710883
1158+974044612+975845315+978516130+982437280+985723349+986657707+985784540
1148+984716712+984382895+984963965+986267817+987815155+989127038+990384481
1138+992663415+996859110+1002087240+1005827304+1006637503+1006036250+1006428983
1128+1008029766+1008901868+1008212630+1007851807+1009640286+1012676614
1120+1014408450+1013544096+1011330688+1010162793+1011447172+1015158737
1111+1020842142+1027304120+1031468473+1030609733+1026057622+1021992412
1103+1021289884+1024016489+1028259303+1031576073+1032271921+1030382451
1094+1027887890+1027121044+1028952805+1032602183+1036881599+1040742908
1085+1042499193+1041216591+1039384759+1040741629+1045135254+1048518120
1077+1048721096+1048079262+1049668460+1053546827+1057073681+1058104766
1068+1057112343+1056027600+1056108193+1057525260+1060035456+1063022675
1060+1064947395+1064116799+1061121763+1058921646+1059202586+1060607713
1051+1061501988+1061895645+1061531908+1059598162+1057046106+1055982186
1043+1057304303+1060980262+1066823291+1072632277+1073741823+1067789844
1034+1058540710+1052124572+1051367036+1054529371+1058281446+1061140810
1025+1063389112+1064820322+1064600360+1062933126+1061067963+1059640591
1017+1058053951+1055756752+1053331413+1051539239+1050249032+1049194423
1008+1048153388+1046212677+1043498296+1042419523+1044769314+1049024494
1000+1052027135+1052690574+1052344392+1052161955+1052036161+1050930736
991+1047783184+1043095187+1039103605+1037637429+1037897261+1037326142
983+1035260632+1034003970+1035360201+1038296675+1040476324+1040531617
974+1038631984+1035749523+1032792864+1029969960+1026783887+1022943188
965+1019229277+1016985239+1016393865+1015586650+1012979373+1009183803
957+1005134797+1000716866+995882678+991690181+989521335+989206139+988559685
947+985720079+981453954+977908551+976070678+975647598+976124834+976648834
937+976135210+974553332+972923907+971627020+970068382+968244439+967281439
927+967845309+968941139+969040566+967887027+966719985+966881669+968147783
917+968916833+968417281+967634586+967659034+968302787+968678108+968135630
907+966698948+965242224+964643103+964606218+964171127+963274293+962601757
897+962147832+961158820+959178239+956564209+954159766+952538941+951922621
887+952585065+954085995+954809346+953943570+952826206+952579664+952292612
877+951349014+950949103+951852830+953201172+954092178+954341066+954029565
867+953552614+953235783+952769208+952059360+951679348+951274675+949343061
857+945761127+942421472+940768026+940645004+941702740+944190194+947957833
847+951673307+953642162+953114396+950714927+948186750+947153177+947312943
837+946935632+945848970+946032686+948453263+951375594+952534606+951223291
827+948286817+945617281+945062864+946745235+949129353+951054997+952359063
817+953135717+953740097+954959873+957477745+961067851+964304028+965365815
807+963569732+959722209+955167824+951429892+950251905+952046283+954791224
797+956487809+957541281+959374534+962333894+965585351+967923557+968811365
787+969193509+970388979+971931911+972297780+971166131+969239065+967189829
777+965453303+964155989+963343018+963534125+965132918+966940871+966857648
767+964693847+962445758+961448573+961163511+960741639+960040035+959163385
757+958287375+957704600+957581294+958101740+959486896+961140555+961741666
747+961329744+961838748+964410207+967575385+969120236+968946824+968834321
737+970076271+972359611+974491359+974960990+972722210+969096001+967319248
727+968576834+970251885+969053501+965065118+961451558+960596372+962284216
717+965111811+967706083+968839366+967756827+965015369+962483851+960556501
707+958111619+955664107+954715321+955325102+956475514+957790737+959331395
697+960230929+958895167+954773598+949574465+945952661+944469073+943135300
687+940605773+937327665+934118494+932460216+934314221+939132987+942561622
677+940993674+936130844+932637038+932649546+933380431+928836351+916734747
667+906139829+904571668+907412126+908621668+907574522+906621116+905573401
657+903224818+900888673+900450312+901765962+903376908+903976171+902829526
647+900492457+898676474+898513297+899160035+898834107+897222664+894668902
637+890075996+883378492+878512322+879888950+886666692+892736434+892595645
627+886161100+877555079+871341846+870166773+873383122+877707808+879757399
617+878449354+875457587+871715391+866712695+863343332+865839954+873332022
607+880218076+881258897+874462250+863080302+853676732+848785048
##END=
