##TITLE=<SNM>
##JCAMP-DX=4.24
##DATA TYPE=INFRARED SPECTRUM
##DATE=2/5/2025
##SAMPLING PROCEDURE=Instrument type and / or accessory
##ORIGIN=Admin
##XUNITS=1/CM
##YUNITS=ABSORBANCE
##RESOLUTION=4
##FIRSTX=4497.3318
##LASTX=599.83466
##DELTAX=-1.4281778
##MAXY=1.8396465
##MINY=0.3710067
##XFACTOR=1
##YFACTOR=1.7133043e-09
##NPOINTS=2730
##FIRSTY=0.39435416
##XYDATA=(X++(Y..Y))
4497+230171704+229248726+228409382+227573483+226854806+226510948+226756091
4487+227526256+228434205+229079407+229310790+229128721+228557150+227797700
4477+227326166+227513123+228169736+228789577+229183479+229487781+229661345
4467+229520292+229275584+229437597+230076433+230688186+230904645+230819602
4457+230465569+229630087+228429299+227469150+227305292+228071509+229394476
4447+230395347+230282769+229167806+227856563+226986535+226718919+226917165
4437+227295986+227569673+227584233+227371009+227182625+227331523+227808206
4427+228206717+228144149+227667014+227184747+226924054+226539928+225608740
4417+224493882+224132352+224848924+225883175+226218666+225617176+224754176
4407+224515660+225188677+226242218+226926141+226994693+226628727+225890464
4397+224806429+223807072+223315795+223155608+223136213+223630969+224749358
4387+225687086+225631510+224697434+223627838+223083403+223164566+223271387
4377+222805975+222054822+221803209+222300313+223168515+223946021+224202505
4367+223557355+222115721+220743718+220430615+221203650+222033862+222122244
4357+221785066+221638134+221602492+221274812+220727680+220429606+220618929
4347+221052891+221328091+221279891+221056631+220925127+220917352+220617311
4337+219670399+218550062+218185070+218749022+219415637+219357835+218594540
4327+217859877+217816356+218367175+218873829+219061099+219183105+219259033
4317+218943442+218270234+217763824+217753561+218138748+218712945+219273071
4307+219613588+219754728+219924883+220099403+219981328+219630530+219499149
4297+219654274+219653561+219353921+219210989+219660849+220645821+221710217
4287+222314281+222185856+221439852+220315706+219048297+218014029+217559472
4277+217755544+218530702+219632566+220353956+219965586+218629608+217277731
4267+216594017+216652376+217244263+217941058+218165466+217855076+217729730
4257+218294065+219008828+219087087+218637122+218351241+218467751+218603064
4247+218398885+217978909+217782680+218094844+218788056+219492417+219979885
4237+220326525+220644604+220758486+220383336+219594819+218806320+218360043
4227+218435971+219089922+220010412+220537383+220397634+220083348+220054525
4217+220039166+219655109+219236472+219390658+220059674+220620442+220745980
4207+220629331+220522250+220557804+220797694+221101944+221233986+221231360
4197+221285857+221206016+220460516+218941111+217400919+216833297+217386308
4187+218149585+218287003+218095975+218415741+219332247+220149274+220363697
4177+220043810+219462116+218907105+218727522+219122763+219897625+220623400
4167+221035218+221200363+221276499+221197092+220794615+220211616+219818967
4157+219648656+219343484+218760746+218195089+217957079+218096270+218536912
4147+219135566+219599829+219668016+219449278+219390171+219774019+220380483
4137+220830970+221109493+221400871+221562450+221247224+220504455+219771253
4127+219305981+219008724+218726131+218457331+218337656+218588295+219335309
4117+220301842+220861271+220624965+219870872+219221565+219085904+219503010
4107+220193560+220682002+220702650+220506316+220422143+220323725+219950383
4097+219439572+219105995+218912723+218580920+218109456+217828793+217879933
4087+217952782+217799779+217691288+218001852+218593862+218913123+218626024
4077+218045809+217833837+218230540+218763842+218890945+218621589+218229322
4067+217746290+217117091+216582710+216544546+217097331+217931613+218663458
4057+219068718+219084582+218869915+218732114+218730966+218621310+218353276
4047+218213128+218341674+218510124+218425047+218063760+217740724+217743177
4037+217797883+217364078+216654724+216635938+217744568+219322454+220507221
4027+221010100+220927823+220515848+220244109+220395773+220614720+220421274
4017+219984685+219728567+219516474+218994704+218401199+218327376+218890736
4007+219601012+219952958+219926066+219904948+220191717+220694509+221125079
3997+221308192+221249050+221090341+220937529+220672818+220204728+219863932
3987+220133236+220947879+221610928+221466779+220524928+219486746+219234715
3977+220107579+221528756+222502595+222550326+221962822+221258756+220799659
3967+220800060+221229516+221747581+222058632+222208417+222262671+221993576
3957+221313219+220736360+220956003+222203234+224277389+226615925+228132529
3947+228060307+227167735+226845673+227153037+227024490+226110784+225120351
3937+224794062+225613367+227745690+230374143+231686986+230677453+228606325
3927+227595330+228348780+229732611+230441564+230699805+231543098+232852549
3917+232978365+230701823+227078588+224271614+223251278+223667602+225463912
3907+229408131+235583874+242158285+246561462+247729930+245908519+241447644
3897+235870468+232148588+232240362+235101990+237220032+236474776+235287869
3887+236700228+239777619+241496193+241912534+242822187+242895331+240150021
3878+236924671+236723015+239699813+243983679+248271129+251000054+250450887
3868+248243037+247556227+248122214+247015149+243638239+240765165+240900670
3858+244829703+252505195+262094394+266856700+261429588+251624504+244096640
3848+240607100+240690560+243172880+246808100+250978136+255541761+259371384
3838+260142680+257429550+253785128+250996314+248649202+246448431+245347872
3828+245822398+247340029+250320497+255937767+262472223+265131238+263265558
3818+260538965+257412190+252297816+246759482+243814986+244737581+248973142
3808+254026966+257100530+259133199+262826308+266901961+267469827+265161070
3798+263203964+261557230+259014185+256606435+256073428+257675945+260816827
3788+265110260+270164153+275335790+280644184+287105408+294990384+302541783
3778+308199183+313217956+320090094+330297759+343915993+358958571+371414564
3768+378611460+381304116+381839106+382950067+386477354+391270310+393906747
3758+393209430+392438012+395686497+404709309+417580721+428264165+432959363
3748+435993303+442109887+449963500+454665551+456883960+461907638+472498682
3738+487934935+504411944+516723005+522984556+526462790+531009507+537765970
3728+546481349+556852699+568063548+578658210+586862604+590805275+590260265
3718+587712367+586263324+587240555+589420174+589805848+586479226+580614551
3708+574417047+569810319+568387715+569775216+571322783+571341848+570911991
3698+571331794+572852747+575903246+581467341+589706281+597664679+599273823
3688+592648063+584113971+579210942+578199339+579543841+582899199+589103243
3678+597637892+603477344+600849361+593819280+590074004+589884263+588483089
3668+584046759+578899648+574374291+570285297+567387349+567379139+570348335
3658+573502680+573713051+572150107+573383771+580051452+590286844+596616896
3648+592086008+580222093+569077308+562110544+558232512+555573427+553965396
3638+554217862+556468520+560048200+564370387+569467783+574758817+577104381
3628+573964926+568751646+566358351+568347638+573631610+579385793+582150046
3618+581270190+579919322+580404772+582349250+585348226+589566010+593423656
3608+594014796+590988405+587021174+584482668+584200527+586392392+590926341
3598+596516076+600416165+600372608+598061069+598404509+604417490+613292865
3588+617312489+612435726+604008368+598585413+597530114+599022019+601421784
3578+604059091+606118269+606343704+604600482+603060151+604509751+609238451
3568+613669285+613667754+610280390+607476860+606067824+604242361+601160238
3558+598057381+596604580+597515990+600186903+602940128+604689681+605839328
3548+606365830+604969944+601524969+598339800+597383025+597725352+596802322
3538+593697587+590087502+587790921+587164923+588127195+590580188+593214711
3528+593899017+591949564+588293557+583876361+579688913+577044265+576366013
3518+576759306+577458153+578404492+579138198+578779938+577487968+576610164
3508+576892653+577484802+576958718+574606058+571059985+567974905+566575749
3498+566463276+566218394+565507266+565680377+567367067+568757943+567765752
3488+564947054+562420969+560634121+558311170+555392175+553756556+554359315
3478+555645754+555882251+555487115+555729318+556517886+556808099+556025757
3468+554169227+551611483+549268772+547976663+547610853+547486134+547293366
3458+547091588+546938689+546961059+547328921+547861093+547787513+546157322
3448+542930302+539708187+538358710+538913530+539614987+538839951+536689451
3438+534742085+534409778+535398316+535935010+534933357+533269385+532187925
3428+531539626+530496782+528940970+527258386+525692972+524577071+524345653
3418+524839939+525205366+524712227+523366891+521731724+520230914+518729687
3408+517098556+516045136+516549198+518262814+519485136+519151576+517798064
3398+516317884+515027514+514081907+513654555+513494072+513083698+512328805
3388+511572520+511053012+510745822+510452618+509764869+508411669+506887724
3378+506241687+506813971+507568099+507307909+506229511+505492604+505484985
3368+505377347+504409440+502914544+501860532+501728507+502085515+502258209
3358+502203938+502430833+503258157+504554685+506014965+507260353+507814268
3348+507450128+506635746+506380462+507295420+508749334+509310555+508204534
3338+506001467+503779997+502242588+501654475+501861333+502192666+501966779
3328+501228376+500487816+499804694+498771974+497379880+496254099+495929828
3318+496200871+496258134+495522862+494350498+493660487+493878338+494616845
3308+495337366+495784165+495787331+495270431+494447143+493513850+492402715
3298+491233238+490716861+491530722+493247260+494417363+494096154+492986097
3288+492573217+493420719+494843428+496030856+496827183+497396231+497759153
3278+497903981+497996520+498217711+498448642+498220424+497047851+494931966
3268+492529313+490733908+490113406+490659215+491810741+492713592+492793851
3258+492260427+491726550+491261452+490374882+488888649+487292620+486275799
3248+486198184+486838098+487428298+487267398+486480325+485751420+485286774
3238+484691077+483885948+483338539+483200217+482980070+482298582+481389329
3228+480674340+480195570+479576390+478454226+476934317+475516445+474602565
3218+474260586+474318719+474409554+474144911+473464398+472517329+471283040
3208+469814410+468575006+467919646+467543017+466951877+466145635+465398048
3198+464706020+463884610+463080803+462761716+463009937+463119454+462296757
3188+460594029+458704762+457161370+456233296+456119222+456619144+456984988
3178+456589921+455511349+454190538+452849028+451472694+450141030+449084583
3168+448333935+447514125+446251552+444749489+443642355+443197470+442897795
3158+441964850+440278369+438572894+437585817+437233297+436843031+436047296
3148+435085128+434197688+433197983+431923616+430717298+429957917+429394435
3138+428521815+427420177+426652169+426447121+426398729+425940415+424946832
3128+423835697+423095764+422859231+422992579+423290653+423386985+422868798
3118+421772692+420635221+419849505+419219436+418252398+416776845+415241976
3108+414351162+414335646+414741115+414986205+414879124+414499851+413890934
3098+413045380+412058165+411193929+410724274+410636152+410635561+410499848
3088+410245782+409939879+409595396+409254322+408908551+408375892+407495862
3078+406431275+405584399+405214380+405240402+405368949+405290951+404817052
3068+403998459+403099643+402326243+401610975+400742251+399660269+398586011
3058+397824786+397415525+397116685+396824872+396686829+396601699+396044583
3048+394717789+393085302+391981090+391823251+392294924+392703002+392635267
3038+392210977+391657201+390908675+389853029+388741058+387968980+387428424
3028+386475371+384817313+383076840+382027281+381580587+381058574+380221648
3018+379463658+379127176+379107938+379066504+378727169+378039489+377237178
3008+376671887+376471083+376405610+376155823+375640385+374999392+374352868
2998+373717337+373108176+372565359+372081649+371597834+371056269+370439872
2988+369792165+369187771+368640118+368082132+367470850+366856123+366336197
2978+365961447+365626495+365081452+364190741+363161396+362352753+361893013
2968+361630354+361347169+360875704+360141163+359214202+358256210+357396184
2958+356710974+356259200+356041488+355980190+356023468+356154241+356223784
2948+355974902+355342606+354551811+353816122+353144549+352546417+352173406
2938+352059089+351891056+351282731+350246532+349210750+348526027+348127759
2928+347752591+347283249+346716427+345951619+344874960+343639662+342668102
2918+342266633+342290116+342325288+342194167+342078284+342108898+342068230
2908+341625745+340773755+339897273+339375260+339209698+339143772+339027367
2898+338896420+338761855+338476409+337822336+336747660+335554770+334735203
2888+334499645+334570059+334508621+334163302+333741134+333483102+333349789
2878+333106995+332668685+332186087+331813842+331602045+331597174+331782358
2868+331900641+331610777+330879158+330017253+329321746+328856126+328514356
2858+328109269+327507936+326812916+326240632+325778874+325242214+324662207
2848+324288118+324200449+324199475+324069084+323787917+323493356+323298293
2838+323153395+322924795+322592975+322292534+322120710+321951251+321520699
2828+320751960+319917539+319361154+319115820+318931402+318628770+318231511
2818+317736215+317016668+316113643+315382650+315099500+315082975+314941731
2808+314548229+314076034+313714712+313519579+313428570+313294840+312958532
2798+312376507+311661900+310946250+310262084+309638590+309199479+309016592
2788+308968305+308876983+308681745+308393968+307989717+307434723+306796026
2778+306217480+305672471+304904045+303873656+303044071+302810774+302888667
2768+302700318+302133322+301480153+300885465+300281279+299680364+299183816
2758+298766831+298282182+297668568+297047510+296600537+296384913+296281797
2748+296125976+295847210+295455343+294984609+294517041+294119852+293695666
2738+293084870+292361009+291774862+291360800+290865574+290152498+289447928
2728+289041711+288892795+288727563+288443057+288147904+287824225+287286069
2718+286537021+285849463+285389792+285031201+284629228+284263053+284091107
2708+284095195+284053187+283732795+283125357+282508751+282185733+282125425
2698+281986216+281528580+280854416+280222677+279799848+279620892+279641052
2688+279734288+279689792+279328262+278706073+278119821+277789705+277606418
2678+277302690+276806803+276300184+275932374+275602537+275121366+274535584
2668+274134151+274126775+274431408+274757592+274816508+274519164+274037280
2658+273617808+273344712+273132984+272883215+272567206+272228376+271951557
2648+271773662+271595611+271263582+270789717+270402268+270278645+270293395
2638+270146219+269717772+269211953+268926594+268918749+268963175+268868582
2628+268693679+268541215+268323904+267914973+267384210+266925618+266663724
2618+266604391+266667603+266721039+266651965+266438463+266149921+265881556
2608+265678717+265525453+265404073+265325902+265301375+265317570+265341992
2598+265328128+265247695+265114070+264926295+264633369+264246233+263939288
2588+263910986+264143031+264397393+264455561+264292294+264044543+263885590
2578+263890878+263969345+263977573+263906499+263852419+263833545+263777500
2568+263659808+263523364+263400662+263318525+263345452+263538289+263824222
2558+264016067+264030105+264012519+264099353+264155677+263973572+263600214
2548+263223202+262867969+262433259+261901522+261356269+260902391+260637297
2538+260580990+260618823+260623468+260619415+260717260+260894128+260952314
2528+260749144+260394206+260124189+260013455+259916480+259700073+259402816
2518+259124919+258894701+258706717+258581110+258532005+258558462+258670849
2508+258841995+258966906+258950625+258806058+258618996+258459469+258339620
2498+258234487+258147427+258141861+258261901+258438283+258531692+258459661
2488+258229930+257864886+257386985+256904110+256595668+256534787+256606592
2478+256655505+256628352+256556512+256486082+256415912+256263517+255960798
2468+255604469+255388775+255343740+255268126+254992073+254600415+254284267
2458+254062259+253815951+253538802+253346678+253258557+253165948+253017050
2448+252871039+252775542+252716592+252676550+252642178+252557675+252351548
2438+252019362+251616363+251207780+250908314+250874377+251103413+251337301
2428+251341041+251185759+251094907+251124999+251164485+251158449+251178679
2418+251296667+251477345+251605787+251597560+251476145+251334831+251246014
2408+251231959+251266226+251261356+251138167+250965108+250945921+251214286
2398+251699179+252235282+252828179+253835485+255869302+259539764+265372659
2388+273909377+285691119+301123945+320431133+343617640+370337453+399849349
2378+431143640+463041004+494243765+523588846+550368949+574165695+594471092
2368+610980768+623813078+632382724+634968751+631336471+624522779+617304975
2358+608348889+594166546+573015978+545837086+517014122+493760019+481769437
2348+482932652+495800968+515208906+533266254+544864552+550319548+551959480
2338+551804285+551216659+550914166+551203474+551833299+551939198+550788125
2328+548231181+544190092+538352901+530602020+521424465+511706076+502016110
2318+492230995+482061180+471697102+461567538+451619644+441277101+430128071
2308+418322116+406277332+394333611+382777269+371924958+361967636+352817356
2298+344250458+336130706+328373181+320819869+313385884+306283998+299882524
2288+294337006+289515454+285259923+281544375+278365712+275654791+273351583
2278+271432832+269798709+268247872+266647234+265062929+263668192+262548342
2268+261620720+260747579+259913784+259234488+258750586+258297525+257667387
2258+256845907+255989777+255215211+254519860+253894140+253384894+253019485
2248+252743658+252468701+252152188+251820142+251512048+251227784+250963664
2238+250762095+250652352+250585209+250491660+250345823+250150151+249952844
2228+249837621+249782411+249648507+249427021+249293743+249308233+249298196
2218+249127242+248844961+248549096+248313572+248225642+248314720+248484788
2208+248619857+248698916+248768460+248870636+249009862+249154081+249275235
2198+249375550+249458523+249519230+249573292+249644558+249738298+249862026
2188+250017186+250151734+250199952+250166050+250103638+250051297+250031746
2178+250053767+250086208+250072658+249968951+249756841+249471795+249225260
2168+249132599+249187044+249254883+249239141+249194072+249203395+249214267
2158+249111934+248909043+248728800+248627737+248539181+248397919+248268850
2148+248289011+248470733+248683452+248900885+249316460+250114022+251265009
2138+252628506+254130238+255784782+257637659+259748152+262167660+264864126
2128+267729825+270767191+274178472+278132449+282532530+287119811+291672564
2118+296023765+300004356+303415551+306053762+307817475+308723214+308742487
2108+307776110+305859499+303231411+300177503+296901395+293486199+289926089
2098+286235450+282500384+278816094+275267916+271970518+269033066+266485446
2088+264282814+262384241+260801015+259534859+258479943+257472828+256469087
2078+255599633+255013294+254696155+254484497+254252035+254033436+253960727
2068+254127054+254467902+254737450+254728039+254518121+254318413+254184839
2058+254104146+254156364+254357829+254561242+254653242+254670533+254715011
2048+254877738+255177134+255541900+255907031+256233877+256438977+256485647
2038+256492239+256584848+256742931+256881688+256978663+257086266+257255586
2028+257446283+257586693+257731416+258012218+258476812+259122171+259913975
2018+260623068+260912080+260740795+260431587+260279454+260327776+260472900
2008+260593984+260629869+260634740+260717208+260906531+261119754+261234316
1998+261225044+261331360+261954715+263126244+264196502+264432408+263844121
1988+263029095+262448949+262222871+262314036+262600491+262912673+263138490
1978+263247694+263258635+263217914+263167783+263216175+263637751+264609416
1968+265771135+266424374+266326581+265901038+265594266+265494438+265596023
1958+265981210+266609644+267212595+267541597+267640225+267807509+268293794
1948+269139121+270383152+272090593+273787041+274349705+273246711+271400895
1938+270092331+269714849+269915201+270275601+270616623+270947765+271302215
1928+271732507+272499158+273809323+275238641+276156104+276757246+277531186
1918+277921104+277016670+275376389+274519025+275034271+276204201+276991621
1908+276978889+276505319+276129125+276071897+276187136+276317735+276566670
1898+277188390+278133719+278902910+279300848+279935718+281164284+282119650
1888+281841423+280765338+279922828+279597322+279530561+279591999+279792055
1878+280110569+280501235+281008985+282102343+284653963+288858615+292969648
1868+294156450+291799371+288264848+285870527+285123741+285364709+285841948
1858+286195129+286441611+286725405+287103182+287660524+288644800+290345457
1848+293074746+296908353+300584050+301453991+298801934+295369448+293676393
1838+293799338+294479155+295088490+296446246+299527708+303498106+305926398
1828+305927199+305032140+304105701+302521153+300347031+298789549+298503233
1818+299014949+299657924+300462114+301938537+304068824+305870596+306392818
1808+305894671+305524547+306325571+308692043+311987807+314596482+315255808
1798+314616138+314772794+317345010+321876872+325231464+324327047+320580275
1788+317869876+317845628+319507269+321438944+323263538+324862524+325838224
1778+326574122+328564174+333031815+339295280+344135514+344568154+341539780
1768+337716820+334756668+333953662+335934703+339163776+341055653+341432212
1758+341880681+342646671+343580903+346106501+351513871+358245947+362521516
1748+362720302+360879844+359547171+359875686+361745332+364046296+365519797
1738+366872891+370670073+377476042+382627849+381253672+376104056+371366659
1728+368063242+366442165+366640151+368060006+370651217+375903253+384799953
1718+394541512+398671732+394917515+388108902+382881393+380971879+382633276
1708+387218296+392806918+397228915+401065896+407063292+415214041+420793860
1698+421074645+418063910+412618794+406200343+402506903+403152071+406860575
1688+412652296+421556998+432767605+438909167+435059906+427876787+423936412
1678+424750447+429085506+434011252+437431631+440664739+444964592+447589966
1668+445721537+442569210+442750705+446351641+449663164+450182951+450051900
1658+452983419+461281535+475476367+491043567+496412738+492496611+491666330
1648+496586997+501114511+499445494+494914293+493214106+496040597+503359116
1638+514794426+527509217+534697450+533798669+531610492+533944888+541397660
1628+551753806+562944408+574629749+586315995+596168044+604235959+613676800
1618+626484965+639570053+647551691+651175344+654809781+659809837+664862634
1608+668751590+671795097+675111351+679028974+682627161+685107637+687087635
1598+689864169+693920183+698596281+702902500+706436744+709504951+712581647
1588+715952381+719609849+723135675+725987005+728323871+731487888+737250387
1578+746029813+754873320+759166458+760274845+764110087+772901202+783443193
1568+791395677+797586710+805597014+816762986+831427160+851122840+873591366
1558+885516231+882600192+877343739+875589593+876410621+877815343+878218968
1548+877754183+878544178+882070560+887584176+893087773+893971351+883864157
1538+867656104+856562633+853026580+852813182+850840281+846929895+844646256
1528+845393183+847581638+849766893+852366209+855305000+856899950+856657886
1518+855195692+851896206+846907630+842831925+842258528+846129115+854192995
1508+863593062+865978355+856551988+844505012+837709898+836757715+839458686
1498+842147689+841235445+837362561+835081984+837182214+842249900+845715610
1488+843860227+837808003+831304910+826931340+825296730+825842087+828055521
1478+831987546+837654652+844171104+848792166+847504127+840413652+833535461
1468+831452417+833418499+834938374+832866184+830050200+831407748+838326364
1458+846683170+848194417+841492398+834043524+829740297+828049537+827578977
1448+826767900+824383302+820862208+817757890+816147911+816773631+820229948
1438+825324701+827998397+825703834+821884944+820422611+820871323+820502487
1428+818633537+817326920+817726649+818812980+820003678+822076911+824292363
1418+823655302+819660030+815205121+812086540+810075162+808598008+807529212
1408+806879069+806366554+805596179+804960857+805683779+808178450+811152865
1398+812945487+813078452+811746231+809358502+807292157+806963399+807920383
1388+808051260+806182449+804125914+804623193+808232930+813394756+818569733
1378+823582453+828751655+833334935+835897654+836484410+836810386+837871668
1368+839192339+840611812+843093541+846898724+850230982+850943745+849086971
1358+846478261+844714583+844345607+844891243+845213670+844437173+842880978
1348+841792004+841919193+842916742+844506891+847186153+850954529+854242953
1338+855295468+854284839+852935780+852594984+853487816+855301312+857708801
1328+860180789+861985727+863069135+864473997+867211705+871037832+874763069
1318+877618227+880021888+882863965+886338511+889970930+893657761+897943941
1308+903140626+908715193+913549304+916606239+917709130+917711426+917585001
1298+917747815+918383555+919568409+920741086+920810595+919383260+917366107
1288+915897234+915123659+914370123+913128423+911509051+909993351+908986480
1278+908466449+908067347+907635751+907570834+908381842+909922103+911266779
1268+911677292+911608201+912161212+913609281+915273740+916830352+918632785
1258+920636440+922160976+923082545+924393823+926944087+929950925+931566401
1248+931247244+930563078+930992586+932141329+932828974+932712569+932107027
1238+931227971+930174273+929059693+927786266+925940346+923327044+920572845
1228+918777370+918251008+917925032+916706572+915259268+915397033+917644004
1218+920381504+921740791+921626891+921204619+921271136+921894142+923099313
1208+924988441+927031756+928298990+928982531+930696321+934424898+938829362
1198+941350890+940958606+939284753+938911325+941020670+944714806+948273472
1188+950702043+952071697+952885071+953516149+954163021+955015706+956187897
1178+957492148+958785474+960560215+963280808+966113352+967676783+968100795
1168+968822325+970530548+972847098+975646523+978943782+981835677+983403074
1158+984364163+986132224+988416211+989212677+987520943+984908615+983808091
1148+985060784+987521987+989818080+991601449+992828050+993476453+994584492
1138+997657987+1002520625+1006899415+1008522892+1007087694+1004088509
1130+1001952099+1002856481+1006672728+1010397269+1011458830+1011354601
1121+1013429713+1018026909+1022274056+1023821205+1023217193+1022902489
1113+1024939959+1029102707+1032686700+1033094848+1030724862+1028777357
1104+1029918377+1033370588+1036032386+1036643217+1036701454+1037098956
1095+1037092138+1036005390+1034290486+1033583777+1035229241+1038065333
1087+1039590009+1040000314+1041881927+1045597494+1048591112+1049882421
1078+1051806200+1055718603+1059748247+1061669730+1061352451+1059512654
1070+1055818936+1050543139+1046332800+1045943647+1049365731+1054189405
1061+1058078152+1060231888+1060987720+1060907009+1060518621+1060455374
1053+1060971648+1061562370+1061624573+1061048254+1060239055+1059975004
1044+1060469221+1060568301+1059412739+1058897440+1061787178+1066928966
1035+1069674328+1067749367+1063260853+1058239505+1053049917+1049553802
1027+1050683271+1056005685+1061793301+1065857178+1068828879+1071228227
1018+1072614511+1073246771+1073741823+1073571216+1072111597+1070240489
1010+1069162926+1068670449+1067917121+1066858970+1065619219+1063616608
1001+1061064674+1060061003+1061808400+1063815116+1062562492+1058519837
993+1055325693+1054989142+1056199392+1056092240+1053344443+1050118710
984+1049768452+1052200014+1053282518+1049766295+1043210531+1038158360
975+1037458469+1039686375+1040641341+1038045364+1034252427+1032833441
967+1034117931+1035470191+1034875016+1032636603+1029574589+1025390759
958+1019619006+1013237606+1008137287+1005046050+1003081081+1001538106
950+1000494010+999418882+997209344+993781346+990049220+986669789+984034221
940+982803306+983212498+984136084+983682571+980840912+976503870+972902830
930+972074428+974843934+980478129+986380481+988871881+986143914+980394078
920+975521420+973251697+972543109+972275649+973169595+975984675+979345042
910+981069130+980782327+979893739+979340867+978433910+976081598+972395881
900+968809940+966639157+965844222+965571126+965362112+965368722+965623032
890+965609255+964754691+963350873+962652304+963509095+965131946+965784523
880+964611707+962431810+960804367+960599040+961273326+961373311+960053474
870+958204284+957540365+958510082+960003169+960964397+961242781+960960779
860+959958082+958194335+956221434+954949607+955083406+956538712+958172209
850+958777473+958481207+958415595+958921570+959088628+958574929+958337945
840+958725498+958544384+957122129+955902486+956306111+957579329+958455811
830+958992471+959092733+957636036+954479395+951564122+950888583+952519714
820+955139348+957504254+959015014+959666061+960205156+962271083+967077224
810+973244600+977128964+976161891+971005074+964373887+959201833+957425700
800+959060031+962171307+964562097+965716128+966822845+968901435+971416423
790+972950283+972816692+971564625+970137429+968841111+967237255+965171258
780+963717204+964336523+966819018+969142177+970189752+970949759+972002762
770+972434288+972210523+972749897+974029099+973823564+971078758+967397773
760+964589581+963291314+963804804+965824531+967428387+966760433+965096600
750+965911226+970762036+977995009+984460042+987285559+985681842+981829624
740+978735881+977364279+976738837+975994833+975314215+975437369+976758388
730+978358348+978455480+976392753+973090553+969550117+965787167+961966120
720+960261097+963775233+972158757+979350817+979464578+974271719+969781326
710+968147621+967651247+967481476+968297493+969559301+969656085+968198205
700+966070422+963902631+962164419+962050171+963687703+964885429+963842516
690+961616279+959714418+956736037+951246356+945000356+940144814+936897303
680+935614066+937259251+940402951+941666776+940182943+937326534+932308387
670+923539050+914964950+913827827+918597092+922871304+924139374+922496554
660+919071687+915856461+914675642+916062135+919205000+922265623+923143217
650+921689303+919783894+917673436+913639061+908013493+903848240+902759335
640+903578136+905136210+906693726+905434910+899547866+893598688+892164535
630+891867156+886450532+876577192+868881661+868355577+874424987+880623187
620+880038031+874665381+872754823+877793147+886131097+892312598+893765816
610+892458782+893258588+898715080+905752328+908737875+905111648+897344521
600+890118367
##END=
