##TITLE=<SNM>
##JCAMP-DX=4.24
##DATA TYPE=INFRARED SPECTRUM
##DATE=2/5/2025
##SAMPLING PROCEDURE=Instrument type and / or accessory
##ORIGIN=Admin
##XUNITS=1/CM
##YUNITS=ABSORBANCE
##RESOLUTION=4
##FIRSTX=4497.3318
##LASTX=599.83466
##DELTAX=-1.4281778
##MAXY=1.7788851
##MINY=0.22421849
##XFACTOR=1
##YFACTOR=1.6567159e-09
##NPOINTS=2730
##FIRSTY=0.24417143
##XYDATA=(X++(Y..Y))
4497+147382801+146912699+146335205+145808196+145630089+145829855+145898383
4487+145472355+144996560+145220475+146224916+147345051+147954835+147943214
4477+147411969+146420085+145316311+144810700+145247180+146107935+146577469
4467+146418745+146122416+146318547+147095564+147858280+147955825+147410054
4457+146849109+146738001+146840411+146521578+145566373+144561330+144365126
4447+145260671+146656494+147550195+147388701+146589054+146064474+146269627
4437+146932928+147499620+147463885+146595422+145294904+144436875+144513030
4427+145134714+145538544+145370502+144829480+144228169+143658688+143117945
4417+142739659+142686934+142929369+143336761+143856448+144371413+144536946
4407+144007338+142891070+141897288+141792531+142595604+143498777+143705288
4397+143168233+142476411+142286116+142802530+143558347+143810604+143305074
4387+142469899+141815880+141377214+140829689+140076966+139498887+139406173
4377+139510436+139316085+138782897+138210521+137800448+137681767+137983592
4367+138581000+139069684+139145713+138825297+138309234+137818788+137533234
4357+137548677+137897435+138602686+139557369+140304165+140245224+139301784
4347+138081451+137149101+136470645+135830990+135418372+135607470+136361875
4337+137120940+137287579+136795729+136157136+135898439+136054879+136336907
4327+136599408+136853680+136964554+136726931+136246873+135904213+135836917
4317+135778292+135539068+135339131+135485227+135958486+136525645+137070598
4307+137563311+137842767+137721927+137318501+137040997+137111369+137271704
4297+137091366+136531663+136159501+136685107+138171323+139835098+140804262
4287+140884555+140435492+139782283+139041378+138288898+137609605+137107682
4277+136984027+137371901+138015810+138449232+138602101+138861436+139464736
4267+140180564+140653489+140793784+140747804+140653003+140517116+140317054
4257+140163951+140215588+140335546+140111523+139497106+139191036+139910282
4247+141405915+142653142+143025015+142845532+142689704+142689083+142756577
4237+142904868+142974385+142540109+141470495+140209265+139280386+138857038
4227+138904484+139352773+139968449+140371659+140404362+140330293+140474842
4217+140772152+140979410+141211331+141792018+142593509+143033802+142817973
4207+142286494+141945247+141962057+142200651+142462253+142581447+142543338
4197+142623037+143133919+143940150+144543809+144716834+144657876+144471008
4187+143960468+143125338+142462955+142448321+142915733+143341834+143618034
4177+144072431+144780973+145377113+145639102+145843454+146324340+146907339
4167+147058984+146588074+145894075+145415555+145187637+145066959+144994707
4157+144901741+144723544+144628923+144886639+145343546+145370934+144680506
4147+143916657+143887901+144431127+144713857+144444736+144017619+143693146
4137+143417432+143322073+143803003+145005716+146458986+147345051+147203956
4127+146296709+145234426+144456527+144119489+144239492+144761536+145514592
4117+146197051+146612260+146938999+147398235+147619254+146961989+145613719
4107+144622366+144641704+145344085+146152898+146800090+147083134+146853273
4097+146378792+146168611+146355928+146560928+146349245+145711659+145138977
4087+145172715+145841116+146661387+147164012+147254451+147123258+146969544
4077+146848731+146729061+146584161+146387966+146156774+146006055+145975753
4067+145895874+145660068+145426438+145357064+145453709+145722228+146111011
4057+146310444+146026239+145408728+144894815+144724848+144845805+145172113
4047+145711929+146401215+146950521+147031084+146658104+146237634+146113493
4037+146138354+145899714+145395695+145150256+145479451+146012378+146239487
4027+146198355+146310390+146800386+147479652+147939257+147982313+147923274
4017+148202415+148691045+148817146+148377131+147732467+147227485+146864381
4007+146571722+146487318+146862268+147719623+148680899+149242113+149239604
3997+148997987+148993490+149308996+149526372+149380393+149261325+149653607
3987+150388449+150897586+150868166+150330436+149522424+148927184+149068225
3977+150069985+151567273+152978026+153805385+153853433+153254874+152344983
3967+151568784+151333509+151741027+152546835+153409506+154008640+154071493
3957+153641471+153137731+152864337+152783118+152919833+153413571+154049547
3947+154458558+154779730+155339290+155895719+155963555+155629449+155370518
3937+155416533+155787642+156483701+157285893+157691594+157416977+156846499
3927+156650565+157060440+157661589+157981340+158229243+159059642+160519001
3917+161543157+160954492+158982974+157107984+156442362+156883106+157863082
3907+159386948+161721714+164347467+166171045+166929003+167048304+166344385
3897+164531978+162476200+161555480+162120724+162980246+162863085+162439143
3887+163191956+164925626+166085382+166548989+167523460+168665713+168543893
3878+167477913+166974676+167557657+169011278+171148095+173017436+173147675
3868+171935644+171151476+171186878+171037284+170178193+169132054+168636013
3858+169358137+171970236+176370566+179875934+179162319+175553137+172171765
3848+170637914+171266767+173347782+175604603+177326436+178807759+180192159
3838+180667873+179743770+178234277+176925250+175876971+175252850+175435364
3828+176165116+176908125+178265667+181334448+185118804+186689712+185782645
3818+184773869+183968961+182019929+179399771+177926362+178455323+180625383
3808+183249121+185274605+187235618+190095602+192827255+193448318+192654796
3798+192501874+193062189+193435312+193802733+194923759+196919040+199533028
3788+202820372+206958713+211762405+217003098+222933698+229730566+236798274
3778+243686489+251214225+260551758+272037604+285133393+298485918+310322905
3768+319720935+326539120+330680572+333051819+335437637+338550922+341831970
3758+345208791+349754236+356695464+366579731+378569695+390241185+400015828
3748+409437748+420638291+432978065+443002177+450046085+457662145+468552958
3738+482975150+499177658+513919152+524367188+530465965+534501787+538738400
3728+544235488+550497927+555987712+559906355+562116207+561701781+558345503
3718+554076942+551544839+551610103+552829383+552414418+549097572+544918883
3708+542214879+541614053+543083738+546418932+550751066+554672119+557375332
3698+559205368+561012918+563438959+566658018+570488300+574042382+575433132
3688+574022270+572023320+571253723+571518518+572160646+573265158+575729731
3678+579878559+583154714+581718345+576988947+573508654+572008353+569767956
3668+565462806+560754671+557425772+555807968+555213330+555215489+555787425
3658+556145654+555324861+554616390+556696542+562121028+567928422+569494779
3648+566027798+561151468+557442898+555319752+554635890+555157709+556534751
3638+558518556+560614394+561910775+562570316+564604992+569410015+574797120
3628+577298570+578114254+580133136+583417314+586443677+588179236+588876950
3618+589757861+591660032+594142198+596543055+599297931+603178402+607322804
3608+609812309+610797808+612517824+615799268+618602570+618424409+615906769
3598+614413268+615780992+618476289+620390584+621946399+624514696+627350521
3588+628708459+629113999+630355585+632223182+633156872+632710247+631888950
3578+631692153+632282977+632955686+632823576+632288301+633072397+635825114
3568+638122284+636837164+632702332+628901083+626706019+625423921+624590536
3558+624689691+626429783+630076183+634314344+635996871+633583135+629910830
3548+628501156+629024558+628707668+626792293+624980102+624471379+624967078
3538+625635038+625834354+625290660+624108365+622537943+620758347+619039770
3528+617705289+616799014+616139328+615513606+614865362+614631508+615374301
3518+616417723+615727889+612568625+609085346+607477292+607087367+606151734
3508+605033910+605160119+605936300+605397787+603461042+602206791+602845105
3498+604233408+604539866+603472267+602167143+601184020+599809388+597642278
3488+595731112+595275852+595981301+596724094+596973958+596561835+595185188
3478+592884781+590622151+589981929+591716841+594540722+595897509+594363065
3468+591200598+588863746+588076376+587444358+585921031+584285778+583478512
3458+582908340+581642900+580165336+579622938+579977533+580090215+579388544
3448+578533321+578506589+579377787+580205055+580094892+578925332+577019995
3438+574678790+572450122+571367052+572059837+573867423+575301094+575234356
3428+573621408+571362231+569579794+568800663+568740580+568711439+567893560
3418+565765054+562966465+561135673+561259400+562517033+563065943+561830401
3408+559301500+557041711+556451535+557592348+559239223+560081926+559685057
3398+558542121+557491395+556837215+556092191+554985700+554114647+553825639
3388+553336236+551856981+549789817+548018784+546847173+546203103+546042427
3378+546229762+546732837+547692323+548764167+548906926+547497217+545400982
3368+544082116+543907193+544140831+544294707+544658117+545566335+546696823
3358+547288726+547063291+546800115+547439149+548560534+548716857+547548952
3348+546378026+546178458+546125967+544989507+543202212+542446251+543398398
3338+544657577+544288447+542261326+540477269+540271082+540947856+541101804
3328+540520334+540045106+540084466+540250538+540326199+540531307+540810673
3318+540795995+540554333+540304397+539687597+538692205+538407155+539378226
3308+540405602+540369192+539951637+540117853+540367466+539856944+539024602
3298+538861624+539319294+539519006+539039964+538082205+536841518+535699949
3288+535507721+536618421+538183338+539317747+540193370+541199771+542029234
3278+542225708+541902126+541660572+542054491+542782102+542537130+540497093
3268+537652920+535797448+535662496+536549416+537231155+536988846+535947798
3258+534500132+532914024+531739248+531628149+532199437+532206525+531342055
3248+530623259+530633225+530693667+530208222+529601927+529474315+529755228
3238+529803222+528978544+527303643+525676556+525160566+525915663+527117962
3228+527814525+527541994+526405174+524861880+523376689+522260340+521690563
3218+521499702+521062574+519913126+518355476+517003403+515996174+515123178
3208+514398157+514023091+513936025+513823775+513561031+513362291+513397765
3198+513344302+512576072+511024503+509538448+508874302+508634943+507979180
3188+507065601+506694636+506762022+506288593+504895792+503131343+501507783
3178+500174093+499204605+498440045+497417203+495977955+494484309+493238729
3168+492239128+491450067+490740050+489733289+488293610+486953768+486389388
3158+486615759+486930023+486591294+485557298+484535930+484148811+484044656
3148+483188965+481190266+478890579+477380815+476954984+477243453+477689611
3138+477562358+476176141+473574314+470664986+468504460+467613043+467761235
3128+468115722+467877227+467002324+466088133+465621036+465639241+465928069
3118+466096840+465677125+464635862+463539157+462803055+462126928+461035332
3108+459532908+457895532+456380660+455377676+455215453+455635492+455947274
3098+455741698+455140944+454617974+454632509+455053878+455133101+454412757
3088+453325551+452550090+452180024+451916308+451794992+452162395+452815568
3078+452792866+451563512+449848856+448621301+447927725+447272609+446532802
3068+445951044+445600946+445233147+444593753+443722016+442755622+441556705
3058+439969230+438403018+437550637+437477926+437478753+436881202+435760176
3048+434771835+434296068+433930679+433106721+432033329+431526837+431929750
3038+432641710+432798465+432151300+431125794+430133137+429154151+428113247
3028+427249029+426778370+426466661+425863496+424833386+423636735+422599609
3018+421853254+421360001+421068223+420903590+420641061+419996883+418962347
3008+417912809+417246504+416931844+416477878+415438234+413976321+412768085
2998+412246626+412195430+412188019+412020543+411535133+410519162+409085239
2988+407788823+407113775+406988969+406904098+406422898+405524429+404516481
2978+403750806+403403154+403358578+403263777+402837515+402153725+401472093
2968+400849141+400114299+399162044+398064188+396919741+395799327+394848799
2958+394213722+393811889+393413545+392944649+392458951+391904933+391196714
2948+390407185+389735052+389397187+389471984+389666983+389478532+388785927
2938+387979022+387368806+386798273+385947583+384845949+383906719+383372523
2928+382979720+382477689+382092189+381988789+381764541+381043190+380099858
2918+379415996+379018731+378564442+377806646+376852988+376078319+375770638
2908+375807084+375744015+375283250+374552761+373824790+373135532+372407633
2898+371713733+371111109+370472686+369753926+369118670+368632361+368171668
2888+367721948+367451360+367417973+367380017+366998618+366228734+365373475
2878+364656009+363976393+363256517+362713687+362574958+362740994+362830363
2868+362430975+361379566+359923553+358549821+357630522+357262687+357299492
2858+357433005+357409151+357230199+356985839+356539177+355666217+354484245
2848+353447227+352910406+352878961+353070722+353072197+352594163+351706919
2838+350740885+349957761+349410973+349046736+348809428+348638930+348386476
2828+347835371+346970038+346131256+345665382+345469089+345088194+344251283
2818+343181058+342366633+342056075+342010023+341787970+341204701+340428484
2808+339721129+339204203+338834857+338507929+338124192+337592371+336895557
2798+336180682+335629218+335203963+334678222+333919419+333021058+332220521
2788+331764757+331696292+331684743+331275642+330417036+329531376+328948611
2778+328487414+327775706+326821976+326011976+325597191+325410287+325085014
2768+324419356+323556002+322851021+322429076+321947408+321073908+320034551
2758+319295140+318902553+318560586+318139792+317708456+317250498+316683491
2748+316026288+315371424+314792077+314329693+313973227+313640290+313231945
2738+312699656+312054038+311339092+310591729+309831307+309112295+308518413
2728+308046495+307593573+307135434+306762311+306429482+305887156+305043697
2718+304161706+303489105+302944081+302359337+301766894+301235883+300715251
2708+300246283+300033710+300086669+300057905+299660262+299030025+298491512
2698+298131053+297744312+297109901+296268043+295535701+295177760+295097135
2688+294989166+294724425+294387926+294032198+293595232+293031121+292410742
2678+291887952+291548683+291289788+290944223+290527135+290214508+290078117
2668+289988982+289789325+289445955+289040217+288676754+288383087+288072384
2658+287657095+287190825+286793633+286455192+286058323+285590110+285174623
2648+284885435+284636452+284268348+283701287+283028470+282459970+282116564
2638+281896543+281615108+281240815+280893668+280649632+280467675+280265283
2628+279943967+279431934+278827457+278360252+278111503+277950881+277786427
2618+277626021+277401881+277012639+276516994+276064360+275714568+275474237
2608+275377799+275410107+275446103+275324966+274959470+274422253+273957728
2598+273808853+273959365+274119753+274036465+273739506+273405526+273088941
2588+272732565+272348306+272025156+271819922+271738342+271756313+271822818
2578+271908247+272005260+272008156+271735806+271194847+270652161+270298915
2568+270025431+269685479+269377583+269260224+269282746+269339609+269509243
2558+269867616+270229820+270349374+270238401+270057361+269823381+269443548
2548+268940437+268470138+268162044+268013241+267906711+267712630+267411156
2538+267124810+266988491+266991027+266995669+266902774+266725387+266499879
2528+266201050+265815873+265470165+265361692+265502994+265654316+265597561
2518+265339872+265002690+264715607+264636114+264828181+265117836+265274842
2508+265265902+265173763+265009400+264750433+264440774+264150039+263901974
2498+263695678+263568893+263577258+263676250+263694833+263502388+263138637
2488+262730705+262355369+262012664+261684117+261403582+261248896+261236196
2478+261282733+261290612+261181834+260890433+260452190+260043053+259796859
2468+259658021+259520497+259411341+259404325+259423357+259286445+258950180
2458+258579035+258321526+258139461+257927031+257683859+257479326+257327141
2448+257199780+257120072+257124101+257149717+257077492+256884203+256650636
2438+256434195+256240995+256090231+255986328+255858302+255647869+255443246
2428+255403365+255539181+255688560+255730222+255706926+255727289+255849505
2418+256039035+256162654+256108454+255951070+255857079+255845566+255827757
2408+255806620+255841662+255918492+256007663+256125687+256248371+256318419
2398+256387964+256602516+257026548+257631385+258507134+260019344+262732972
2388+267238427+274056504+283598949+296102402+311595000+329954652+350937503
2378+374127686+398995144+425013454+451468783+477121381+500393053+520063872
2368+535714808+547464117+555212683+558361657+556748386+551334478+542970624
2358+531162059+515069283+494642251+470895279+447360718+429676077+421921863
2348+425026873+437465118+455186276+472232026+484319453+490901373+493494206
2338+494080425+494108739+493933025+493204011+491421141+488202406+483669842
2328+478461690+472899554+466494320+458701142+449787011+440500511+431216206
2318+421855269+412346788+402799630+393375553+384141796+375002553+365815639
2308+356599800+347536685+338786251+330427794+322584283+315462052+309170830
2298+303558578+298331142+293335834+288646605+284381857+280540386+277042986
2288+273858322+271019870+268539413+266387234+264574125+263155205+262102051
2278+261277246+260587232+260035246+259580957+259106718+258561118+257976177
2268+257350724+256701814+256182190+255929627+255833010+255632578+255224737
2258+254741414+254361598+254132583+253960772+253720442+253355971+252907222
2248+252478405+252177363+252040450+251993031+251896396+251678174+251438293
2238+251355904+251451227+251557415+251578839+251605571+251712820+251841386
2228+251933704+252017262+252132013+252298031+252535628+252838685+253163760
2218+253473527+253762463+254064459+254451236+254961578+255541591+256130149
2208+256755061+257450886+258158925+258816145+259451726+260097505+260706642
2198+261249094+261793795+262428961+263170909+263991306+264858402+265693262
2188+266353343+266767822+267058342+267397322+267777066+268070283+268282065
2178+268567422+268990752+269394888+269548998+269393053+269101401+268890554
2168+268798308+268687677+268431858+268032705+267558286+267027958+266447082
2158+265919975+265582955+265423286+265303085+265163564+265118052+265356404
2148+265957841+266798727+267776778+269119857+271224115+274182876+277758221
2138+281805376+286443643+291775054+297642459+303759513+310018031+316582322
2128+323663107+331276829+339256191+347421772+355683055+363958296+372055269
2118+379769440+387087749+394117734+400888789+407458045+414173334+421681245
2108+430694279+441680180+454601928+468940328+483951618+498777551+512430651
2098+524130455+533890852+542435961+550206437+556786954+561595107+564381284
2088+564449965+560333985+551006111+536787408+518863336+498449867+476369701
2078+453268094+430154004+408286501+388577077+371514453+357330253+345805515
2068+336289730+328211214+321333307+315561602+310789318+306837108+303474355
2058+300623814+298381043+296718285+295452935+294520270+294014965+294090662
2048+294977203+296890725+299955386+304438230+310898438+319927950+331919281
2038+347080669+365390816+386462243+409472790+433122946+455825957+476357001
2028+494380838+510234903+524306062+536651700+547110709+555550836+561747436
2018+565270794+565898567+563880152+559559531+553050430+544296182+533208105
2008+519839696+504525727+487796255+470219332+452356494+434722294+417694784
1998+401562685+386707286+373525277+362028674+351768693+342367856+333883333
1988+326487852+320159070+314786392+310220189+306169868+302353077+298762783
1978+295612640+293056288+291028987+289301127+287683107+286192267+284925334
1968+283775167+282474865+280995682+279666346+278754926+278146761+277582920
1958+277024836+276578246+276235289+275924263+275686487+275607696+275647487
1948+275700698+275817661+276174253+276686161+276855903+276340272+275484797
1938+274899873+274769976+274839323+274846231+274779510+274796312+275010378
1928+275431982+276095948+277015553+277958634+278638305+279163919+279775250
1918+280222650+280087284+279616985+279519342+280117577+281133548+282067491
1908+282652594+283021778+283451243+284030482+284686209+285364927+286034542
1898+286640872+287138064+287508777+287861160+288446803+289293194+289946295
1888+289981517+289570815+289140649+288869702+288756984+288772004+288820628
1878+288804402+288724694+288691073+288970205+289918754+291523103+292955281
1868+293079098+291800130+290186176+289128686+288702370+288595570+288596937
1858+288648152+288727968+288813577+288904222+289088535+289533146+290372450
1848+291710726+293545313+295310212+295868188+294894077+293506224+292773162
1838+292787211+293097932+293492822+294324408+295968872+297982034+299256414
1828+299434701+299230816+299056504+298672048+298115852+297867355+298130369
1818+298644471+299154813+299765245+300727681+301959770+302928611+303194557
1808+302992399+303027621+303838304+305451503+307401632+308980437+309749350
1798+310023211+310697827+312468932+315038092+316874892+316632906+315085150
1788+314051226+314309042+315461332+316911193+318434412+319871357+320987130
1778+321953776+323468361+326118974+329595992+332385514+333109995+332237646
1768+331029195+330263052+330555730+332223975+334535211+336219898+337148551
1758+338086631+339178335+340310694+342104285+345177382+348823783+351322175
1748+352000676+351848923+352038884+353098317+354964654+357017607+358534099
1738+359943161+362719660+367154797+370654661+370579468+368449199+366686729
1728+365941237+366201571+367365914+369120505+371468726+375061016+380247762
1718+385725422+388765240+388460726+386834791+385866706+386261344+388067599
1708+391083780+394685569+398108081+401650434+406448945+412238603+416554403
1698+418254992+418637685+418153283+417134757+417101190+418928744+422191336
1688+426553762+432507946+439484108+443849809+443450925+441615061+441540767
1678+443858623+447812201+451997870+455537345+459041922+463128041+466869278
1668+469291434+471624472+475580388+481017250+486221013+490068276+493436714
1658+497903835+504553753+513735846+523294516+527668815+527118214+527536562
1648+530498885+533499272+534015370+533141870+533131797+534844618+538512785
1638+544043008+549951248+553182683+553007005+552577684+554349077+558511540
1628+564022947+569808863+575569847+581183538+586187265+590868129+596582054
1618+603959331+611252205+615921664+618526226+621218285+624548299+627664677
1608+629779080+631041894+632206704+633758202+635590325+637483969+639582902
1598+642226391+645529997+649218636+652788476+655899962+658628862+661264437
1588+663933254+666455931+668570766+670314024+672089086+674385032+677566458
1578+681603864+685463539+687792081+689486482+692722666+697999283+704064601
1568+710012992+716764547+725256121+735069801+746037065+760084515+779176671
1558+798148518+809335749+815631468+821532656+827126740+830969290+832962377
1548+834547190+836962509+839917493+842456503+844248763+844044770+839208086
1538+831531620+825514152+821714991+818283880+814542354+811910378+811388415
1528+812104081+812517751+812404998+812901632+814218916+814871333+813966641
1518+812316493+810642455+809224579+808682396+809665736+812227268+815735155
1508+818617968+818383754+815142317+812811976+813295371+815501301+817268592
1498+816816498+814357645+812185175+812137180+814065076+816616678+818138458
1488+817677945+815829632+814071192+813352216+813427625+813500084+813542537
1478+814559480+817413366+821617851+824996291+825128113+822513765+820252502
1468+820096215+821422853+822489156+822330135+822106067+823530420+826829205
1458+830277081+831118309+829086943+826840142+826124404+827009956+828448484
1448+829028011+828481944+827899322+827927889+828040858+827848162+827922204
1438+828740982+829493058+829032688+827864352+827088460+826494398+825170350
1428+823362332+822293726+822211481+822319342+822429937+822964708+823169924
1418+821356222+817669886+813948868+811315236+809794248+808874013+808101862
1408+807582849+807532697+807552196+807124639+806516186+806514747+807691358
1398+809910024+812092712+812924946+812216979+811147221+810843282+811349991
1388+811786327+811128009+809564279+808886101+810892428+815687953+821628213
1378+826939009+831100824+834354566+836731749+838432985+840200061+842382389
1368+844511183+846161187+847425656+848371075+848811872+848746177+848530024
1358+848600900+849090771+849558191+849312680+848209751+846989104+846760214
1348+847978847+849800393+850898932+851041476+851068315+851398085+851685978
1338+852019203+853159692+855289206+857634297+859488366+860872640+862098756
1328+863302135+864604092+866286548+868566016+871395293+874560602+877754261
1318+880682980+883397993+886293398+889546060+892831893+895765578+898290269
1308+900414530+901964588+903033555+904388830+906785945+909870952+912237198
1298+912708360+911364525+909247676+907385404+906237215+905641138+904962601
1288+903599842+901607331+899581505+897957620+896722582+895542589+893859413
1278+891396315+888802619+887140742+886812195+887570098+889202042+891544399
1268+894145867+896440733+898022668+898616730+898266812+897767515+898341357
1258+900406111+902942243+904507197+904767458+904605415+904922954+905703523
1248+906081936+905181057+903092989+900884109+899414425+898574852+897809896
1238+896903333+896064983+895508698+895159499+894780511+894244517+893556482
1228+892858876+892556161+892922125+893511582+893696003+893684706+894195803
1218+895380402+896848431+898432309+900292062+902496193+904908850+907322659
1208+909518299+911457995+913432733+915662552+918013544+920316757+922645371
1198+925171357+927862481+930457688+932708590+934612524+936436588+938430107
1188+940352389+941535692+941762423+941918350+943235058+945819112+948586149
1178+950732068+952379841+953853052+955548820+958231453+961913759+964940913
1168+965928210+965811859+966164223+966979620+967784510+969139930+971545679
1158+974245798+976177722+977229419+977793620+978164045+979056433+981483193
1148+985218963+988589991+990559980+991629737+992405918+992948532+993637791
1138+995144172+997455517+1000156354+1003171780+1006011347+1007206379+1006035092
1128+1004210093+1004359472+1007175870+1010949631+1013543616+1014267916
1120+1014004920+1013980312+1014534870+1015042586+1015299682+1016388292
1111+1018994220+1021903728+1023502788+1024093468+1025521635+1028876329
1103+1033490599+1037578301+1039463167+1038567828+1035623206+1032349030
1094+1030562167+1031443690+1035245226+1040583221+1044374611+1044510894
1085+1042706043+1042381453+1044048582+1045334637+1045083442+1044618036
1077+1045404506+1047882858+1051692165+1055231497+1056272904+1054564904
1068+1052405025+1051631003+1052062015+1053237691+1055495213+1058724273
1060+1061745383+1063658312+1065113749+1067660603+1071389320+1073741823
1051+1071972013+1066571561+1061347543+1059492539+1060502933+1061753155
1043+1061711708+1061095052+1060919554+1060977118+1060848030+1060925166
1034+1061408561+1061225291+1058937836+1054587714+1050162326+1048154201
1025+1049551715+1053425062+1058653541+1064502922+1069111219+1070019078
1017+1067008761+1062984739+1060878539+1061101672+1062438887+1063448563
1008+1063552610+1063517568+1064058311+1064406574+1063321274+1061029573
1000+1058965611+1058020192+1057723593+1056761983+1054396241+1051253023
991+1048323871+1046129670+1045340897+1046557660+1048551106+1048717610
983+1046212994+1042875497+1040846145+1040455141+1040533212+1039878852
974+1038051190+1035318188+1032190369+1028694426+1024432161+1019486610
965+1014730948+1011700987+1011333296+1012305986+1012212661+1010407305
957+1007890097+1004900935+1000679109+995077470+989067989+984118984+981384543
947+980803793+981093772+981048009+980278592+978596352+976146062+974085985
937+973419536+973445512+972846269+971855374+971779678+972789569+973698291
927+973686778+972916641+971521862+969588067+968184581+968438799+969424081
917+968923633+966551054+964201574+963365671+963652916+963652196+962381899
907+960149706+958110496+957098446+957293805+958574751+960485161+962144231
897+962945021+963025898+962652739+961943980+961125634+960372263+959847710
887+959649042+959163704+957630771+955498595+954004158+953707558+954179512
877+954469924+953505652+950982112+948179602+946867283+947551433+949385499
867+951322820+952404234+951339442+947499050+942682514+940277844+941712198
857+944785908+946244583+945512871+944734172+945340466+945926613+944326977
847+941089858+939231687+940470612+942980192+943399259+941085828+939180095
837+940717993+945293120+950043673+952689177+953285182+953500687+954464671
827+955441966+954642832+951918393+949864792+950841512+954235206+957404831
817+958445447+957728630+957319565+958822780+961391652+962477744+960606621
807+956425593+951741527+948833027+949530704+953418443+957600909+959543124
797+959736179+960235764+961520956+962250221+961461377+960060265+959659259
787+960865228+963380206+966497880+968936513+969476608+968278051+966818512
777+966527165+967482370+968220487+967376668+965622977+964741382+964795924
767+963955559+961350638+958336579+956576124+956138348+956235776+956978209
757+958707508+960035081+959077142+956897404+956969862+960694550+965251904
747+966607395+963876624+959886925+958073655+959585793+962587044+963654427
737+960645549+955129681+951551781+953109683+958775146+964496590+966846359
727+965423589+962344699+960039614+959201121+959038214+958929922+958893944
717+958814290+958365577+957999757+958832998+961389278+965378401+970379646
707+974938942+976097060+972684514+967569148+964030464+961666665+958025157
697+952948431+948538874+945343776+941727669+937250114+934586117+936755781
687+942931479+948383451+949466160+946808856+942253445+936342903+930679814
677+928198871+928877984+928738679+924623490+916875213+907459590+900755885
667+902616502+910582588+916054636+914858021+909891675+906723200+906690101
657+906819620+905166090+902116198+897103584+889327100+881326907+877524652
647+878964331+882303915+884786009+887114694+890614594+894110824+895411342
637+894433615+891972460+887624784+882192600+878108424+875442988+871758883
627+866666975+862914872+862280515+863741205+865938932+868160764+868215666
617+863178803+854962529+851332750+858413284+873758302+886645690+887137864
607+877563292+869574324+870283946+876638236+880543099+877300871
##END=
