##TITLE=<SNM>
##JCAMP-DX=4.24
##DATA TYPE=INFRARED SPECTRUM
##DATE=2/5/2025
##SAMPLING PROCEDURE=Instrument type and / or accessory
##ORIGIN=Admin
##XUNITS=1/CM
##YUNITS=ABSORBANCE
##RESOLUTION=4
##FIRSTX=4497.3318
##LASTX=599.83466
##DELTAX=-1.4281778
##MAXY=1.8392024
##MINY=0.38153118
##XFACTOR=1
##YFACTOR=1.7128907e-09
##NPOINTS=2730
##FIRSTY=0.39824632
##XYDATA=(X++(Y..Y))
4497+232499548+233375458+234384087+234994316+234779180+233822765+232570953
4487+231432477+230657463+230514340+231210520+232484968+233652517+234141025
4477+233727280+232603889+231584595+231558044+232287560+232657216+232389570
4467+232293128+232747986+233259617+233412866+233223845+232856277+232623010
4457+232786420+233163123+233334136+233047768+232288883+231465604+231318393
4447+231905447+232126360+231054783+229199213+227836970+227773621+229120970
4437+231537931+234125261+235579909+235237378+233906714+233044619+233182679
4427+233725679+234001747+233849090+233357433+232603297+231670928+230729807
4417+230115523+230254749+231275992+232728934+233855979+234058415+233176137
4407+231624891+230176141+229310252+228956708+229013585+229555628+230282326
4397+230534000+230199316+229918412+230195384+230896418+231693790+232394981
4387+232732292+232348300+231229571+229992548+229401736+229416072+229079074
4377+227740059+226021610+225192172+225861766+227436884+228648418+228720901
4367+228045252+227598676+227931133+228766573+229257203+228714029+227423626
4357+226443984+226325533+226494249+226131553+225239201+224569363+224649067
4347+225114642+225186969+224635043+223956366+223752696+224104900+224502447
4337+224573608+224758227+225608857+226640243+226811274+225944724+224791859
4327+223992626+223610164+223440769+223502987+224074418+225020828+225546638
4317+225174303+224354870+223739629+223583927+223916488+224583856+225232467
4307+225632989+225725203+225541941+225588413+226536981+227976335+228447966
4297+227273996+225343750+223767519+222873636+222741109+223628207+225357374
4287+226900373+227212160+226316468+225158505+224559654+224652668+225084334
4277+225326560+224918557+223885953+222975350+223026172+223985927+224950432
4267+225256530+225096147+225027666+225327918+225859087+226305715+226466620
4257+226289065+225778060+225203864+225156261+225913998+227053118+227979189
4247+228390845+228133655+227341590+226635545+226528403+226896841+227394170
4237+227908271+228378266+228638535+228509592+227807236+226578059+225426987
4227+225159062+225960174+227162191+227826374+227518537+226571204+225592380
4217+224861002+224421751+224416653+224833147+225296982+225577939+225859243
4207+226279182+226783018+227368367+227844748+227724922+226957876+226216668
4197+226070378+226436363+226916519+227149873+227006628+226745158+226691082
4187+226853205+227143905+227454057+227245758+226015015+224455470+224039829
4177+225242193+227117458+228622006+229489878+229839264+229700317+229070340
4167+228153351+227467332+227523130+228152986+228468148+227898510+226997058
4157+226807463+227628776+228690471+229014298+228439075+227588289+226922296
4147+226353371+225832867+225619296+225730562+225707630+225219801+224588954
4137+224493486+225202959+226238208+226960016+227338789+227756153+228235943
4127+228405913+228072359+227400399+226716050+226353962+226429978+226708499
4117+226919842+227101156+227387071+227635718+227529707+226958155+226168021
4107+225581053+225457191+225781610+226505280+227595666+228671332+229017795
4097+228357892+227303191+226682905+226678381+226848855+226762070+226439617
4087+226277634+226577746+227178668+227578719+227351734+226446629+225270223
4077+224499767+224605970+225516886+226762679+227780894+228104617+227655866
4067+226959094+226655536+226761061+226813762+226673875+226673701+227005706
4057+227443304+227675648+227624461+227516449+227716135+228248888+228625625
4047+228519823+228265521+228187053+227973951+227358624+226812422+226826411
4037+227097380+227129725+227089325+227425957+228006453+228226391+227856579
4027+227329516+227244105+227887340+229141692+230522378+231373790+231383012
4017+230897949+230454957+230116811+229652818+229189296+229109505+229326016
4007+229241997+228592950+227904739+227937292+228869174+230099203+230846919
3997+230896175+230552634+230046589+229454750+229070270+229254002+229941657
3987+230731634+231362934+231828196+232221845+232665533+233231465+233867097
3977+234417945+234683904+234515291+233960494+233328412+233023305+233167333
3967+233446498+233555536+233674109+234150333+234915534+235634403+236166059
3957+236467285+236420482+236231479+236677185+238372041+240681408+241923233
3947+241408505+240648454+241316396+242813549+243064441+241402886+239229439
3937+238139019+238867091+241390898+244762568+247044827+246900764+245431832
3927+244879819+245724655+246345289+245660870+244841124+245554042+247643869
3917+249066764+247988366+244823273+241584129+239731587+239566333+241332038
3907+245859043+253400417+261984833+268108462+269941361+267940354+262803136
3897+256068147+250987579+250191913+253098268+255786895+255145486+253516049
3887+254914099+259043993+262158196+263133679+263658394+262772810+258858661
3878+255090976+255768069+260891072+267436066+272918425+275192559+272616433
3868+268008975+266181087+267552082+268041198+264992903+260723678+259007491
3858+262079796+270857688+283706528+291740201+286161905+273684288+263545162
3848+258597417+258630179+262472819+268653881+275826799+282668634+287082600
3838+286836406+282646712+277854339+274295805+271542559+269120153+267634552
3828+267465348+268355282+271271311+277936531+286274475+289624119+286567054
3818+282763180+280047985+275557395+269406485+265489883+266665436+272805681
3808+280201739+284254000+285945689+289431827+293611412+293325062+289225007
3798+286060156+284187397+281441059+278411919+277470468+279180774+282392828
3788+286311483+290812321+295425451+300008133+305658652+312650204+318492528
3778+321046888+322356046+326182053+334528766+347245966+362103850+375741622
3768+386947489+396850494+405483210+412315181+418645716+425612353+431537287
3758+434407122+436082457+440815604+450988083+464052529+472862191+475162040
3748+478031563+486522652+496934122+501113916+500209907+502626537+512228856
3738+527717587+544647117+557327153+562472444+561697395+559563078+559921843
3728+564065552+570470589+576215862+579754788+581122894+580451716+578703132
3718+577896834+579404897+583270016+588165912+590730989+587692454+580313012
3708+572685567+567894029+567267496+569524336+571016356+569974339+568569174
3698+568747860+570472399+573900946+580152038+589524066+599208890+602973583
3688+597496078+587954620+581465164+581243085+586581155+594371872+602186320
3678+609569346+614301345+612819103+608815698+608634541+610389389+606443191
3668+595612409+583875496+574686399+568400996+565393641+566561556+571629248
3658+577234425+578635207+576435540+576963769+584231058+595564736+602155907
3648+597595391+585696528+573097397+563163387+556632591+552986836+551518165
3638+551955398+554156178+557576617+561990043+568284563+576157332+580245574
3628+575326990+566660033+561872706+563127650+569252218+576816053+580499980
3618+578357730+574941223+574670184+577804098+583089903+589477089+594110262
3608+593213317+587639144+582633983+581712053+584521689+588635124+592038060
3598+594378205+595866015+595968320+594787634+594743232+598628673+606133909
3588+612700303+613596831+609664066+605539008+604189901+605117121+606528933
3578+608116960+610441933+613070551+615422109+618567821+624455382+632942956
3568+639663644+638759878+630724395+622008129+616751451+614403302+612568907
3558+610083934+608009018+608006999+609779455+611054790+611053398+612038173
3548+615660195+619745444+620380920+616407371+610339976+605624471+604161646
3538+605569560+607884372+609129921+609014462+609263127+611199131+613302512
3528+612958920+610229737+607180554+604400497+601076065+597455573+594838857
3518+593935369+594538622+595878960+597103142+598258565+600080503+602131618
3508+602740647+601569983+600253586+599953282+599957458+599146741+597460445
3498+595276542+592698103+590070946+588320831+588187904+589360377+590709345
3488+591392354+591306195+590537027+589007111+586842416+584598800+582721987
3478+581360527+580801572+581213054+581810740+581364007+579993221+579248064
3468+579833987+580514943+579848915+577946699+575957315+574548983+573258546
3458+571221767+568555081+566465792+565757624+566098816+566802042+567332986
3448+567252881+566576414+565707029+564510162+562411861+559807602+558154189
3438+558172423+559002696+559433179+559245515+559084297+559468429+560240937
3428+560640554+559926332+558402819+557464360+557928666+558793353+558464933
3418+556818028+554952071+553506610+552433658+551754789+551549448+551571580
3408+551343968+550484952+548981170+547244800+545803966+544975503+544829527
3398+545188674+545579069+545583245+545092040+543845343+541608026+539323140
3388+538721000+540061756+541451819+541066330+539141983+537137601+535995332
3378+535898942+536765474+538035103+538633519+538212293+537740158+537864873
3368+537811737+536997784+536392687+537176157+539139199+540899475+540955082
3358+538905707+536238429+535026947+535600622+536504422+536627815+536213305
3348+535849704+535523719+534963024+534348670+534138318+534453551+535170244
3338+536178646+536896766+536345223+534630497+533546653+534513577+536380751
3328+536498959+534142772+531422950+530198419+529872539+529083571+527982258
3318+527628436+528214081+528966476+529136046+528516751+527366026+526091700
3308+525170883+525220157+526470508+528201240+529480334+530231373+530871024
3298+531485621+531985211+532469038+532960034+533139625+532585054+531232467
3288+529745527+529277846+530434000+532530317+534165321+534463642+533517562
3278+531841044+530025161+528855193+528974341+530196088+531668100+532748881
3268+533185905+532667489+531170980+529658185+529346258+530243099+531236156
3258+531627734+531595825+531228118+530396418+529591547+529723152+530879654
3248+532041375+532200156+531238661+529466206+526929211+523800620+520927931
3238+519274136+519069317+519884453+521199388+522541326+523295253+522862091
3228+521274655+519509855+518663054+518790866+519071892+518912449+518272763
3218+517335104+516483326+516040943+515733679+515003659+513876979+512932048
3208+512584210+512655441+512437329+511455616+510267832+509813513+509979046
3198+509757245+508884450+508066008+507500371+506488907+504814198+503517497
3188+503602264+504506343+504647587+503301508+501137996+499070839+497439419
3178+496153644+495015794+493981468+493368019+493552969+494350219+495067191
3168+495170818+494538196+493204470+491273859+489019004+486829046+485046082
3158+483801020+482985710+482504702+482417638+482568103+482332314+481229366
3148+479594675+478225247+477541646+477321481+477075740+476554679+475897037
3138+475306938+474729992+474004182+473148855+472316320+471568274+470750598
3128+469692191+468618195+468059727+468058474+467890506+467071194+466070169
3118+465486090+465239861+465064446+465018931+465036225+464670849+463698567
3108+462376846+460939667+459462226+458301584+458034686+458687386+459406411
3098+459229569+458055321+456589050+455492332+454962919+454995873+455463971
3088+455873819+455576890+454466530+453185279+452457172+452323271+452181088
3078+451577939+450744152+450208476+450135749+450229007+450065771+449427198
3068+448479553+447604530+446928585+446216345+445363663+444703725+444560288
3058+444702263+444572850+444018384+443419307+443032426+442578769+441649983
3048+440292804+439034415+438410979+438504759+438913354+439216337+439366211
3038+439412561+439091309+438151597+436883361+435780831+434857265+433795448
3028+432606202+431688204+431279540+431142089+430833956+430150494+429246450
3018+428442415+428017779+428061763+428339553+428334403+427610054+426261817
3008+424951928+424306013+424246057+424126318+423520038+422577125+421683172
2998+421109462+420856413+420521312+419581670+418105586+416864735+416493653
2988+416759263+416866371+416399664+415710217+415292367+415085668+414671646
2978+413950950+413250473+412785471+412306412+411445551+410315984+409486302
2968+409279465+409361030+409184223+408589774+407785287+407004426+406390247
2958+406029708+405877851+405674250+405161053+404457827+403960951+403760516
2948+403464631+402738229+401698022+400684261+399951769+399605810+399568716
2938+399604975+399533710+399316015+398888630+398187352+397397271+396865179
2928+396707789+396729746+396627024+396026172+394657126+392885680+391611389
2918+391186335+390939341+390193522+389170748+388466930+388207583+388063033
2908+387681442+386953056+386149821+385735485+385771013+385766351+385393598
2898+384945856+384757809+384630902+384244682+383748084+383503109+383495906
2888+383360716+382833183+381953567+380969001+380237415+380047593+380273535
2878+380365157+379937876+379153501+378310771+377499080+376870181+376672043
2868+376777411+376683283+376116950+375305085+374680119+374487444+374521894
2858+374279980+373542930+372594693+371770197+371175713+370873669+370876244
2848+370955513+370794817+370267597+369442092+368485538+367607523+366967419
2838+366607820+366451335+366321470+366066089+365697964+365321314+364950266
2828+364498906+363925614+363303222+362699273+362045320+361321111+360829071
2818+360909454+361317909+361329775+360627523+359641670+358868569+358329309
2808+357838627+357370703+356978881+356671965+356476611+356352105+356033845
2798+355272158+354219180+353313570+352817842+352634945+352480618+352120114
2788+351521037+350845996+350306771+350031278+349959908+349815462+349355193
2778+348684885+348081772+347563391+346972317+346385106+345995093+345686264
2768+345160366+344403064+343648093+342997864+342417508+341928774+341503372
2758+340969228+340296519+339779843+339712648+339995658+340171873+339824836
2748+338985029+338106004+337537688+337183134+336805579+336386720+335960726
2738+335410888+334710863+334082869+333653535+333210456+332548813+331849657
2728+331457348+331413573+331422759+331185161+330608180+329807694+329048756
2718+328553481+328227774+327740607+327020433+326451491+326382766+326647333
2708+326771038+326498364+325944872+325392597+325077609+325016817+324928535
2698+324468510+323653374+322928782+322671453+322703467+322517716+321954342
2688+321333655+320910620+320590307+320225105+319815850+319383523+318929692
2678+318516469+318207291+317976652+317735957+317385266+316889538+316363640
2668+316013819+315976655+316200126+316404249+316239656+315634106+314883659
2658+314300346+313918685+313587028+313183653+312736363+312396703+312227447
2648+312079383+311847352+311674651+311662541+311586195+311150319+310376071
2638+309561248+308954759+308571950+308279893+307987035+307703330+307461938
2628+307270551+307114031+306946341+306720782+306441496+306147177+305895415
2618+305760192+305743002+305730231+305637669+305472797+305192467+304720054
2608+304162769+303751912+303539507+303388033+303222674+303058151+302831235
2598+302449087+301996299+301686287+301581198+301510732+301301946+300979580
2588+300708297+300597989+300583861+300508385+300321312+300106263+299897094
2578+299625184+299268612+298893737+298565421+298323994+298152163+297883003
2568+297313956+296500804+295787382+295481301+295579813+295800674+295834950
2558+295608139+295315803+295206156+295358987+295658978+295889791+295842675
2548+295458787+294917683+294504843+294360641+294386461+294360572+294115735
2538+293672900+293227211+292955197+292873005+292910552+293002348+293063070
2528+293025837+292939086+292901505+292918660+292915667+292843219+292706638
2518+292539156+292379713+292258687+292195494+292171727+292102202+291923237
2508+291713372+291613729+291633564+291653764+291605569+291525378+291443307
2498+291328823+291153686+290938393+290736671+290619594+290647449+290797375
2488+290941925+290944308+290754939+290413487+290013070+289675619+289504276
2478+289534097+289730826+290000873+290193931+290161743+289864954+289401466
2468+288937752+288630871+288557952+288659509+288793776+288871062+288884668
2458+288835603+288709166+288507252+288278492+288146035+288220171+288406391
2448+288452393+288269358+288014238+287827027+287720093+287694709+287725870
2438+287709811+287622799+287619772+287813282+288054952+288070906+287786261
2428+287428524+287276284+287371995+287562964+287742729+287913621+288062503
2418+288124669+288078231+288002999+288027757+288223738+288525625+288765190
2408+288821440+288747756+288705895+288748174+288742171+288582502+288384016
2398+288348488+288521467+288796108+289074176+289329539+289586259+289860569
2388+290045084+289899108+289272297+288244843+286896415+285043316+282410696
2378+279067665+275521797+272266960+269335289+266465645+263605466+260953586
2368+258621376+256632009+255122955+254219815+253943000+254471681+256218264
2358+259501287+264282490+270299203+277414200+285352911+292921131+298296539
2348+300309446+299275607+296899412+294968105+293804505+292711474+291383003
2338+289991252+288555203+286908350+285116982+283566780+282605476+282239161
2328+282175847+282062667+281723929+281282138+281036048+281205095+281795647
2318+282608417+283337133+283795018+284084848+284460976+285050432+285777721
2308+286489021+287086236+287569646+287966183+288244686+288352333+288286495
2298+288068140+287734378+287429202+287357675+287549341+287796509+287902033
2288+287866609+287793691+287732168+287646514+287454465+287085697+286577250
2278+286114180+285883697+285853858+285799835+285604463+285399418+285327056
2268+285320445+285222506+284990667+284704021+284464091+284321403+284262160
2258+284276653+284398497+284603299+284742768+284680602+284430842+284109902
2248+283845370+283751086+283875714+284143726+284410607+284576035+284627762
2238+284631311+284684273+284799210+284833486+284641646+284295479+284043595
2228+284041107+284199315+284318863+284318167+284275818+284255670+284202255
2218+284074200+283939307+283831573+283678167+283473209+283352148+283408103
2208+283585936+283790007+283967475+284092504+284159889+284176070+284129615
2198+284021655+283919507+283911799+284014191+284168641+284309954+284388736
2188+284368884+284266179+284173808+284180698+284252034+284259428+284167023
2178+284107101+284197366+284369215+284474652+284477627+284432982+284358184
2168+284243473+284155296+284233695+284538332+284925473+285173129+285249857
2158+285331214+285526203+285723106+285727699+285462645+285054712+284756252
2148+284717157+284857896+285013581+285107813+285162359+285262315+285487178
2138+285764324+285900070+285839870+285740000+285753798+285925437+286248777
2128+286628264+286858729+286836597+286726863+286785166+287097597+287574656
2118+288066974+288412167+288524599+288527156+288640806+288893350+289104694
2108+289159135+289105355+289026799+289019317+289214219+289613157+290006998
2098+290240595+290408789+290636766+290875774+291066361+291281794+291564386
2088+291811971+291938931+292004455+292116782+292298669+292473841+292552588
2078+292530770+292503454+292584150+292824045+293163879+293457154+293636780
2068+293822669+294108776+294351977+294403060+294392725+294506583+294654299
2058+294632481+294464547+294364295+294469141+294733360+295012124+295201215
2048+295328679+295524659+295903710+296442100+296928363+297116271+297007980
2038+296880238+296960795+297199716+297392982+297422525+297359507+297380350
2028+297573930+297854713+298082081+298204777+298326187+298687700+299413788
2018+300164514+300338224+299798373+299063271+298662715+298675138+298910857
2008+299196720+299421026+299529456+299569821+299686220+299988716+300361121
1998+300552299+300668767+301293316+302685224+304118262+304570493+303914278
1988+302830400+301883729+301245539+300947949+300961451+301186592+301542990
1978+301969053+302361953+302610966+302660518+302633027+302950487+303977575
1968+305327413+305984498+305498130+304532599+303907284+303739594+303762665
1958+303901194+304217888+304632259+304963568+305153737+305346551+305751979
1948+306527655+307860511+309822509+311747483+312272336+310866022+308708913
1938+307247654+306804331+306923722+307192952+307439702+307620198+307763042
1928+308078136+309109330+311184004+313526410+314947165+315581980+316318020
1918+316692791+315473515+313151883+311640932+311937861+313390699+314599397
1908+314654064+313808828+312976885+312665898+312730865+312984471+313580729
1898+314711028+316071931+316968006+317377262+318313320+320178407+321546548
1888+320964417+319149021+317734286+317203587+317157236+317332269+317639463
1878+317927831+318128022+318450527+319613953+322732592+328087748+333489847
1868+335138109+332034155+327326201+324138628+323043962+323094836+323413653
1858+323608589+323555592+323328398+323196724+323608555+325022176+327625635
1848+331476313+336516132+341275552+342424258+338811736+333885044+331120332
1838+330831129+331365378+331778844+333172109+337027867+342386955+345848282
1828+345907160+344598592+343265075+341100450+338130815+335993297+335562362
1818+336074376+336563040+337229276+338984437+341810740+344132442+344436922
1808+343166180+342137178+342870574+345833006+350088903+353449281+354250394
1798+353365175+353448376+356433566+361639823+365064264+362876080+357116784
1788+352920217+352423584+354279380+356567224+358701158+360357911+360870863
1778+360904374+362789399+368317604+376489738+382721483+382728582+377912964
1768+372203602+367895996+366499808+368705981+372554780+374652837+374668114
1758+374660458+374952759+375344094+377786196+384092895+392201871+396931225
1748+396064275+392441975+389499517+388731114+389978681+391784890+392476772
1738+393052361+397026919+405258765+411522628+409072871+401561406+394713116
1728+389940090+387541416+387624443+389291392+392355328+398840261+410402839
1718+423662639+429609286+424519253+414944077+407257440+403743430+404878009
1708+410195792+417380472+423089486+427336301+433787410+443432356+450918418
1698+451973728+448171906+440498563+431254973+425580409+425626551+429627067
1688+436097246+446367576+459946575+467811272+462796959+452637772+445990404
1678+445412136+449757219+455152845+458463045+461271219+465387334+467363390
1668+463448859+457760271+456403057+459687159+462762405+461978447+459943130
1658+461697387+470466892+487029620+505357286+509902456+502188225+498612623
1648+502178308+504537974+498368552+488700152+483058994+483346319+489207572
1638+499946001+511650309+515268678+508082050+499556511+496654139+499168064
1628+503690755+507898596+512033536+515540970+516124771+514697509+515683258
1618+520783242+525551396+524613250+520445670+518332893+519437755+521814298
1608+523476966+524247144+525109918+526577963+528181928+529327085+530250859
1598+531770962+534159614+536665396+538371214+539257998+539988332+540943633
1588+541986485+542958803+543950119+545090857+546585592+549283701+554652324
1578+562952269+570341072+571032676+567262242+566592943+571141767+576224040
1568+576750390+574343155+573300929+575948616+584521201+601722397+623391546
1558+630857322+619766601+607140258+600069507+597670275+598087917+599848054
1548+603137410+610143299+622288877+638091693+654455725+666305523+665435789
1538+654358152+646356284+646780328+651734685+654516343+654455655+656649998
1528+663535417+673040268+682967215+694043738+706012126+714533037+717438226
1518+717954485+717764768+716312382+715303806+718056164+726396196+740078580
1508+755271600+760747087+750139567+736535131+730594329+732665349+739432178
1498+746071786+747801301+744662828+742411347+745870377+754532428+762494348
1488+763654016+758843305+753238858+750183064+750050346+751900678+755377872
1478+760996447+768897263+778090465+785787785+787125547+780750262+773026844
1468+770294599+773193595+777593415+779304627+779910315+784350779+794587147
1458+806274787+809450842+801815254+792465532+787015795+785588603+786362155
1448+786772977+785139156+782178081+779651560+778635119+780056883+784953545
1438+792259320+796808005+794490409+789221551+786501416+786709019+787100006
1428+786466966+786317754+787770766+790253790+793591167+798589717+803604134
1418+803526396+797112903+789401595+784403185+782356454+781732531+781515463
1408+781937698+783193686+784279235+784434850+784989386+787692054+792331700
1398+797300810+801114985+802120151+799200764+794567799+792320216+793802320
1388+796323204+796275531+793952437+793092099+795819264+801058404+807022798
1378+813421955+820647417+827484816+831235381+831339078+830718913+831753518
1368+833923294+836363586+839810367+844252989+847239536+846864904+844451823
1358+842237019+840848870+839775430+838751682+838175920+838259017+838279686
1348+837364646+835855610+835222709+836685117+840198083+844255912+846555343
1338+845805453+843108632+840810035+840303590+841390879+843160063+844944906
1328+846564669+848185685+850123777+852496423+855004849+857156460+858695562
1318+859902694+861361622+863203116+864938825+866461015+868538646+871577807
1308+874616133+876427283+877112659+877850857+879445148+881619586+883553155
1298+884776642+885331595+885147516+883900784+881863727+880123146+879280973
1288+878611326+877079670+874688791+872270490+870301776+868394166+865933622
1278+863032816+860624955+859494030+859447819+859648949+859615405+859618536
1268+860092620+860992210+861821717+862220638+862366162+862698410+863502724
1258+864797547+866236083+867158848+867246399+867203389+868286363+870868143
1248+873838822+875923761+877271615+878997371+881400778+883519749+884800165
1238+886141338+888373122+890756416+892097380+892667506+893815551+896148041
1228+899134239+902030173+904344150+905871421+906834342+907798726+909433939
1218+912202930+915708241+918631386+920284346+921659551+923832250+926463930
1208+928824535+930933693+932807271+933892611+934023241+933804572+933815151
1198+934383467+936060437+939194874+943039393+946386583+949255444+952675500
1188+956685865+960077178+962320794+964391396+967153985+969678070+969923603
1178+967361866+963959696+962188633+963196304+966836213+971917232+976154687
1168+977760879+977659548+978304349+980417613+982709737+984368543+985918223
1158+987847616+990261254+993351985+996708709+998987541+999561215+999464478
1148+999505678+999447984+999870776+1001962187+1004630334+1005143948+1003807856
1138+1004207055+1007880857+1012007724+1013437700+1012631090+1011869438
1130+1012042034+1013003703+1014875123+1017272684+1018603487+1017481610
1121+1014445998+1011760521+1011811743+1015819672+1023229075+1031498538
1113+1037195546+1038226324+1035847762+1033926721+1034487311+1035455453
1104+1034245259+1031938868+1031614971+1033814185+1035944778+1035782621
1095+1034277273+1034293001+1037001097+1040503137+1042684465+1044050135
1087+1045543026+1045114736+1040569461+1034686772+1032686809+1035874695
1078+1041175706+1045581094+1048454061+1050068048+1050602610+1051256111
1070+1053818265+1057464993+1058595988+1056541184+1055678132+1058986975
1061+1064075998+1067018074+1066788130+1064748499+1062740254+1062583247
1053+1064949420+1068488415+1070772397+1070045751+1066419484+1062460620
1044+1061262953+1062582273+1063703524+1063883150+1065282713+1069266283
1035+1072947740+1071907010+1066799823+1063470449+1065582738+1070407369
1027+1072717101+1071108682+1068449512+1067565163+1069151520+1072112038
1018+1073741823+1070945480+1063540323+1055612225+1051638955+1052228289
1010+1054332784+1055071608+1054310026+1053418509+1053480658+1054809860
1001+1056390093+1056631589+1054770469+1050903123+1046385130+1044221200
993+1046948644+1053529096+1059421111+1060485224+1056989518+1053030306
984+1052129254+1053520188+1052993281+1048436941+1042373861+1038035354
975+1036496600+1037611518+1040347591+1042005701+1040207217+1035879428
967+1031959677+1029915243+1028807145+1027017639+1023951057+1020298552
958+1017277138+1015709154+1015279403+1014777411+1013432968+1011128734
950+1007354298+1001831974+996007188+991966619+989755017+987714202+985443304
940+983764664+982587736+981446581+980694324+979835656+976898870+972047445
930+968959916+970523863+975637384+981013140+983881514+982740846+978254727
920+973378666+970915824+971326298+973206696+974986250+975961003+976029554
910+974823605+972002000+968701090+967400770+969498723+973446243+975644692
900+973582998+968279830+963200062+960756360+960540614+961011288+961681978
890+962565074+962529232+960272045+956766804+954540935+954304102+954184467
880+952799658+951280391+951208569+952114353+952121103+950525420+948758185
870+948431087+949320028+950093511+950402585+950557713+950139653+949424004
860+950560775+954703997+958996571+959349559+955888093+952587462+952136762
850+953476822+954136795+953279797+951690795+950208761+949174574+948720951
840+949107623+950367021+951645489+951666019+950137426+948052766+946720641
830+947039109+948735358+949903586+948828824+946192064+943815451+942667336
820+943317983+946239737+950554651+954696968+958374179+961703622+963445873
810+962600289+960474220+958863504+957715946+956085048+953637378+950420679
800+947194655+946159493+948978176+954030592+957716155+958417050+957534093
790+957530057+959909871+963937843+966878805+966650810+964050031+961269834
780+959551942+959228880+960279840+961976088+963028579+962744421+961574036
770+960568383+960798465+962731964+965850115+968705057+969795547+969294043
760+968559881+967478508+964798181+961168364+958767602+957804332+956314713
750+953762163+952579876+955218933+961084571+966880614+969796939+970173659
740+969650024+968626623+966932045+965630194+967241327+972355475+977450066
730+978823530+976914181+974461709+973092211+973161250+973973428+973418335
720+970479531+967720213+968294305+971667455+973823241+971549212+966679971
710+963959696+965036963+967640318+970044699+972983086+976339602+977454728
700+974504371+968894635+963289492+959016057+955302935+950568778+945176319
690+941724388+941572531+942787945+942454652+939559624+935257794+931588794
680+930081358+930368787+929763725+926492116+922292521+918940112+914471253
670+905138790+893366104+889337923+894314063+899574152+900921379+900458570
660+900229601+899353395+897622140+896407562+895658298+894381292+893103938
650+892464914+891216581+888407224+885103183+882480899+880285095+877954763
640+876020638+875509181+876575522+879109281+883858539+889990241+892610646
630+887649122+878285550+871846793+871825776+876205135+881634549+885719450
620+885979320+880793837+872841799+866886034+864510605+864782583+867630566
610+873470036+880836151+885904017+884235120+874832992+863997200+859864765
600+862998297
##END=
