##TITLE=<SNM>
##JCAMP-DX=4.24
##DATA TYPE=INFRARED SPECTRUM
##DATE=2/5/2025
##SAMPLING PROCEDURE=Instrument type and / or accessory
##ORIGIN=Admin
##XUNITS=1/CM
##YUNITS=ABSORBANCE
##RESOLUTION=4
##FIRSTX=4497.3318
##LASTX=599.83466
##DELTAX=-1.4281778
##MAXY=1.8435004
##MINY=0.37749833
##XFACTOR=1
##YFACTOR=1.7168935e-09
##NPOINTS=2730
##FIRSTY=0.39261019
##XYDATA=(X++(Y..Y))
4497+228674748+229426917+230518996+230615890+229186921+227523529+227126615
4487+227743545+227978785+227438283+227161192+227909230+228937500+228879923
4477+227589838+226493298+226869938+228486515+230308509+231675578+232326323
4467+232199191+231744699+231686219+232091570+232294818+231847877+231019157
4457+230405889+230466175+231238844+232175410+232510217+232106324+231676724
4447+231822690+232154788+231815521+230602142+229043906+227613567+226486285
4437+225940384+226336605+227592823+229132573+230385146+231003604+230805373
4427+229983666+229177235+228880183+228945120+228967200+228870237+228785598
4417+228664420+228384396+228110100+228240947+228905700+229594164+229507268
4407+228352335+226723364+225610612+225505126+225991296+226239607+225974702
4397+225799609+226391040+227667047+228956820+229664239+229607096+229064459
4387+228598753+228517291+228460512+227882689+226898249+226212892+226210861
4377+226514753+226495450+225906571+224962176+224082649+223655861+223838592
4367+224419157+224901109+224894062+224446913+223926008+223679034+223898235
4357+224602703+225432481+225704329+225112429+224163660+223628713+223830711
4347+224569132+225398216+225876610+225761525+225096633+224149635+223308608
4337+222901123+222953718+223159327+223095466+222486624+221396715+220304515
4327+219872884+220339249+221167273+221660144+221834543+222125798+222436789
4317+222354580+222087505+222203129+222713167+223218137+223620224+224120490
4307+224608258+224416831+223065332+221152918+219960352+220106248+221080447
4297+222004498+222347220+222056260+221437351+220813911+220270649+219957748
4287+220271968+221280015+222376469+222952955+223020044+222897807+222773539
4277+222790308+223085988+223495870+223609775+223386617+223300415+223570232
4267+223771016+223617291+223578391+224206361+225292938+226115929+226163178
4257+225380424+224178883+223322026+223308504+223839459+224255555+224366231
4247+224478505+224812565+225289553+225711325+225932330+225979979+226027436
4237+226144987+226196367+226073158+225813947+225404100+224759744+224055952
4227+223788704+224279127+225216700+225896919+225927487+225512572+225003541
4217+224453665+223840605+223472210+223697104+224192353+224126756+223228274
4207+222267476+222269281+223511023+225407086+227138748+228189514+228380855
4197+227778904+226736713+225801275+225360462+225356382+225403614+225249230
4187+225080941+225258187+225782528+226202078+226105878+225647186+225425069
4177+225768937+226289373+226386857+226060834+225842275+226038927+226473284
4167+226966085+227619347+228325169+228409010+227434481+226162553+225825021
4157+226437665+226750322+226048856+225109235+225007186+225725263+226384184
4147+226456932+226248911+226290866+226701129+227112225+226962041+226099786
4137+225309793+225688151+227294869+228995911+229731086+229438651+228750118
4127+228209754+227869081+227514069+227169351+227107903+227308616+227319517
4117+226868358+226326415+226340614+227107781+228104441+228572612+228258323
4107+227606658+227218145+227209535+227249529+227143556+227116425+227427955
4097+227912060+228122216+227866407+227380150+226999778+226874260+227015487
4087+227381295+227798606+228008138+227918083+227653803+227308443+226913143
4077+226686704+226931994+227549549+227994529+227847157+227211792+226524369
4067+226173402+226301714+226735967+227171382+227544099+228028291+228619809
4057+228967860+228725365+227976459+227229584+226913681+226914254+226776307
4047+226440372+226473301+227308668+228563568+229443390+229571772+229099956
4037+228289186+227371974+226661152+226500068+227102556+228322184+229439016
4027+229573681+228662042+227654341+227497683+228326454+229718241+231134121
4017+231972839+231764435+230657584+229489841+229077582+229487497+230118749
4007+230340553+229975092+229453232+229578333+230734187+232261941+233081495
3997+232918831+232440471+232321220+232629885+232978786+232929367+232380568
3987+231735135+231558844+232019133+232709403+233069622+233039245+233237164
3977+234258716+235774719+236724061+236551954+235777670+235159629+234917081
3967+235024980+235630420+236706894+237732143+238185993+238099236+237795866
3957+237440489+237093480+236947584+237460764+239192131+241901950+243930786
3947+243915389+242959660+243039716+243988676+244092079+242903210+241409825
3937+240471194+240889511+243478290+247608711+250747835+251047421+249687834
3927+249005740+249466533+249627479+248765259+248270391+249540462+251768293
3917+252522493+250343786+246376169+243003888+241565789+241936215+243931098
3907+248246975+255275066+263285149+269073321+271047409+269548833+264833178
3897+258023073+252390015+251110814+254320725+258318025+259213052+258316948
3887+259373703+262501249+264713962+265418465+266236196+265784429+261979806
3878+257752665+257557905+261729760+267649837+273328547+276869984+275975008
3868+272379639+270666099+271537936+271142879+267116070+262209665+260448841
3858+263870037+272945762+285947185+294638929+290207238+277925055+266691764
3848+260273036+259540985+263587652+270032834+276572532+282114442+285488562
3838+285075904+281633270+278099124+275747354+273695831+271407506+269685790
3828+269209149+270196506+273848081+281414122+290040667+293032767+289985954
3818+286902377+284739656+279749827+272261169+266825527+266598116+271692894
3808+278813452+283404266+285804691+289862572+295031330+296492585+294002956
3798+291275657+288753829+285387676+282498685+281929229+283586077+286697723
3788+291252779+296920362+302239114+306592814+311323744+317107003+322250540
3778+325517889+328659461+334246502+343587306+356638964+371323029+384058384
3768+393487681+400905396+407118341+412938782+420156529+428885489+436018319
3758+439041403+440080713+443622566+452700982+466182778+477256113+481263481
3748+483513149+489823752+498811176+504142738+505468043+509415039+520228554
3738+537222833+554958103+566440259+569625192+567902104+565723050+566336700
3728+571127933+578585607+584599245+586097403+583554762+579680879+577592366
3718+578952283+583006240+588145958+593404962+596949176+595177868+587005936
3708+576493829+569240289+568300651+572165993+575819425+575837339+573760212
3698+572572975+573658840+577632637+585213242+596152987+606950394+611026257
3688+605964304+597464301+591393623+589628078+591872920+597203788+605095557
3678+614900834+622257344+620873125+614440701+611067431+610040099+605173531
3668+596135698+588015702+583340075+581775295+582184221+584125086+587872461
3658+592015050+593011346+590601391+589684805+593696443+600777858+604944054
3648+602097296+594439099+586057271+579331561+574728909+571473745+569024422
3638+568134740+569640884+572661190+575884033+580426730+587999385+594855420
3628+593616664+585968605+580070469+580271373+586544691+595874768+602954309
3618+604693123+603853954+603859647+604815047+605615542+606385972+607413513
3608+607634310+606200863+604389561+604580086+607769496+612231269+615178775
3598+616133481+616914117+618493027+620227952+622341149+626378269+632146496
3588+636005450+634710314+630593138+628291916+629020617+630349844+629651208
3578+627275970+625823568+626646559+628718721+631189569+634959926+640153108
3568+643781683+642860306+638992811+636078355+636050027+638220437+639974873
3558+639238882+637284270+636784976+637678928+637853899+637019035+636562582
3548+636668676+636637986+636566331+636421494+635349724+633464059+632446100
3538+633435591+635360417+636009269+634614288+632750703+632538099+634038271
3528+634889313+633115713+629422704+625869602+623545953+622381004+622211726
3518+622817530+623345569+622961535+622009884+621385888+621073092+620537207
3508+620232743+621226748+623339667+624652023+623225519+619369898+615219879
3498+612192526+610228957+609254671+610009131+612746046+616069602+617988248
3488+617762660+616317964+615169263+614923886+614426120+611982074+607725962
3478+603747374+601969539+602343922+603330220+604098636+605358848+607603898
3468+609838951+610877670+610737068+609923381+608340028+605653522+602353921
3458+599959589+599756913+601266251+602698239+603103312+603040614+602992219
3448+602460084+601021915+598973985+596464117+593313380+590340670+589312296
3438+590629651+592394085+592768538+592139127+591798349+591838481+591395498
3428+589955247+587784142+585536870+583791112+582736979+582113851+581499819
3418+580649680+579558538+578181263+576312158+574241453+573305321+574655414
3408+577338067+578814944+577622673+574750120+572530760+572803910+575596406
3398+578670593+579240118+576882898+573551705+571030310+569911360+570063176
3388+570625827+570410862+569234769+568054857+567658116+567930155+568050136
3378+567156775+565491074+564440446+564563760+564588027+563393256+561693359
3368+560789201+561000868+561964010+563290842+564531404+565571304+566991558
3358+568996336+570318620+569322672+566212553+563072510+561697560+562058369
3348+562793701+562909967+562659348+562631436+562617792+562024208+561070787
3338+560714873+561404934+562504720+562897295+561991262+560370103+559220290
3328+558905689+558686974+557995594+556978468+555840667+554872006+554740847
3318+555659343+556851510+557501230+557461306+556884456+556216787+556280908
3308+557221692+558009203+557845132+557230302+557023183+557343617+557898353
3298+558625908+559464313+559898235+559427201+558469163+558246838+559539405
3288+561709850+563206863+562981656+561205835+558889476+557301506+557429575
3278+559205293+561396255+562839874+563343160+562956660+561448122+559233066
3268+557670334+557633396+558424795+558631081+557752856+556617138+556331386
3258+557111849+558166885+558677948+558751304+559078438+559762702+560139585
3248+559745587+558791263+557620273+556238901+554547059+552844246+551915265
3238+552353493+553769512+555096969+555779809+556116733+556355410+556189638
3228+555254409+553511984+551129248+548524915+546598250+546199669+547126948
3218+548189866+548473465+548022080+547191764+546070280+544756085+543610646
3208+543023624+543108090+543486153+543289970+541819619+539373872+537032239
3198+535592717+535089084+535134320+535193338+534801943+534057065+533578323
3188+533651124+533870810+533805578+533428174+532746445+531620309+530164331
3178+528913111+528325776+528328866+528475925+528333275+527594159+526025387
3168+523700245+521353787+519891005+519255970+518364900+516623170+514926050
3158+514561006+515562544+516637785+516585398+515420588+514077682+513320027
3148+513157762+513203102+513160748+512740434+511545351+509581088+507543434
3138+506125679+505323483+504662896+503857854+503073225+502705889+502959771
3128+503508223+503711524+503329433+502752826+502381810+502098731+501580517
3118+500794950+499861075+498826868+497883689+497317496+497015462+496454408
3108+495353962+493961967+492584726+491267441+490032815+489132788+488891196
3098+489211907+489356085+488644014+487473128+486999421+487619910+488476888
3088+488600722+487864870+486762619+485867695+485522648+485581735+485500984
3078+484942985+484097498+483250622+482404718+481582040+481175543+481591656
3068+482582398+483269924+482878703+481340829+479443256+478263761+478055601
3058+477924372+477123009+476152265+475838635+476010344+475853564+475090632
3048+474171477+473491622+472875542+471916323+470607925+469355386+468476918
3038+468049558+468085802+468469038+468850399+468903516+468546386+467853409
3028+466990945+466226487+465733511+465370376+464854141+464125926+463391254
3018+462787255+462158469+461290034+460263292+459358439+458644181+457888679
3008+456897278+455796415+454923294+454500654+454454308+454466042+454234448
2998+453716685+453021069+452182664+451303120+450720576+450582439+450395421
2988+449550732+448210187+447114948+446630687+446507374+446437732+446369375
2978+446244049+445768536+444695412+443311749+442355897+442165720+442104619
2968+441286974+439743858+438341725+437711828+437747794+437943596+437864164
2958+437410662+436780348+436124482+435426957+434794977+434446214+434235554
2948+433658044+432501149+431136511+430142298+429850505+430074461+430169168
2938+429671715+428877712+428395846+428269721+427985566+427213469+426176243
2928+425372415+425115270+425192479+424916274+423775488+422095033+420720465
2918+420041756+419752359+419573673+419624671+419918721+420126013+420018913
2908+419576068+418638547+417153026+415645042+414739183+414420346+414315849
2898+414307760+414335256+414060092+413248870+412151063+411221943+410737890
2888+410720775+410949800+411050305+410735912+409970724+408935476+407921197
2878+407169062+406711706+406394848+406039871+405569288+405056941+404647633
2868+404348411+403984894+403441371+402812967+402254828+401813373+401423332
2858+400972260+400384369+399700939+399034798+398450622+398010485+397849227
2848+397967090+398013714+397603816+396850952+396236816+395961340+395768490
2838+395366888+394723833+393973643+393233451+392513742+391767371+391016590
2828+390321495+389676878+389122802+388825316+388814415+388788933+388429790
2818+387770071+387076260+386537459+386187829+385917907+385468085+384662661
2808+383726945+383081078+382756409+382336616+381529907+380495597+379575781
2798+378985669+378750846+378668464+378358792+377617107+376722496+376187132
2788+376141653+376163560+375824483+375187226+374583748+374131877+373701530
2778+373192863+372644862+372157164+371790557+371496924+371157986+370696638
2768+370087397+369312662+368429716+367621236+367044698+366673787+366372308
2758+366047847+365640344+365063285+364314067+363573736+363020042+362590737
2748+362106128+361562849+361098584+360724895+360312219+359800289+359249129
2738+358733449+358280189+357805857+357113782+356154390+355219473+354606448
2728+354223906+353808001+353342001+352974387+352713492+352452111+352162054
2718+351908484+351732888+351543127+351134826+350410742+349541926+348803713
2708+348308897+347978847+347699170+347431506+347203904+347020392+346794283
2698+346411325+345891687+345426416+345150940+344926463+344476189+343715202
2688+342818889+342011660+341407036+340996756+340701491+340463023+340285240
2678+340131445+339868398+339393059+338737749+338031232+337438273+337130233
2668+337194980+337490556+337640254+337343636+336715544+336124980+335708243
2658+335300774+334810750+334344264+333968040+333627991+333321097+333148590
2648+333146959+333145327+332907762+332454259+332059011+331827660+331533715
2638+331020187+330464410+330073119+329797852+329506753+329199616+328903900
2628+328538612+328035222+327487464+327066943+326847881+326787717+326818302
2618+326850485+326722068+326278529+325583990+324955828+324661987+324639526
2608+324625222+324464797+324170540+323817507+323525020+323370566+323221805
2598+322867071+322390482+322158367+322322785+322558719+322452243+321992978
2588+321482505+321066705+320639900+320192854+319930119+319935327+319976466
2578+319783442+319349971+318858384+318461123+318222238+318124337+318042823
2568+317826087+317446358+316986433+316524772+316163650+316054883+316198575
2558+316324040+316171739+315800376+315441754+315178186+314944265+314706457
2548+314478300+314285102+314211676+314320339+314479133+314466218+314230007
2538+313868503+313454716+313074639+312892933+312969761+313127652+313138205
2528+312963755+312769099+312735771+312842524+312847767+312571353+312142777
2518+311863726+311880251+312073275+312210023+312137952+311880008+311593145
2508+311415743+311338533+311239348+311052295+310866353+310831359+310977203
2498+311140857+311103225+310832331+310531894+310376919+310301550+310153032
2488+309933728+309751743+309627597+309486960+309307198+309191765+309269635
2478+309492550+309600935+309389997+308944236+308512258+308237824+308103540
2468+308036884+307976026+307894893+307816503+307779495+307786369+307791855
2458+307757624+307745612+307918778+308351555+308855327+309104071+308935800
2448+308466918+307952280+307598240+307468123+307479024+307463471+307283118
2438+306951123+306634300+306502169+306606492+306885266+307167130+307215664
2428+306952477+306599306+306441311+306534941+306771778+307078047+307397266
2418+307596123+307550505+307299469+307022778+306872699+306888807+307056349
2408+307347413+307689857+307984254+308180541+308294446+308362734+308415850
2398+308478340+308573429+308707226+308812973+308758780+308525381+308330586
2388+308386966+308517674+308223937+307187925+305485807+303264814+300532690
2378+297392959+294171192+291099314+288096106+285023065+281952107+279059054
2368+276486852+274436075+273137641+272579537+272522203+273015872+274643402
2358+277917070+282636197+288259048+294681526+301848795+308684938+313411390
2348+314901807+313479643+310834345+308806967+307869654+307396919+306845307
2338+305938580+304499926+302640507+300833197+299594267+299091467+299041440
2328+298968397+298569226+297922595+297421010+297428092+297980884+298851575
2318+299753060+300424062+300747169+300879543+301121205+301632060+302354650
2308+303143758+303874785+304436811+304704406+304627370+304339882+304039862
2298+303791951+303603752+303586672+303821807+304169702+304417786+304538461
2288+304661740+304845668+304977938+304917531+304676841+304390534+304125646
2278+303843192+303564904+303417845+303437738+303467004+303337650+303040337
2268+302644950+302200023+301802969+301622547+301728433+301980857+302166764
2258+302199606+302156766+302144685+302148503+302062615+301885421+301775890
2248+301844699+301998736+302096672+302157981+302287613+302463903+302545939
2238+302468903+302312018+302166799+302033383+301892712+301837617+302017622
2228+302383604+302618357+302510805+302282891+302288064+302503307+302604436
2218+302453072+302238072+302194676+302371766+302622697+302730943+302614608
2208+302430992+302398324+302536496+302684076+302721917+302654740+302514728
2198+302340937+302233420+302276156+302413009+302515180+302539898+302522783
2188+302472131+302373987+302252688+302142671+302046159+301980128+302015886
2178+302207348+302519033+302864533+303158061+303312098+303288943+303179828
2168+303118831+303111888+303086823+303076685+303171462+303311647+303332095
2158+303221245+303165629+303307099+303582679+303833333+303979386+304067357
2148+304197336+304415807+304674515+304917878+305162526+305409916+305566419
2138+305583464+305583083+305686711+305826307+305889178+305936081+306102303
2128+306372711+306619962+306812917+307057738+307443092+307921139+308356172
2118+308672926+308935106+309247173+309614439+309972541+310315506+310685550
2108+311063960+311389324+311670563+311993878+312422350+312926018+313395837
2098+313724464+313898255+314016153+314219210+314585227+315056261+315476574
2088+315732158+315824122+315805549+315735803+315691296+315716223+315783191
2078+315896298+316143063+316529181+316891413+317110614+317290098+317619454
2068+318150028+318728024+319090430+319085257+318826098+318539860+318329755
2058+318203942+318204290+318343989+318519724+318615854+318652237+318757915
2048+318996452+319273282+319481894+319654782+319833538+319914497+319801599
2038+319585176+319435964+319435408+319548133+319675855+319774346+319932411
2028+320255067+320717908+321208626+321635397+322013217+322516573+323284087
2018+324092219+324505450+324450424+324317634+324454278+324884833+325488241
2008+326154209+326794626+327406228+328081985+328863976+329656416+330326481
1998+330876773+331583706+332850410+334631821+336139145+336596778+336165251
1988+335565037+335152951+334885738+334746524+334755585+334808007+334743296
1978+334500002+334192622+334019768+334034314+334183213+334624114+335571911
1968+336659025+336973488+336101165+334670078+333540887+332955879+332717133
1958+332740671+333049544+333452846+333631637+333527279+333406534+333537485
1948+334053339+335176211+337052989+338955943+339330986+337582625+335041372
1938+333281242+332590522+332426902+332361080+332290189+332258735+332277378
1928+332405170+333085024+334724792+336675828+337773080+338140763+338709281
1918+339045372+337858691+335566564+334037334+334174013+335219017+335875299
1908+335555386+334685666+334017650+333845838+333978594+334215708+334625016
1898+335386490+336358241+337009524+337265350+337936872+339388129+340449727
1888+339902698+338317678+337022022+336444199+336363379+336620177+337045316
1878+337407688+337673547+338093514+339337721+342466343+347771138+353071385
1868+354534237+351196587+346350536+343223962+342310361+342439715+342634683
1858+342720364+342874575+343154946+343479823+344008105+345261477+347690977
1848+351479596+356479163+361137362+362222915+358715570+353990888+351334967
1838+350956036+351323892+351741706+353309055+357205503+362311268+365523071
1828+365696272+364769548+363764018+361689946+358612184+356374354+356044512
1818+356819837+357485180+358104489+359694056+362367336+364574372+364783296
1808+363409041+362261658+362929744+365936337+370248308+373537703+374207316
1798+373269969+373298401+376080205+381052624+384555699+382843374+377606588
1788+373724617+373367522+375257874+377443768+379338355+380777530+381244294
1778+381310082+383082432+388261831+395981719+402039725+402483715+398420488
1768+393137252+388676798+386829252+388633680+392196919+394045333+393844775
1758+393695911+393933407+394368822+396933751+403308372+411206286+415401505
1748+414052802+410424712+407959246+407739490+409137561+410642524+411002986
1738+411484192+415357381+423273348+429365202+427308870+420381631+413866999
1728+409195225+406850434+407035994+408830528+411939813+418259998+429430747
1718+442320695+448314475+443588336+434219966+426464841+422786239+423806212
1708+429051121+436163782+441865248+446198292+452660052+462029428+468990481
1698+469592153+465726256+458583149+450221178+445242372+445639147+449809926
1688+456333828+466388856+479436660+486880725+482000409+472232036+465815928
1678+465183566+469388749+475032204+479117754+482695122+487148008+489215657
1668+485562919+480253506+479042211+482153579+485097995+484614948+483075026
1658+485000233+493451633+509441215+527459112+532420040+525322099+522016214
1648+525605247+528033845+522196358+513008828+507859459+508663356+514966738
1638+525752758+536926909+539904549+532516691+523883098+520553605+522443506
1628+526582553+530852274+535119634+538356746+538414445+536761520+537902028
1618+543178321+547887172+546694936+542199245+539811370+540911052+543581346
1608+545477807+546138811+546718959+548009062+549607204+550851064+551827467
1598+553144648+555091414+557325668+559289793+560736224+561744879+562442994
1588+562962979+563544030+564436037+565703990+567389966+570137851+575265418
1578+583096920+590159033+591047708+587690199+586997881+590850517+595021852
1568+595308958+593475229+593147504+596054600+604241044+620556788+641508165
1558+649417015+639160075+626567197+618927053+616000586+616349556+618460671
1548+622111048+628962709+640121099+654297053+669130261+680321423+679818658
1538+669366819+661622873+661871096+666333425+668665406+668564658+671120075
1528+678573722+688518282+698275094+708359770+718780364+725731592+727355494
1518+726843147+726131110+724983381+724645589+727479224+734799906+746537229
1508+759559204+764050764+754347137+742056709+736874915+739249875+746113548
1498+752789821+754802549+752524379+751375955+755396063+763556817+770197332
1488+770102972+764600605+758840224+756232177+757043087+759698418+763352336
1478+768902265+777188970+787235180+795556880+796980814+790816541+783923428
1468+782445475+786806084+792846974+796099916+797527322+801883418+811613430
1458+823022473+826296731+818721716+809390389+804252199+803544050+805174896
1448+806105577+804514864+801381625+798495845+796597543+796446388+799429651
1438+805435756+810602483+810682331+807575963+805830414+806500027+807633106
1428+807943403+808266545+809180285+810079096+811342640+814497196+818528969
1418+818888078+814151419+808475261+805172118+804142911+803896493+803770680
1408+804255254+805548238+806653474+806906488+807715037+810884590+816004311
1398+820844425+823765408+824294141+822461662+819682462+818432180+819717179
1388+821849539+822280025+821151598+821270259+824371142+829543980+834902829
1378+839746623+844690331+849729579+853118957+853695669+853231509+854116295
1368+856440499+858934537+861184101+863185095+864032179+863049631+861213472
1358+859936874+859558325+859494932+859157696+858643335+858570291+859183247
1348+859870982+859896325+859481393+859623800+860875124+862662055+863684250
1338+862986447+860819022+858397889+856912228+856792734+857669952+858862327
1328+859888340+860508100+860633636+860723899+861845244+864439196+867343098
1318+869020463+869427272+869664803+870413153+871588100+872894693+874064294
1308+874982686+875934753+877390419+879410437+881536826+883299595+884454962
1298+884692284+883804929+882329614+881213684+880804029+880882488+881161610
1288+880869435+878860735+875221883+871609000+869239455+867742408+866253275
1278+864602225+863172875+862269063+861894819+861939742+862467642+863661267
1268+865380501+866977810+867732201+867549870+867189859+867583545+868916105
1258+870588541+871983869+872964890+873769828+874710439+875994604+877710228
1248+879701500+881414138+882294133+882570477+883104904+884385390+886337711
1238+888992556+892464976+896271508+899406622+901008722+900881035+899991458
1228+900076583+901898230+904426499+906611768+908995476+912191969+915057614
1218+916318380+916927934+918678482+921513298+924017265+925657553+927007055
1208+928327534+929286128+930026285+931508127+934359468+937940343+941065806
1198+943294609+945015023+946744880+948798712+951135276+953368940+955407219
1188+957622066+960048823+962292208+964149058+965447041+965812884+965801427
1178+967203838+970793808+974815792+977132914+977774129+978069567+978578234
1168+979128700+980006057+981871447+984750353+987945735+990680081+992222608
1158+992047567+990716812+989850425+990245291+991360665+993150998+996203070
1148+999717984+1001909293+1002788455+1004220861+1007156632+1010616555
1140+1013219186+1014874333+1016572112+1018069368+1017250960+1013613150
1131+1010000752+1009050768+1010647661+1013374091+1016009842+1017835031
1123+1019220639+1020833362+1021871109+1021152199+1019853244+1020221239
1114+1022020668+1023308514+1023733514+1024311823+1024691205+1023525284
1105+1021566992+1021065060+1022014697+1022710348+1023485430+1026250882
1097+1031183689+1036930877+1042727780+1047545189+1049681438+1049031683
1088+1046646516+1043285606+1040419406+1039834015+1040939738+1041360364
1080+1041350018+1044081448+1050349455+1056218637+1058020357+1057469822
1071+1058326349+1060662218+1062164890+1062526081+1062945110+1063439613
1063+1063590144+1064437089+1067125054+1070245171+1070943112+1068977113
1054+1067090268+1066726300+1066492379+1065785689+1066240684+1068322498
1045+1069847527+1068772702+1065670291+1063045580+1062898521+1065048517
1037+1067286070+1067404314+1065393184+1063272349+1063931547+1068396236
1028+1073339597+1073659336+1068029976+1060135499+1054620981+1053486374
1020+1055990063+1060417536+1065519274+1070415629+1073604762+1073741823
1011+1071497328+1068625435+1066060505+1064119502+1062829157+1061213795
1003+1057986543+1053816667+1051430042+1052912231+1057485583+1062158780
994+1064439867+1064314054+1063362612+1061733710+1057395251+1050044782
985+1043687693+1042495179+1045558083+1047813410+1046117922+1042007828
977+1037728872+1033377359+1029305176+1027712866+1029375789+1031543492
968+1031631116+1030377570+1028810534+1025683405+1020610829+1016278410
960+1014992994+1015495690+1014816495+1011991331+1008237428+1004364935+999939406
950+994869746+990742571+989399040+990384991+990861927+988643052+984742299
940+982090578+982263814+983976035+984920881+984561981+984026791+983646575
930+982192090+979022676+975722102+974532782+975765081+977626445+978487416
920+978271617+977445502+976010458+973976623+971893490+970646541+970957115
910+972692527+974644292+975492695+975030826+973811442+972101234+970048444
900+968222213+967153985+966532697+965589656+964494140+964537328+966314747
890+968457661+968990422+967483514+965366568+964124895+963355645+961222868
880+957416822+954315521+954041747+955712794+956590776+955379376+953422125
870+952583373+952799310+952475544+950881012+948748790+946924712+946146922
860+947448029+950881289+954738855+957086806+957301215+956334220+955693838
850+955769590+955150802+952477904+948566111+945280188+943808831+944643625
840+947708334+951992914+955569900+956320334+953016080+946985883+942348999
830+942759419+947760201+953021149+954511670+952355910+950036774+950221536
820+952384308+954176447+954285179+953428583+952920610+953274094+954065007
810+954920770+956545158+959355464+961554342+961148366+959451004+959783380
800+962980915+965957721+964919696+959619518+953848236+951649428+953730756
790+957396686+959603618+959939327+960185815+961269180+961916713+960771414
780+958608225+957990409+960895352+965850169+968661239+967427482+964720006
770+963335024+962898914+962282556+961953860+962324008+962836355+963280380
760+963580123+962982928+961429432+960004455+959212987+959124321+960330791
750+962955919+966251771+969691488+972676488+973638484+971464185+967140723
740+962696378+959663261+959065928+961366664+965346710+968595417+969654758
730+968563616+966067287+963570055+962984178+965079323+968460091+970656886
720+969803692+966114987+962687352+962443780+963857300+963108394+959920372
710+957250599+956067736+955061442+954998952+957077918+958440127+956012814
700+951957503+950360680+950859904+949980395+948112852+949029716+952133446
690+951623182+944576067+934276357+925840231+921863518+921490176+922718448
680+924169045+924751867+924044343+923724048+926001872+928682963+925358713
670+913349559+901314784+902716847+914671426+923273358+922197839+914504787
660+906169201+900600317+898999605+901943362+907659444+911512566+909781321
650+903085537+895826303+892481709+893092374+893381285+890702555+887559317
640+888095133+893360941+900750223+906513381+907919124+904818310+900586708
630+898732288+897451663+892347426+883580938+875574812+870282549+866256469
620+863775068+865506522+871864514+878925585+881570779+878230560+872503368
610+869666677+870740877+871362929+868118874+863495391+863282162+869908582
600+876738094
##END=
