##TITLE=<SNM>
##JCAMP-DX=4.24
##DATA TYPE=INFRARED SPECTRUM
##DATE=2/5/2025
##SAMPLING PROCEDURE=Instrument type and / or accessory
##ORIGIN=Admin
##XUNITS=1/CM
##YUNITS=ABSORBANCE
##RESOLUTION=4
##FIRSTX=4497.3318
##LASTX=599.83466
##DELTAX=-1.4281778
##MAXY=1.7099687
##MINY=0.22057495
##XFACTOR=1
##YFACTOR=1.5925324e-09
##NPOINTS=2730
##FIRSTY=0.24258114
##XYDATA=(X++(Y..Y))
4497+152324146+152298059+152264851+151920995+151399535+150932270+150641093
4487+150725745+151379623+152471096+153563345+154175960+153925195+152750998
4477+151254157+150428944+150664700+151258031+151283313+150707639+150248094
4467+150341055+150709024+150887095+150780754+150619207+150607941+150750578
4457+150945978+151165968+151482811+151947615+152461655+152696897+152317867
4447+151501226+150889752+150661818+150143942+148913211+147682704+147350778
4437+147757924+148065757+147843278+147256535+146677661+146488184+146886096
4427+147624804+148154451+148188314+147926526+147546468+146807760+145544251
4417+144261636+143624525+143460040+143083256+142588005+142828655+143980330
4407+145046951+145126335+144434055+143770268+143681555+144286216+145218706
4397+145696768+145195894+144054006+143102213+142857203+143194285+143532640
4387+143313052+142496195+141522666+140775752+140331047+140139221+140071777
4377+139919194+139703096+139783687+140355721+141097526+141561947+141668306
4367+141617891+141577021+141637316+141848941+142015335+141683661+140776267
4357+139991485+139964032+140364853+140537741+140556576+140876844+141351997
4347+141343800+140621382+139672059+139133140+139139689+139395638+139788197
4337+140435816+141069334+141056627+140247228+139193707+138505778+138538003
4327+139468930+141015410+142274568+142470024+141777090+140981445+140507293
4317+140309460+140446866+140958081+141331168+140955442+140051650+139456570
4307+139559889+139980406+140260711+140511373+141196840+142348001+143285365
4297+143381236+142846255+142375894+142220784+142049534+141682791+141497159
4287+141888296+142608515+142905868+142290531+141067865+140119600+140086074
4277+140713950+141203652+141211868+141122294+141325105+141711872+141945982
4267+141887473+141710066+141724607+142000832+142226838+142205121+142301244
4257+143011573+144243811+145302469+145490982+144744629+143833174+143705724
4247+144460863+145313183+145636398+145499160+145202790+144924488+144765963
4237+144634190+144253963+143603275+143019208+142788842+142958969+143491067
4227+144285468+145095953+145644557+145880042+146056429+146384089+146638587
4217+146470322+146084144+146061014+146499309+146872397+146765906+146269008
4207+145681264+145310553+145409961+145838217+146017776+145687505+145363092
4197+145589716+146128140+146334862+145975744+145384922+145206168+145935940
4187+147275483+148240881+148314482+147932711+147574585+147209657+146877880
4177+146933544+147453170+148038117+148362679+148512914+148687710+148833163
4167+148734457+148338903+147783207+147154002+146510903+146144066+146446181
4157+147422770+148570112+149344760+149590360+149429992+149004375+148550856
4147+148476543+148959546+149654081+150112484+150225675+150026111+149566612
4137+149230924+149511687+150222231+150543117+150081822+149360162+149076049
4127+149348700+149784422+149935620+149656532+149211144+149052470+149423779
4117+150162460+150837157+151107946+151089700+151184616+151381579+151065877
4107+149908860+148682302+148612162+149969623+151756173+152808440+152868334
4097+152444195+152004374+151666431+151439246+151291856+151075468+150813279
4087+150906885+151600334+152500580+153091964+153377442+153559013+153532861
4077+153229688+153002727+153159193+153494993+153683207+153752383+153845521
4067+153847402+153580936+153112137+152604357+152098645+151642515+151454451
4057+151749735+152466633+153329067+154133732+154785843+155102433+154894018
4047+154338396+153971877+154094321+154358317+154183792+153499073+152835875
4037+152685865+153013581+153543396+154222277+155092618+155894972+156150836
4027+155685199+154893157+154466520+154812594+155705223+156632042+157387846
4017+158027483+158322263+157795975+156452109+155012888+154212031+154172928
4007+154634345+155425948+156466014+157520339+158243684+158467781+158350184
3997+158223117+158317510+158596233+158804480+158680632+158225363+157829959
3987+157932885+158468998+158950616+159097631+159025078+158985180+159345496
3977+160428351+161932060+162979003+163046878+162373743+161384064+160306673
3967+159429839+159259843+160161473+161830650+163334097+163953224+163804843
3957+163438445+163233679+163363628+163992243+165240584+166797815+167749710
3947+167585459+167190149+167621315+168385680+168223862+167069932+165838751
3937+165186856+165621634+167582091+170481400+172510761+172431490+171157249
3927+170575081+171293410+172180800+172218171+172150240+173291781+175301998
3917+176048024+174042616+170469816+167743984+166944325+167664619+169766159
3907+174072633+180887560+188495073+193918854+195378923+192870058+187049994
3897+179812378+174622931+174275341+178232036+182007824+181742257+179990795
3887+181360065+185461623+188237795+188854415+189459713+188887201+185030176
3878+180977031+181153240+185508931+191100557+195961764+198554260+197322275
3868+194399106+193575980+194505026+193424623+189156605+184948996+184218840
3858+188589764+198691507+212428779+219926984+212342396+197918459+186733113
3848+181545537+181842525+185979752+192006285+198720289+205580073+210876507
3838+211748121+208201389+203781491+200550274+197785816+195061106+193557752
3828+193981152+195879947+199888722+207356630+215676202+218198054+214482468
3818+210548398+207435209+201921770+194817640+190259091+190591167+195526612
3808+202093338+206549373+209502278+213958070+218258462+217772278+213602339
3798+209914712+206654133+202394518+198534517+197149528+198163011+200426295
3788+203494440+207115222+210383604+213089900+216465849+220735869+223760018
3778+224271316+224348342+226751418+232591468+241261962+250415626+257352661
3768+261999595+266139779+270681672+276629945+285901694+298689727+311735617
3758+321809907+330550221+342635327+360996065+383793470+403512306+414982513
3748+423129788+433580281+444424437+449142521+448637923+450716763+460130138
3738+476940551+496593402+511204757+516392483+515617732+514662991+516051368
3728+518962485+521162329+521524179+521285166+521507299+521279290+520251155
3718+520566033+525045703+535366622+551027522+566750476+573928638+571172134
3708+565495978+563178687+566720646+574914593+583254507+587789645+588878152
3698+588767778+589004432+591165763+597117011+607545647+619628244+626165796
3688+622670284+614271346+607711900+605253319+606609807+611176160+618893616
3678+628708514+634717887+630400540+621448273+617460850+618315172+617138262
3668+611521205+605877911+603265877+602844592+602978845+604357490+608883421
3658+615817180+621244592+623961610+628638674+639400003+653977823+662665065
3648+657988114+645396726+633994187+628132877+628121350+631636923+635830235
3638+640057306+645234440+651060118+656784967+663449622+671133655+674549222
3628+668943318+660277110+656553814+659654016+667653564+676536253+681432754
3618+681462097+681566296+685477927+691573758+696376316+698853574+699221262
3608+696721099+692244086+689393377+690136389+692484446+693770159+694420875
3598+696392785+699572557+701965004+702830180+703826801+706679682+710884970
3588+713853727+713762403+712101741+711741314+713462309+715520377+716317210
3578+716589159+717582862+718388977+717634287+717205517+721147091+730121477
3568+737860828+736181452+726027273+715576668+709734671+707879760+707260633
3558+706698994+707501966+710727924+714656848+716688192+717289280+718947322
3548+721893247+723929457+723486839+720954189+717532484+714051943+711038274
3538+708708257+706548011+704420029+704043058+707558931+714422551+721127104
3528+724617002+724693055+722636634+719622515+716742537+714733724+713462833
3518+712474819+711823130+712073970+713975666+717732497+721953356+724056636
3508+722847126+720027182+718116579+717850993+718452978+719278256+720094477
3498+720763607+721074780+720234980+717384645+713338648+710480154+710294737
3488+712291125+715082774+717256194+717653525+715715000+712327804+710021591
3478+710926964+714216475+716620374+716203430+714243572+712628048+711718108
3468+711452822+712458276+714737167+716269602+714973560+711813324+710051533
3458+711695577+715944132+720520029+723536842+724269075+722871005+720500042
3448+719238433+719855764+720296885+718153183+714048799+711086256+711351168
3438+714386396+718333809+721420536+722929542+723402552+723806919+724082611
3428+722867487+719943270+717442283+716650091+715760737+712855084+709011645
3418+706583193+706310047+707202545+707993914+708300446+708951087+710889986
3408+713281459+714218870+713823560+714065492+715593436+717132832+717747243
3398+717728455+717367503+716511609+715203216+714279877+715085319+717665052
3388+719814594+719516071+717714681+716894493+717583236+717885426+716700394
3378+715480404+715862690+717297888+718266439+718733535+719797901+721689042
3368+723602714+724806011+724584141+722375913+719374071+718026229+718992010
3358+720390529+720537021+719943868+720000609+721089227+722370898+722444480
3348+720618613+718293686+717741180+718827928+719085355+717945011+717914096
3338+720221132+722287434+721588212+720010789+721172616+724626509+725959604
3328+723099763+719331403+718176014+718929880+719186933+718740347+718918427
3318+720196505+722229272+724770231+726927482+727047999+724868441+722180616
3308+720648106+720622056+722225379+725450814+728570253+728839807+725807798
3298+721736201+718526486+716507792+715879831+717062019+719569593+721966380
3288+722963302+721937711+719136106+716216979+715652347+718663546+723833119
3278+728081823+729128224+727199281+724469388+722847650+722800267+724213533
3268+727116266+730609608+732470283+731318636+728203313+725419524+724511756
3258+725044275+725259259+724540275+723856174+723235475+721495017+719181394
3248+718784512+721089227+723599121+723968607+723077306+722897654+723551513
3238+723964040+723679591+723128282+723505852+726033262+729550781+730311085
3228+726509191+721157720+718412781+719440842+722565895+725374461+726490627
3218+726030567+724436526+721764870+718641388+716705334+717346319+720392326
3208+723844272+725154836+723838957+722030232+721680059+722489543+723128133
3198+723417672+724142271+724951155+724082237+720931957+717468034+715600472
3188+714840243+713926486+712946482+712765632+713606854+714936507+716193175
3178+717305523+718447214+719023824+717801813+714811648+711689963+709793657
3168+709269371+709771200+710906753+711743110+711143370+709271542+707737161
3158+707484974+707470302+706298519+704220839+702589146+702274605+703243305
3148+704848275+706198438+706648991+706002692+704455360+702649854+701086054
3138+699339309+696897683+694531436+693703089+694631742+695773133+695447364
3128+693770009+692443501+692529734+693275516+693607499+693801373+694615798
3118+695682409+696020380+695372434+693974513+691872880+689295616+687019270
3108+685733184+685397458+685449333+685224094+684239074+682689872+681689357
3098+682301673+684049316+685118847+684216318+681621464+678740064+677249997
3088+677979984+679991867+681195164+680314268+677906551+675389247+673698792
3078+672847090+672356489+672162989+672747308+673880092+674275552+673613907
3068+673441740+674732542+676214974+676542840+676146257+675576534+674322935
3058+672180655+669711557+667171272+664699180+662920321+662073934+661533405
3048+660803866+659937942+659118053+658737414+659155555+659830974+659753199
3038+658995814+658607690+658905015+659074712+658468684+657215160+655679206
3028+654290194+653627950+653810447+654038680+653467086+652193725+650800446
3018+649555978+648648210+648386965+648572831+648271239+646759389+644465003
3008+642555448+641604039+641035738+640141743+639207999+639053573+639802350
2998+640663259+640719550+639665439+637942947+636395541+635758973+636192384
2988+637036825+637177029+635927846+633487867+630576824+628016702+626547969
2978+626484230+627296371+627744379+626881935+625210981+624268142+624683663
2968+625336400+624814660+623119415+621321468+620129362+619489575+619092132
2958+618614930+617777600+616638155+615557396+614555497+613181343+611336724
2948+609713677+609118915+609772251+611210818+612465952+612577000+611303900
2938+609154284+606746605+604490695+602628747+601234083+600223501+599437671
2928+598586493+597388997+595911319+594450109+593240486+592461805+592211078
2918+592281704+592309063+592168223+591761910+590630436+588466149+585895023
2908+584073647+583581325+584206553+585375004+586195155+585784013+584219353
2898+582589157+581641827+580970227+579842271+578247707+576705091+575488320
2888+574536612+573871598+573626410+573741725+574013823+574310063+574389858
2878+573752654+572052019+569574462+567081785+565226500+564283025+564343134
2868+565298473+566450008+566689095+565493209+563395692+561275606+559635941
2858+558542307+557773919+557078589+556472936+556065237+555605888+554620570
2848+553021102+551334578+550158341+549446019+548620778+547448733+546389795
2838+545861392+545578252+544903021+543554168+541780737+540098554+538928156
2828+538293908+537872998+537355861+536661354+535787083+534656546+533339132
2818+532204889+531548596+531199622+530755918+530012718+528993490+527878223
2808+526915735+526065642+524925411+523360489+521870721+521032306+520928968
2798+521248450+521599596+521653117+521165585+520012142+518342685+516649124
2788+515367641+514415894+513372413+512018770+510498985+509107203+508103508
2778+507576677+507276695+506664192+505403931+503812547+502485028+501499260
2768+500422955+499039669+497555029+496187013+495011113+494049674+493242772
2758+492523227+491977944+491707979+491591168+491335724+490643164+489355992
2748+487697501+486237339+485361571+484937628+484656585+484397511+484025705
2738+483163149+481576145+479678454+478210132+477414571+476874042+476109659
2728+474990424+473623494+472288152+471424361+471187482+471072242+470437545
2718+469338896+468359753+467687404+466937280+465913898+464906834+464071412
2708+463109785+461840242+460589823+459715665+459161437+458647669+457900913
2698+456722880+455278325+454146066+453624026+453241778+452366609+451017269
2688+449745704+448967136+448622016+448331728+447817098+447160918+446548790
2678+445885423+444954113+443819795+442748243+441879100+441191592+440612662
2668+440046046+439447616+438868312+438273214+437464740+436383383+435267255
2658+434296757+433328992+432256467+431354986+430940438+430869476+430645659
2648+429933000+428841649+427784732+427084873+426687579+426350469+426064036
2638+425993634+426004638+425650611+424783937+423820963+423197382+422880258
2628+422574288+422076314+421264285+420081610+418729165+417588709+416826945
2618+416273017+415710293+415091615+414454672+413801411+413166415+412705419
2608+412511058+412350044+411868875+411099252+410414813+409958272+409506521
2598+408928863+408383843+408005637+407695437+407260529+406586720+405738873
2588+405004581+404671513+404633225+404406376+403694204+402755333+402051095
2578+401696918+401421152+400936015+400198130+399367014+398626134+398041141
2568+397542980+397023635+396431119+395787776+395175910+394718133+394479382
2558+394333901+394026920+393463523+392855549+392464356+392271567+392059015
2548+391763113+391528292+391398680+391210345+390864963+390465536+390098484
2538+389710247+389265832+388826470+388436886+388068935+387664119+387194065
2528+386756836+386546868+386581226+386577858+386257253+385612750+384806635
2518+384045170+383584025+383541320+383681112+383647877+383392658+383134782
2508+382960743+382706198+382231579+381629594+381114441+380805963+380667668
2498+380596031+380485882+380229353+379767459+379171088+378595639+378141755
2488+377799367+377520868+377323662+377270216+377295517+377169087+376783807
2478+376366003+376210491+376309001+376369596+376105544+375489411+374823387
2468+374476321+374483657+374560010+374523181+374473327+374508172+374506189
2458+374323954+374051369+373856895+373647712+373165420+372437865+371844451
2448+371676626+371835656+371974587+371835431+371484360+371210465+371149383
2438+371120639+370900116+370509446+370164589+370007692+369927448+369683682
2428+369239192+368843245+368725311+368850843+369013241+369037756+368893436
2418+368685900+368549289+368558346+368732310+369012867+369223622+369183874
2408+368889768+368482331+368042407+367540204+367018126+366688315+366710883
2398+366942598+367070300+366979464+366842928+366842928+366919692+366864673
2388+366619822+366291919+365796116+364761243+362986389+360724266+358308390
2378+355775029+353045173+350217370+347496160+345052026+343037524+341501159
2368+340292547+339303448+338649364+338347061+338172499+338218310+339150332
2358+341463020+344925970+349246236+354727618+361446693+368218616+373322429
2348+375864660+376167824+375386860+374517155+373457879+371529722+368538360
2338+364837782+360896208+357128486+353904211+351494287+349913158+348840858
2328+347865495+346773096+345556438+344426536+343888702+344394872+345759258
2318+347215490+348143058+348559590+348883001+349365368+349910426+350454773
2308+351236673+352429901+353753940+354766244+355351312+355673825+355884842
2298+356107499+356483945+357022790+357534725+357839460+357959678+358065822
2288+358272123+358514392+358638651+358594973+358502041+358512782+358649019
2278+358788511+358802996+358657777+358373627+358019637+357772502+357770331
2268+357856265+357737582+357450251+357360986+357655504+358110997+358433249
2258+358585729+358694531+358799627+358850379+358869617+358965619+359207738
2248+359597359+360090542+360569765+360899128+361054864+361123506+361211124
2238+361401818+361697009+361986773+362188583+362364380+362643890+363120829
2228+363819827+364667337+365528321+366323321+367055517+367754477+368487122
2218+369379395+370534074+371919269+373389986+374849213+376349872+378006529
2208+379864546+381894656+384047004+386280421+388567733+390850591+393013119
2198+394987687+396861611+398812898+400964273+403296012+405672963+407976069
2188+410170149+412263549+414304662+416312016+418097986+419406267+420311378
2178+421146912+422046072+422890064+423570797+423996349+424013865+423554666
2168+422760265+421855828+420932414+419915207+418699185+417166675+415166470
2158+412720764+410109404+407527724+404860784+401905053+398650687+395313045
2148+392002687+388478992+384893766+382634824+383208364+386343823+390409058
2138+394434058+398475114+402504081+406269521+409815224+413305271+416704108
2128+419926024+423039737+426245073+429652667+433146907+436651102+440320690
2118+444263125+448402765+452654913+456831495+460567329+463713717+466536131
2108+469364983+472313229+475330154+478426651+481916848+486337083+491979442
2098+498498803+504949672+510337186+514302377+517078568+518774898+519069566
2088+517531292+513938244+508341846+500914080+491846948+481577717+470853141
2078+460388950+450731622+442282045+435111331+429054388+424078540+420168517
2068+417092606+414634736+412603878+410586082+408307940+406002887+403991903
2058+402381282+401205494+400295367+399295527+398177602+397242249+396570799
2048+395990634+395402459+394847371+394460968+394320727+394262040+394153762
2038+394258111+395012202+396710591+399507442+403440782+408575547+415203598
2028+423455745+432715479+441810121+449636154+455566106+459715365+462669562
2018+464617181+465199480+464283552+462190302+459203880+455419427+450907008
2008+445738445+440034294+434066727+428159120+422467993+416958278+411623612
1998+406717155+402737742+400059910+398393934+396723204+394202231+391064789
1988+388158612+385918982+384260454+383013928+382056044+381297424+380690386
1978+380095624+379321472+378432455+377756924+377579555+378012891+378901086
1968+379621192+379418746+378260438+376898298+375911145+375230450+374692353
1958+374414341+374368231+374181542+373691278+373231255+373161715+373519560
1948+374274512+375589605+377486435+379201292+379385997+377600889+375060791
1938+373238030+372535140+372518148+372627548+372524173+372226924+372005614
1928+372164157+373048496+374739213+376480681+377368426+377750786+378443458
1918+378795764+377489616+375042938+373393878+373495419+374625470+375430388
1908+375185949+374225033+373284889+372664115+372204804+371858486+371942249
1898+372772505+374051968+374945851+375291045+376065235+377650780+378599269
1888+377559045+375405873+373789787+373090603+372826064+372717861+372733356
1878+372838153+373012079+373363712+374495934+377496166+382592980+387517926
1868+388600669+385105681+380192637+376819176+375467030+375153050+374988144
1858+374747746+374601442+374665144+374899889+375446594+376694018+378924029
1848+382345471+386959133+391160117+391634025+387665279+382899175+380432323
1838+380173174+380494228+380792526+382398431+386688568+392332574+395631329
1828+395208996+393396640+391648772+389229752+386216981+384084918+383492440
1818+383733361+384119614+384967611+386985182+389866732+391961329+391963238
1808+390567077+389640744+390565842+393657024+397975194+401420515+402253130
1798+401152309+400864978+403689376+409141415+413013673+411138700+405508282
1788+401393418+401002225+403036601+405622810+408091122+409953668+410520846
1778+410620291+412757444+418745633+427385080+433825020+433871617+429249423
1768+423906148+420006568+419077241+421808033+426068003+428399068+428682582
1758+429126623+429982667+430972214+434094948+441226213+450212202+455681420
1748+455466324+452708098+450983510+451666862+454419100+457601118+459352467
1738+460703978+465465553+474771660+482495740+481691871+475730517+470386008
1728+467259756+466749169+468978543+473015595+478544772+487470952+501507569
1718+517428141+526187357+523818265+516878068+511913524+511216622+515230019
1708+523615183+534236496+543718588+551890265+562419506+576251955+587446284
1698+591468664+590804849+587069314+581950493+580057892+583936138+592222007
1688+603231256+618031658+636232581+648644018+647615283+641131029+638274705
1678+641623276+650096058+660074702+668217597+675405415+683232272+688779864
1668+688759354+686910730+688826873+694848073+700664545+703058189+704297566
1658+708908494+720066556+738578465+758026362+763150723+756690871+754686624
1648+759218281+762007759+756740650+748413012+743658810+744154651+749821188
1638+759665466+768477941+766930909+754927957+743309536+737836725+737272541
1628+738423889+739623293+740713858+740009396+735510525+730001110+728422040
1618+730894956+731378595+725289426+716774126+711038274+708627413+707493657
1608+705809865+703549238+701763119+700749505+699694272+698035930+696391063
1598+695730990+696151751+696779112+696627381+695420566+693702565+692246631
1588+691367083+690912039+690768616+690899313+691380108+693259572+698407212
1578+706844588+713572196+712250329+706331306+704148978+707329275+710708163
1568+709578673+706128748+704547133+706759852+714735820+730953193+751183102
1558+757703587+746511092+733455002+725402682+722013689+721636643+722499050
1548+724751517+730874745+742383203+757780688+774062960+785781762+783882536
1538+771146752+761691945+760709995+763807577+764547445+763083428+764629936
1528+771057749+779694988+788110581+797000232+805784935+810044943+808623743
1518+805722805+803084385+799670989+796623860+797283783+804305198+818335827
1508+835212824+841112609+827755003+810534945+802045545+802882126+809547905
1498+816397078+817386588+812700879+809439514+812608059+820395916+825789531
1488+823814701+817383145+811808830+809164496+808814474+809670966+811887054
1478+816588932+824130665+833165834+840444227+841355214+835089238+827753356
1468+825199672+827883454+831520368+831803695+830700329+834053616+844757532
1458+858520479+862953028+853283686+840516837+832997635+831696652+833989166
1448+835757096+834647368+832035371+830238323+830075438+831982224+836750648
1438+843381020+847236061+845024241+840907431+840013960+841936689+842866990
1428+841375425+840073619+841217631+844494491+849155872+854958271+859449955
1418+858214920+851749828+845268194+841459787+839543719+838187344+837412667
1408+838216762+840743423+843244933+843946850+843708137+844634769+847069059
1398+849816469+851927235+852398149+850105560+846301794+844291034+845426438
1388+847412869+847015014+844668080+844047605+847104241+852400020+857725517
1378+862741861+868352256+874143576+877821211+878067185+876528387+875531167
1368+875944816+877960965+881644588+885541249+886675230+884013530+880032807
1358+877080818+874938239+872574836+870264581+868993540+868784320+868746968
1348+868305996+867595321+867164679+867945643+870770602+875091093+878423720
1338+878131635+874299799+869758336+867144618+866877310+867780737+868854534
1328+869948318+871183354+872584418+874237220+876172376+878021074+879267188
1318+880048152+881188197+883011594+884574120+884695985+883673089+883242597
1308+884561395+886707418+887730464+887040149+885893817+885732429+886937298
1298+888831359+890231150+890243951+888724091+886007672+882575937+878983562
1288+875518142+871891933+867768685+863297885+858944009+855262033+852725416
1278+851276519+850314405+849428719+848700004+848247804+848008642+848018972
1268+848538392+849686071+851041399+851909719+852106663+852030086+851866078
1258+851476831+851154430+851567107+852887327+854753093+857006757+859655358
1248+862153425+863700756+864465327+865616300+867869141+870760347+873446899
1238+875400993+876379949+876674205+877282104+878973007+881379601+883686712
1228+885798601+888047176+890145142+891372467+891855882+892787529+894971504
1218+897886739+900623144+903107138+905875881+909126617+912522122+915507871
1208+917428729+917997554+918040221+918947840+920985098+922941139+923959543
1198+924851742+926926578+930316694+934119711+937758720+941418689+945038086
1188+947725686+948865207+949085580+949488451+950739730+953162268+956481870
1178+959432287+961069818+962302458+964550284+967493066+969683777+970831831
1168+971984002+973824915+976131652+978605091+980966622+982354961+981857698
1158+980069483+979155576+980632394+983704600+986401557+987814898+988581489
1148+989854851+992529576+996665324+1000870388+1003050769+1002611444+1001126992
1138+1000450900+1001222058+1003186632+1005734253+1007829748+1008413020
1130+1007618133+1007166681+1008944491+1013269698+1018486130+1021903943
1121+1021686339+1018757480+1016256270+1016259339+1017764078+1018845136
1113+1019707991+1021547108+1024213973+1026873727+1029510276+1032336284
1104+1034637631+1035641738+1036190127+1038173190+1041609642+1043486336
1095+1041511057+1037882902+1036543444+1038406963+1041445484+1043734106
1087+1044704828+1044551300+1044091540+1044872728+1048001674+1052486697
1078+1055307914+1054128795+1050276673+1047565044+1048052576+1050468452
1070+1052481607+1052711113+1050894228+1048394140+1048606055+1054123256
1061+1062917166+1069716561+1071501258+1069712743+1067422549+1066007562
1053+1064474902+1061869718+1059635890+1060260407+1064036401+1068609453
1044+1071224294+1070590720+1067857683+1066235795+1067963977+1071585470
1035+1073741823+1073422715+1072346597+1071701720+1070717599+1068410937
1027+1065372641+1063446842+1063811536+1065834422+1067980969+1069353738
1018+1069689538+1068087413+1063805847+1058721160+1056227884+1057567117
1010+1061007910+1064414869+1066908594+1067973633+1067368504+1065650353
1001+1063382092+1060743372+1058314397+1057259762+1057825143+1058376976
993+1057221062+1054558314+1051395084+1047658464+1043170896+1039700685
984+1039475371+1041487628+1041957119+1039436072+1036590977+1036016837
975+1036862851+1035946773+1030994879+1022937768+1015285024+1010708379
967+1008391461+1005743684+1002121143+998710966+995841917+992630106+988600053
957+984194003+980395552+978281792+977731681+976763804+973621234+969277014
947+966197996+965050167+964271000+962884981+961893300+962132462+962725465
937+962732651+962580545+962862450+963227668+963007594+961994504+960717774
927+960286983+961105749+962234640+963078931+964159540+965311487+965134304
917+963017625+960063465+957517416+955579715+953953113+952598608+951709703
907+951341116+951395686+951940032+952971686+953800782+953369841+951552732
897+949460829+948060588+947289730+946918298+947321244+948827105+950949399
887+952723392+953296034+952205169+949631499+946292809+942998956+940566612
877+939793284+940815730+942680448+944269398+945290797+946056640+946812079
867+947469008+947830708+947981766+948136042+947962378+946764396+944730881
857+943054649+942396971+942115815+941332605+940276174+940040755+940836390
847+941364419+940878309+940541910+941087455+941022031+939308896+937651677
837+937851990+939176028+940158128+941090973+943167231+946210543+948154082
827+947027662+943741220+941452823+941453047+942034522+941991556+942111623
817+942674085+942864666+943262372+945727577+950138343+953766499+954648293
807+954037998+954112629+954293479+952084952+947735867+945222080+947272588
797+951976113+955484275+956379768+956026900+955985281+956447811+956602312
787+955999503+955509576+956496766+958767872+960444179+960240722+958607682
777+956452901+954406585+953374482+954041891+955547977+956051977+955086794
767+953794719+952750265+951826627+951969675+954252234+957116866+957490244
757+955121377+953018022+953449337+955777633+958014305+958828205+957942669
747+955846125+953715223+953053728+954646271+957854564+961023034+962859755
737+963142259+961780568+958902911+956047485+955046148+955584581+955740280
727+955180812+955812814+958369418+960547030+959781187+956331561+952740309
717+950956361+950535300+949717058+948047489+947297889+949255651+953125589
707+955980864+955603969+952617846+949867817+949183341+948720212+944915548
697+937611929+930520075+926010725+922888216+919986455+918462928+919048370
687+919952696+918641907+914642769+910024954+907088385+906422249+907244982
677+908762821+910626939+911652156+908743134+899000509+884616638+876121624
667+881920729+892560568+896556562+895335150+895800001+900232176+903680155
657+900765519+892490055+884296483+879538014+877196994+875210113+873648484
647+873105934+872246447+869400678+864903978+860707372+858294715+857208492
637+855861698+853486393+850680372+848849415+848791178+850133855+852117891
627+854339069+857016339+859788825+860510354+857653730+853581534+851909943
617+852583041+852100525+849190156+846024755+842984587+838196027+832466986
607+829643374+831939856+837451966+840989322+837785446+829254352
##END=
