##TITLE=<SNM>
##JCAMP-DX=4.24
##DATA TYPE=INFRARED SPECTRUM
##DATE=2/5/2025
##SAMPLING PROCEDURE=Instrument type and / or accessory
##ORIGIN=Admin
##XUNITS=1/CM
##YUNITS=ABSORBANCE
##RESOLUTION=4
##FIRSTX=4497.3318
##LASTX=599.83466
##DELTAX=-1.4281778
##MAXY=1.8383679
##MINY=0.34328133
##XFACTOR=1
##YFACTOR=1.7121136e-09
##NPOINTS=2730
##FIRSTY=0.36550352
##XYDATA=(X++(Y..Y))
4497+213480886+213375209+212614082+211619130+211065595+211024063+211074421
4487+211032993+211092524+211481234+212170488+212777270+212848133+212287410
4477+211346436+210362520+209739706+209796104+210377942+211017692+211466368
4467+211715006+211685241+211281979+210619025+210068868+210126815+210911633
4457+211730968+211668478+210735511+209875966+209805452+210311553+210680088
4447+210551000+210197556+209948692+209644996+209029355+208528093+209072750
4437+210970589+213274546+214540208+214172177+212853616+211739776+211435454
4427+211594760+211369395+210468979+209583707+209307636+209200567+208685606
4417+208215728+208514219+209282118+209685154+209541687+209144291+208591993
4407+208033201+207912990+208427203+209220550+209893599+210268628+210121367
4397+209302170+208097154+207027701+206423217+206414235+207060513+208219279
4387+209321875+209505116+208356131+206523445+205098337+204430040+204097067
4377+203914975+204267061+205407568+206954975+208168156+208466368+207743814
4367+206439805+205284241+204788027+204854556+204878299+204453957+204055273
4357+204617267+206187181+207489258+207403321+206379178+205613908+205323737
4347+204699740+203273258+201568041+200501495+200582854+201564577+202677216
4337+203283005+203288680+202895601+202198635+201323946+200792588+201198774
4327+202431172+203657599+204168225+203847941+202963139+201980650+201335400
4317+201057518+201045438+201597928+202860074+203953304+203754885+202543863
4307+201800351+202302779+203342345+203928134+204008414+204098094+204274302
4297+204102080+203300830+202095413+201031530+200663900+201202360+202265285
4287+203136893+203373068+203052714+202537022+202174683+202063541+201972452
4277+201726425+201613211+202041574+202896280+203588233+203659148+203097554
4267+202248140+201571383+201357489+201562836+201941241+202353816+202825869
4257+203315991+203720315+204114943+204627694+205069372+205124691+204874330
4247+204681185+204618277+204422869+203960076+203489119+203437107+203838298
4237+204036596+203316740+201890396+200779724+200639269+201128590+201596449
4227+202031896+202873842+203969788+204439388+203882459+203131027+203302170
4217+204427951+205461007+205541496+204900753+204376044+204422973+204897289
4207+205389570+205495751+205114526+204595335+204311378+204205249+204027213
4197+203764546+203625048+203871910+204643969+205631401+206082445+205493262
4187+204262448+203393660+203511103+204279907+204872084+204913443+204777218
4177+205005176+205662420+206266782+206316357+205884617+205469379+205255468
4167+205047823+204969127+205435193+206248906+206568685+206029737+205144309
4157+204449431+203943121+203437943+202951477+202688513+202910571+203751264
4147+204953095+205861397+205923173+205256042+204536656+204307427+204544803
4137+204851475+204907873+204770760+204813459+205255868+205823642+206119835
4127+206145057+206086623+205859830+205340813+204855583+204926393+205565534
4117+206229723+206489815+206374809+206082741+205748914+205429466+204975881
4107+204148834+203138146+202549050+202614099+202942791+203221246+203591679
4097+204156041+204615909+204712430+204716764+205055430+205576884+205737339
4087+205514550+205464976+205764441+205878229+205365705+204470615+203724406
4077+203354007+203284955+203484784+203985872+204606893+204991286+204986795
4067+204710358+204285721+203799829+203390179+203145127+203059277+203127929
4057+203299037+203422660+203428038+203410109+203433678+203422399+203311344
4047+203207634+203318132+203666598+203953200+203880266+203560800+203396201
4037+203561914+203829420+203971164+204109077+204487134+205003941+205213222
4027+204893704+204461720+204590739+205408926+206352476+206914017+207133708
4017+207138930+206696729+205633978+204360135+203595091+203703848+204431990
4007+205218357+205742665+206116788+206511817+206858751+207101209+207394026
3997+207754606+207840839+207371971+206570687+205937899+205713405+205775721
3987+206002774+206457090+207080252+207459197+207222047+206620209+206435210
3977+207220863+208740490+210169984+210803781+210539111+209706216+208611332
3967+207516743+206982617+207648216+209353921+210907838+211230315+210474932
3957+209588181+209193987+209361614+210153430+211799673+213983558+215418291
3947+215146467+213985612+213387377+213387498+212960024+211926655+211139591
3937+211267688+212485707+214621584+216807506+217674153+216882111+215877081
3927+216182952+217532166+218246643+217502279+216554742+217061209+218891737
3917+219995220+218584787+215283754+212265059+210957534+211464001+213631454
3907+217759011+223788968+230094439+234087146+234714763+232873234+229492409
3897+225471277+222582176+222430563+224549329+226167025+225444871+224465324
3887+225764442+228355279+229658365+230030783+231054821+231083542+228176146
3878+224892642+224805226+228023350+232563272+236989947+239762145+239265669
3868+236958371+235823016+235850397+234668688+231848464+229707957+230128922
3858+233547032+240152212+249043246+254162483+249106328+238772710+230484594
3848+226972888+227975916+231688079+236246226+241083978+246226243+250191186
3838+250355367+246829787+242771022+240060740+238291605+236915359+236250891
3828+236359753+236978371+239101489+244121054+250063682+251881277+249289221
3818+246635650+244575753+240745486+235875619+233245739+234593908+239154997
3808+244018581+246718036+248895063+253196234+257717166+258009530+254736470
3798+251705991+249466927+247176948+245740021+246379788+248781449+252036754
3788+256015170+260877865+266138514+271446109+277522786+284801276+291948851
3778+297600003+302868189+310207498+321192303+335622563+350788780+362504111
3768+369206264+372497740+373753393+374135332+375292184+377415737+378837625
3758+379150807+380831463+386643261+397169850+409575706+418389368+422256833
3748+426456279+434925948+445596004+452627180+455884608+460952407+471070808
3738+486029259+502706486+516162143+524021462+528799857+534099688+541419329
3728+550552577+560129002+567964648+572984996+575720780+576751050+576696602
3718+576931697+579072309+583779336+589331008+591056225+585774462+576992864
3708+570106374+567057965+566871852+567266881+566519401+565039201+564180770
3698+564526816+566631048+571459852+578861235+586718952+591956711+592251233
3688+588238561+583533866+581229248+581718587+583301312+584793418+587701041
3678+593592458+599073841+598065712+592666906+589272452+587697629+583989366
3668+578256072+573770319+571715975+571124738+570961114+571244322+572720901
3658+575493413+578132345+579526834+581452507+586780920+594822975+598384186
3648+591354090+579343541+570634181+566952306+565990340+565793957+566321730
3638+567934151+569732477+570511359+571138141+574209631+580257290+584868546
3628+583228413+577697489+572784784+570199743+570817683+574567618+578831922
3618+581413551+583749362+586970236+589313532+589940941+591165749+594056382
3608+595757369+594135409+591752286+592571308+597715906+604790007+610452421
3598+613481682+614446712+613943657+612976399+613513014+616669274+620464710
3588+620718083+616264742+611150780+609129857+610255934+612646994+614665201
3578+615548141+615217622+614112572+613078959+613345283+616115392+621561405
3568+627499681+629826962+626689362+620781652+615914309+613429392+612207438
3558+611178770+610641597+610969053+611534006+611628421+611561718+612096871
3548+613235411+614043084+613561474+611467513+608007748+603958034+600486016
3538+598443091+597865813+598178160+598618899+598856675+599246377+600063171
3528+600553554+599808545+598490576+598050394+598673765+599342114+599350400
3518+598946424+598761843+598796865+598158107+596167890+593375709+590852218
3508+589113702+588348084+588612040+589227960+589132989+588342096+587744836
3498+587476285+586877284+585825499+584854272+584051299+582786978+580459592
3488+576937824+572765671+569290659+567801198+568436684+570112048+571386500
3478+571392662+570362740+569272068+568463177+567239518+565512351+564627218
3468+565472350+566764557+566359398+563914307+561253478+560247890+561043065
3458+562394942+563105938+562573361+560723616+558321172+556529636+555523804
3448+554528069+553416091+552937963+553403315+554449321+555462602+555478094
3438+553844610+551310571+549264896+548019095+546754774+544925952+542719473
3428+540560549+539121395+539004700+539759700+539908214+538519887+536331651
3418+534867674+534943846+536275148+537728890+537910164+536427910+534410573
3408+533021654+532240822+531640115+531142387+530633449+530042629+529707897
3398+529542986+528663771+526916691+525490139+525144824+525242615+525001497
3388+524436369+523792598+523094448+522433306+522003080+521785670+521613866
3378+521504621+521705251+522123083+521959285+520635607+518987710+518562080
3368+519574457+520511740+520227767+519517780+519660342+520410920+520706104
3358+520566954+520887796+521694877+521979198+521155093+519503298+517525787
3348+515664972+514190133+513084387+512344078+512198836+512635084+512951260
3338+512495412+511658531+511209750+511132047+510978937+510807689+510992479
3328+511612891+512602255+513887151+514947013+514924872+513631620+511892582
3318+510556023+509602446+508526501+507254207+506285487+506010356+506229159
3308+506375201+505921477+504741335+503444428+502892878+503000625+502832198
3298+502262997+502385506+503814983+505788281+507325122+508262615+508755121
3288+508623944+507770491+506665441+505882904+505560043+505737836+506500182
3278+507272206+506953732+505383678+503730560+502944332+502816218+502866559
3268+503187678+504007466+505094483+506006492+506403400+505818394+503888161
3258+501310082+499762901+500278768+502232640+504007153+504185781+502457291
3248+499988632+498418405+498030722+497604291+496365209+495076971+494588956
3238+494427177+493692195+492434105+491189140+490020521+488922364+488373251
3228+488631498+489158052+489394992+489454837+489637190+489815678+489529720
3218+488519085+487149279+486028249+485079199+483687739+481964053+480851031
3208+480745442+481017474+481065065+480910458+480701751+480457291+480159113
3198+479482443+477925062+475755938+474092932+473568815+473584621+473176119
3188+472097493+470768593+469604012+468698687+467958796+467228757+466261638
3178+464803545+462878951+460883894+459335391+458607127+458689183+459015106
3168+458812388+457821178+456552609+455714857+455402859+454998396+453968857
3158+452538196+451286895+450415827+449784241+449318332+448943216+448350099
3148+447226180+445681680+444261812+443459152+443201149+442899490+442141044
3138+441174482+440424425+439714439+438450361+436564654+434715570+433493164
3128+432966889+432963059+433284632+433637640+433711654+433370238+432684203
3118+431915278+431375669+431092217+430765458+430156292+429328705+428495584
3108+427752385+426982172+426039945+425022730+424231941+423868140+423880569
3098+424027969+424012895+423694003+423193838+422730192+422450883+422420282
3088+422525419+422388845+421661592+420463729+419315615+418590868+418159668
3078+417595585+416646604+415462075+414421291+413766415+413400734+413117457
3068+412955992+413050858+413144646+412679573+411518125+410199251+409295736
3058+408780288+408187658+407291036+406370394+405749460+405361220+404909515
3048+404261532+403608814+403298312+403408636+403551963+403316137+402755953
3038+402176274+401688049+401244177+400802220+400261219+399507263+398591320
3028+397672905+396797381+395771984+394284265+392354414+390665403+390039491
3018+390460595+391032198+391026802+390503102+389806589+389029761+388190442
3008+387499325+387100432+386754630+386088160+385053503+383941769+383055348
2998+382520892+382305710+382228180+382029151+381611842+381129153+380688101
2988+380113365+379213262+378179128+377468724+377242401+377079996+376384666
2978+375021301+373432552+372182017+371577620+371650450+372131363+372401690
2968+371871898+370607681+369317180+368598804+368447435+368534886+368619100
2958+368529316+368132059+367586776+367283272+367243828+366963057+366112529
2948+364979176+363974389+363176603+362495442+361817345+360982727+360069882
2938+359533998+359612015+359851845+359671059+359086506+358453701+357833255
2928+357096219+356355527+355819295+355390392+354783559+353949044+353122955
2918+352515912+352129100+351844186+351549072+351164383+350645697+349996669
2908+349266247+348545504+347950611+347533267+347214758+346889496+346574677
2898+346357093+346177560+345781731+344999959+344052684+343397007+343222626
2888+343304821+343385553+343373960+343134269+342545782+341838964+341394813
2878+341207691+340974510+340594939+340157786+339614626+338913691+338277683
2868+337912559+337619221+337113137+336549820+336294080+336311522+336216725
2858+335837049+335347467+334895588+334405588+333800564+333236133+332977086
2848+333060882+333200623+333065373+332579377+331953674+331476764+331201563
2838+330848694+330177733+329385344+328875431+328716263+328626932+328443047
2828+328246943+328013553+327498279+326633024+325745872+325190144+324950628
2818+324747178+324375369+323857519+323338171+322869442+322334881+321649647
2808+320945092+320419757+320099716+319863367+319592101+319200727+318644686
2798+317995485+317413507+316959365+316520263+316003561+315493195+315111709
2788+314829233+314510550+314084537+313613163+313216080+312896666+312459583
2778+311722721+310788257+309945771+309327135+308828536+308356848+307961297
2768+307677359+307407415+307051586+306631701+306181423+305627888+304901296
2758+304082274+303372009+302924865+302671214+302330842+301743365+301131135
2748+300824811+300808240+300781712+300560576+300125443+299431366+298513439
2738+297681292+297256916+297131309+296858615+296201893+295357701+294611996
2728+293981837+293305272+292599358+292157889+292185530+292434342+292382087
2718+291772225+290843471+290006119+289433228+289043178+288750745+288539044
2708+288319057+287937972+287366230+286741258+286236114+285938424+285770501
2698+285530393+285151291+284839084+284769352+284779065+284568165+284083109
2688+283526720+283105163+282876665+282750762+282561829+282209290+281759396
2678+281358884+281035710+280652118+280095311+279459599+278977293+278808239
2668+278926709+279158410+279311886+279319022+279238830+279100307+278808239
2658+278269988+277569766+276933306+276510496+276235783+275933306+275539827
2648+275156670+274880059+274674816+274455717+274222328+274042864+273932871
2638+273797986+273511523+273065876+272640681+272465865+272591403+272847421
2628+273030819+273008451+272635512+271835672+270894106+270371364+270494325
2618+270850050+270882722+270492672+269979347+269609506+269428093+269360485
2608+269332634+269290492+269173188+268924690+268559897+268196705+267991897
2598+268017415+268191396+268351973+268394358+268314879+268179159+268100289
2588+268158427+268271049+268242432+267996249+267656991+267377474+267202936
2578+267110054+267057294+266977223+266815497+266604771+266448685+266418519
2568+266491331+266577721+266594014+266536954+266508599+266631786+266917849
2558+267233729+267408058+267353818+267094371+266711805+266295592+265916474
2548+265608252+265351956+265083648+264759360+264446370+264274582+264234930
2538+264147618+263903401+263566842+263211466+262893653+262753773+262833234
2528+262877500+262650603+262317560+262217541+262397735+262596259+262569000
2518+262293660+261919624+261589018+261338831+261182257+261166887+261271954
2508+261378588+261418432+261419250+261379127+261263146+261123944+261038477
2498+260966500+260859710+260811163+260891147+260955012+260801328+260414968
2488+259955656+259632831+259582107+259710969+259742423+259548686+259289918
2478+259107512+258910938+258602108+258283634+258087199+257955813+257736836
2468+257413175+257132265+257032402+257106572+257226696+257255835+257137052
2458+256914524+256681830+256485099+256288595+256067007+255872521+255719951
2448+255503777+255181769+254933132+254936613+255093326+255157139+255039643
2438+254824148+254589679+254370702+254207044+254115136+254048782+253957710
2428+253861189+253818438+253844079+253891982+253919189+253932435+253944481
2418+253913897+253798403+253668096+253662753+253806532+253964011+254004064
2408+253914576+253773477+253702144+253811894+254110280+254490687+254842442
2398+255142012+255465517+255990574+257009878+258933932+262289570+267681848
2388+275697236+286813235+301401705+319763940+342028697+367914963+396623940
2378+427073871+458293597+489477848+519583647+547065241+570279710+588438251
2368+602328067+613681163+623314751+629730947+630034729+623386189+612556270
2358+600201311+585557853+566202598+541449651+514733502+492841806+481491321
2348+482792928+495321223+513625563+529759560+539628349+544931313+547886700
2338+548731379+547588279+545938467+545351930+545687010+545536476+544060976
2328+541520044+538207715+533675173+527142735+518533325+508778620+498754529
2318+488449945+477668243+466916550+456921771+447549145+437866574+427270950
2308+415943302+404219199+392274691+380538333+369705803+360090944+351320208
2298+342817292+334418121+326426998+319179387+312687681+306710275+301026938
2288+295602822+290607870+286295906+282747298+279760266+277097400+274727872
2278+272696157+270912940+269261963+267789352+266618853+265759447+265082882
2268+264401913+263558417+262562142+261636033+260977258+260499477+259961922
2258+259306750+258694085+258233555+257863505+257491261+257083804+256609575
2248+256045335+255462592+254976231+254583395+254168906+253686669+253232719
2238+252925890+252799134+252796088+252790709+252654519+252413993+252268820
2228+252311293+252326820+252073012+251656660+251401582+251443515+251677252
2218+251979642+252256288+252381581+252297803+252104675+251947997+251898683
2208+251969198+252137904+252336742+252507554+252662909+252827333+252964568
2198+253040670+253119349+253301145+253572516+253809108+253950852+254072177
2188+254232440+254367238+254390337+254292198+254117260+253968398+253998337
2178+254244851+254546040+254750169+254878631+254972314+254953602+254750865
2168+254418014+254072507+253814400+253690394+253644458+253536536+253289517
2158+252981905+252741135+252595510+252496971+252435299+252443097+252518033
2148+252615998+252728480+252947631+253445482+254360363+255695617+257357595
2138+259262711+261379928+263731997+266399528+269476919+272983020+276821433
2128+280869354+285160830+289924394+295316830+301181371+307203025+313183390
2118+319001385+324429609+329147985+332884900+335487974+336888033+337006086
2108+335733862+333062449+329211798+324563258+319436415+313990645+308373350
2098+302815794+297484422+292402175+287601517+283183598+279206784+275689264
2088+272676400+270165878+268056842+266264922+264785157+263614153+262710569
2078+262026119+261496344+261012141+260477371+259919572+259487728+259312129
2068+259405272+259649541+259813861+259714990+259445342+259259038+259234791
2058+259274165+259316515+259302712+259117939+258796802+258589140+258688845
2048+259042220+259447083+259763016+260028399+260343252+260655216+260804896
2038+260766010+260686739+260723763+260914002+261162013+261354984+261497911
2028+261667226+261886168+262141421+262425447+262726357+263087268+263587991
2018+264121629+264381547+264244660+263959520+263841781+263975169+264226557
2008+264396308+264361581+264166034+263977676+263958041+264147513+264409676
1998+264571785+264760370+265392757+266547329+267574936+267767298+267219891
1988+266558835+266146869+265980896+265994230+266109462+266216392+266293678
1978+266439912+266725522+267057346+267237297+267269935+267549348+268416082
1968+269533369+270132056+269960965+269511941+269267985+269275262+269453837
1958+269828291+270339684+270770971+270995605+271129846+271370094+271787368
1948+272404089+273428093+275056233+276794940+277463533+276537146+274958668
1938+273951131+273784670+274035606+274362469+274711318+275101264+275485204
1928+275893601+276628653+277893358+279227498+280041629+280629124+281514483
1918+282108314+281451766+280023926+279274270+279848449+281168054+282197436
1908+282345516+281863070+281421722+281383166+281646757+282040515+282602004
1898+283467450+284509766+285292530+285769840+286596051+287989200+288924220
1888+288482611+287270997+286369224+285990018+285857152+285874524+286015083
1878+286179629+286342174+286662162+287665365+290154581+294203982+298000880
1868+298803261+296245305+292873863+290877274+290401409+290543152+290670395
1858+290693825+290726549+290874141+291197994+291774244+292745680+294334567
1848+296920130+300661953+304311347+305215662+302628289+299191571+297356796
1838+297248700+297724287+298243808+299652919+302886883+306970262+309319615
1828+309113659+308094842+307174095+305604563+303412637+301882619+301683137
1818+302253870+302887057+303685052+305248282+307557148+309513700+310039349
1808+309405813+308878076+309565085+311867405+315174199+317886379+318684722
1798+318147759+318347762+320876579+325222103+328264628+327107880+323334342
1788+320757970+320848415+322504736+324357754+326089794+327531665+328253244
1778+328763505+330704636+335277492+341632833+346424736+346746412+343707717
1768+340006556+337222034+336532657+338459062+341472447+343186524+343602650
1758+344231207+345150632+346166803+348723470+354048576+360519777+364516714
1748+364693601+363099108+362087254+362680929+364706412+366986835+368278067
1738+369465033+373209990+379939158+384826171+383122469+377798721+373073033
1728+369940585+368591702+369072128+370758842+373629074+379143705+388217423
1718+398066437+402379097+398943424+392404754+387171034+384927583+386127395
1708+390427592+396035871+400617535+404502963+410352186+418285136+423889899
1698+424558666+422029361+416957315+410826799+407334414+407973346+411422388
1688+416847966+425423502+436375129+442450222+438791951+431845372+428052095
1678+428900569+433088597+437653829+440693951+443773274+448222194+451256398
1668+449839037+446925496+447146597+450756581+454152567+454829272+454915435
1658+458114969+466649113+480887620+496156677+501111228+497106145+496379309
1648+501291422+505558616+503534804+498851972+497278263+500378822+507922556
1638+519476004+532370746+539869362+539137235+536905098+539200003+546665651
1628+556865725+567546782+578528070+589663407+599310225+607405475+616850722
1618+629398130+641848965+649125402+652413257+656162948+661699337+667697701
1608+672601877+676010744+678608875+681186605+683889176+686468298+688906774
1598+691563670+694894903+698975392+703373171+707772900+712164691+716112262
1588+718956941+721039972+723386401+726114177+728537961+731019258+735385983
1578+742748479+750889474+755540834+757269255+760703187+767583795+775827072
1568+783181630+790515021+799451296+810051655+822606512+838889964+857846048
1558+869852175+870865387+868992839+867991394+867415510+867389330+868257091
1548+869682773+871668256+874793393+879376797+884590883+886284002+878876040
1538+866546426+858220919+855106505+852784445+847361826+840722616+837306508
1528+838189238+841106609+843981576+846868241+849567191+850667158+850327448
1518+849593650+847734331+844347814+841309084+840750467+843729805+850489401
1508+858510150+859710728+850076443+839021768+833580420+833399459+835764200
1498+837385813+835668046+831542160+829144555+831154268+836167619+839316221
1488+836809649+830405987+824463464+821511350+821328788+822140081+822928746
1478+824470009+827838631+832856439+837529453+838346456+834142588+828790154
1468+826176566+826601151+827755079+827734818+827724513+830372427+836487277
1458+842926588+843396222+837117679+830003682+825192876+822756907+822310667
1448+822765680+822280728+820150212+817440678+815667418+816214408+819918075
1438+825451053+828306385+825314027+819893497+816635303+816128279+816509000
1428+816581760+816693929+817160290+817788117+819065493+821911217+825216897
1418+825348980+821020479+815285514+811050662+808957397+808264678+808153484
1408+808354288+808493403+807522803+805173101+803286906+803890294+806881121
1398+810438223+812851843+813052647+810704756+807417596+805929738+807198480
1388+809228037+809123109+807033882+806230039+808791476+813613283+818535284
1378+823021559+827790658+832469034+835305776+835812382+835825820+836931009
1368+838868519+840983230+843477755+846148716+847380417+846113693+843726602
1358+842402784+842924151+844370721+845116844+844382349+843030889+842570098
1348+843536590+845229291+846878198+848556765+850799101+853574154+855896910
1338+856719274+856168525+855424978+855475528+856404491+857667663+858861418
1328+860263984+862406615+865192738+868067705+871004919+874513144+878672172
1318+883008749+887254184+891344909+894975677+898079578+901239668+904732087
1308+907785021+909626376+910668274+911877416+913581188+915619170+917939210
1298+920285570+922035505+923094113+924112477+925166769+925217875+923549265
1288+920750678+917747736+915010839+913036497+912199720+911743176+910235403
1278+907619448+905642460+905652695+907001230+908114426+908422387+908611911
1268+909428496+910852995+912286614+913265430+914041840+915360924+917503624
1258+919830209+921567472+922776684+924141303+925938306+927637204+928615811
1248+928938184+929125271+929353996+929126943+927819905+925636890+923838634
1238+923650294+924770313+925475425+924650137+922935642+921296902+919745195
1228+918276623+917676160+918327102+919303899+919460142+918544408+916927600
1218+915249938+914393387+914899506+916393143+918050126+919408479+920408322
1208+921122208+921947287+923606429+926330514+929286736+931469403+932821977
1198+933867286+934858148+935914180+937366808+939465574+942069971+944716283
1188+946748486+947645908+947714560+948100363+949712924+952564427+956118884
1178+959603088+962108823+963291646+964043826+965801629+969101530+972685161
1168+974143637+972525228+969995053+969648589+972213090+975836478+978566621
1158+979900744+980438682+981180487+982681088+984495080+985901823+986753848
1148+987205867+987383903+987476646+987556995+987867114+989452659+993275737
1138+998458700+1002540233+1003912511+1003060625+1001976324+1002666954
1130+1005467630+1009035525+1011269785+1010732265+1008560112+1007811343
1121+1009756582+1012778114+1015422756+1017558911+1018446098+1017390692
1113+1016149034+1017541713+1022193492+1027918221+1031558946+1031541749
1104+1029060591+1026344652+1024538667+1023803824+1024404705+1026543715
1095+1029621019+1032797680+1036100853+1040199654+1044963462+1048585318
1087+1049331302+1047708645+1045452104+1043742135+1043138957+1043628295
1078+1044346915+1044841615+1046196486+1049506344+1053807411+1056674580
1070+1056685442+1054671134+1052078225+1049620532+1048206687+1049159044
1061+1053040331+1058728994+1063464742+1065456074+1065994290+1067815523
1053+1071553935+1073741823+1070945395+1064955525+1060592978+1060321293
1044+1062591411+1064933732+1067024700+1068833330+1068738637+1066235339
1035+1063570923+1062889971+1063874427+1065058364+1065892008+1066420686
1027+1066326341+1065016031+1062638548+1060784939+1061306724+1064515274
1018+1068086302+1068531358+1064505178+1058298142+1053735834+1052708767
1010+1053779421+1054996013+1057206113+1061908092+1067074622+1068588034
1001+1065309857+1059592856+1053776636+1049031766+1046239864+1045817646
993+1047083812+1048755904+1050073664+1051022053+1051782937+1052356246
984+1052396699+1051084021+1047995647+1044177443+1041256731+1039393722
975+1037005447+1033098956+1028960607+1026693344+1026765965+1027628921
967+1027626763+1026886767+1026712213+1027225085+1026491634+1022694040
958+1017055856+1013189401+1012857698+1013998327+1013332345+1009963931
950+1005301082+1000353111+995039458+989607649+985136274+982355651+980996254
940+980679104+981357270+982557082+983323884+983501433+983747982+983743944
930+982312274+979785232+978147327+978350429+979216867+979364337+978728573
920+977661749+975921423+973340002+970606726+968981841+969150896+970413581
910+971382301+971456384+971020380+970197180+968639555+966748626+965575550
900+965364441+965451197+965318000+964622218+963120364+961768695+962205257
890+964417236+966184995+965040537+960551755+955246249+952898985+954677327
880+957451614+957596369+955591112+954473251+955498438+957422023+958678232
870+958791724+958082574+956931988+955401448+953370916+951061111+949097978
860+948010823+947741714+947801315+947985687+948682027+950300575+952579745
850+954464756+954589319+952470570+949461153+947827216+948437079+949635150
840+949058012+946658876+944863057+945523469+948123061+950973659+952891047
830+954022207+955416487+956985601+956591999+952981423+948393353+946090372
820+946962171+949857957+953561764+957267520+960120346+961218712+960158780
810+957907253+956534070+957082800+958697032+960384790+961747390+961812352
800+959645839+956756249+956318644+959282873+963064245+964852544+964904207
790+965283117+967064732+969709165+971912092+972378106+970386496+966944695
780+964690800+964948351+965956758+965115037+962143915+959193054+958165848
770+959213455+961449177+963520510+963782099+961746693+959093000+957890960
760+958464338+959643402+960918829+963290811+967427349+972163724+975532834
750+976373928+975092653+973279845+972696231+974077770+975971276+976070772
740+973932319+970505001+966112026+961616421+959899490+962904172+968175213
730+970950265+969885878+968104472+968487977+970256224+970409194+967810367
720+964923354+964590607+966289853+967362805+967383902+968757085+972548483
710+976876426+979438420+978843388+974723699+968695744+963103375+958403067
700+954377444+952473982+954105202+958030284+960808818+959670069+955007777
690+950513634+949542129+950777520+950206788+947994600+948442928+952633915
680+955654403+952634472+945130703+937980570+934458767+935409524+937805110
670+935846085+927592364+920616646+920576193+922666116+921249904+916208980
660+912079543+912550779+915776318+915965146+910759834+904560596+902067811
650+903033398+904568046+904301862+901188910+896901907+895320121+898070109
640+902299738+904272549+902772506+897853360+890968227+887516887+893466860
630+906556871+915057768+909981056+895075452+878756560+865395979+858297718
620+858982987+864106139+869795568+876345517+886264089+898606306+908369052
610+911044469+904097716+889625470+874108054+862398677+855490706+851849007
600+849863245
##END=
