##TITLE=<SNM>
##JCAMP-DX=4.24
##DATA TYPE=INFRARED SPECTRUM
##DATE=2/5/2025
##SAMPLING PROCEDURE=Instrument type and / or accessory
##ORIGIN=Admin
##XUNITS=1/CM
##YUNITS=ABSORBANCE
##RESOLUTION=4
##FIRSTX=4497.3318
##LASTX=599.83466
##DELTAX=-1.4281778
##MAXY=1.7981867
##MINY=0.23678893
##XFACTOR=1
##YFACTOR=1.6746918e-09
##NPOINTS=2730
##FIRSTY=0.25589797
##XYDATA=(X++(Y..Y))
4497+152803020+153173153+153773402+154301827+154633219+154726397+154497313
4487+153887526+153103109+152707759+153186802+154276006+155025953+154806638
4477+153940059+153089459+152564023+152561781+153300837+154348096+154599407
4467+153555422+152021913+151100060+151049822+151402925+151708602+151942188
4457+152371937+153122470+153876119+154041209+153285461+151892129+150511627
4447+149597853+149170391+149049603+149107777+149257635+149479672+149987472
4437+151022898+152296679+153077305+153069991+152735147+152550481+152502468
4427+152375745+152008246+151343327+150586921+150044169+149639370+148999464
4417+148131647+147615936+147957854+148995015+150086060+150723378+150771836
4407+150294359+149556603+149071251+149146127+149498517+149637804+149384696
4397+148881345+148396741+148156392+148164462+148283106+148514255+148938220
4387+149441553+149797948+149868544+149602943+149054684+148365323+147587730
4377+146726899+145993084+145742511+146120492+146867004+147490664+147706134
4367+147667428+147571340+147202231+146260402+144957347+143835621+143158094
4357+142886105+143094448+143926237+145121975+146037982+146310942+146167686
4347+145903536+145428577+144592909+143691156+143299419+143581748+143997144
4337+143901092+143276347+142607727+142247720+142196842+142291595+142401288
4327+142596925+143028568+143496062+143568188+143288332+143161235+143305977
4317+143316503+143082080+143016601+143347859+143780909+144005544+144101044
4307+144198734+144090803+143585405+143053100+143113534+143803002+144446423
4297+144370996+143537837+142519282+141975045+142071862+142419493+142670207
4287+142971800+143602800+144393303+144849238+144697637+144028927+143090320
4277+142185016+141584349+141392538+141561482+141938439+142266503+142414973
4267+142624170+143186630+143979802+144647008+144995492+144936642+144466168
4257+143976786+144118885+145041841+146093825+146555508+146515557+146656330
4247+147203975+147589830+147329461+146707056+146292488+146250187+146409032
4237+146601483+146659631+146355458+145627240+144843971+144672393+145480932
4227+146906573+148185924+148821168+148822183+148589219+148628210+148995896
4217+149127148+148695113+148269582+148468440+148940827+148923939+148384248
4207+147975766+148160877+148782036+149327768+149437193+149225095+149097456
4197+149239029+149430627+149399413+149139783+148829043+148610467+148467310
4187+148179980+147534566+146729648+146310773+146533050+147158444+147946091
4177+148852640+149755167+150514029+151197349+151760049+151827246+151284833
4167+150688712+150599716+150859978+150983071+150935307+150990936+151068757
4157+150800914+150195326+149758780+149932306+150625413+151304871+151517120
4147+151285562+150881084+150438736+150090741+150058477+150231184+150169505
4137+149859735+149857795+150425691+151144709+151542408+151564759+151318555
4127+150837413+150281813+149980247+150027833+150152510+150216912+150460535
4117+150949490+151270329+151073989+150499277+149868544+149347645+149000015
4107+148890323+149056944+149455719+149953429+150428681+150865708+151268194
4097+151519843+151449016+151057546+150634328+150531647+150759058+150962962
4087+150944650+150950398+151245540+151666106+151808258+151504254+151022346
4077+150858056+151236393+151781066+151868870+151303198+150402094+149549075
4067+148991642+148884806+149130769+149364089+149385533+149378041+149541565
4057+149826012+150084530+150209225+150156781+150017654+149925543+149884061
4047+149906893+150165340+150663745+150977430+150687893+149935989+149297551
4037+149186603+149482484+149740557+149741429+149680692+149745077+149805387
4027+149760186+149887140+150497675+151384079+151988083+152126178+152185883
4017+152497984+152886090+153056520+153017067+152832525+152419291+151891791
4007+151693493+152099805+152913869+153744092+154267268+154268692+153757991
3997+153061876+152565198+152351044+152294614+152454188+152995640+153706668
3987+154064540+153888291+153479239+153125869+152933017+153038421+153554141
3977+154393030+155401709+156412932+157062974+156982430+156279642+155489922
3967+155041631+155020952+155356276+155961935+156702949+157364219+157746791
3957+157851661+157908430+158138030+158589187+159211396+159811485+159990171
3947+159584750+159076540+159067126+159606567+160348790+160965483+161213235
3937+161057113+160918039+161349265+162322797+163140723+163204752+162710672
3927+162348512+162439448+162621925+162554906+162631677+163448695+164794069
3917+165595231+164966064+163209575+161522008+160822494+161114006+161946346
3907+163285349+165453862+168179630+170309652+170929725+170105410+168413288
3897+166691553+165923989+166675786+168501608+169893570+169728124+168925199
3887+168954242+169632881+169964664+170339780+171490165+172294229+171485877
3878+170289614+170542491+172236446+174408786+176583314+178054360+177765323
3868+176328355+175471438+175475175+175231232+174278984+173368573+173287354
3858+174540759+177683516+182395996+185273206+182912463+178090361+174673034
3848+173812327+175015922+177136013+179174404+180998446+183031499+185047788
3838+185940919+185272316+184010423+183003524+182129292+181124831+180280069
3828+179982151+180439501+182168105+185520691+189021960+190047776+189030129
3818+188552723+188497485+186912707+184182276+182612392+183534388+186620252
3808+190046068+191978735+193166420+195529512+198459130+199492811+198801288
3798+198428450+198567079+198395208+198345148+199549597+202252338+205873657
3788+210013686+214718567+219941767+225598381+232201371+240397130+249725710
3778+259106716+268621190+279274037+291603293+305124986+317885824+327179951
3768+332411070+335223254+336648121+336986524+337251359+338500760+340568835
3758+342805399+345839460+351336518+360309326+371717014+382307843+390073319
3748+397113158+405877258+415568266+423216219+429267684+437386619+449353804
3738+464168622+479136981+491401639+500314404+508298518+518162358+530584009
3728+544353970+557180047+566358929+570567186+570581138+568436151+566265217
3718+564856936+563853151+563306111+563739579+564060080+561712186+556333042
3708+550193204+545751182+544067779+544035285+543646270+543014630+544082265
3698+547244348+551117833+554991033+559541893+565112020+570117738+572006076
3688+570767815+569027751+568121024+567747279+567950648+569408223+572513360
3678+576321534+577977674+575903229+573749165+574944254+576963034+574718035
3668+568544669+562959166+559938595+558544052+557353128+555829673+554070888
3658+552213443+550822175+550907950+552513728+554565217+556070022+556374720
3648+554847528+551722994+548436483+546286334+545552440+545959000+547395327
3638+549852629+552874055+555606301+557739081+559939805+562346923+562915460
3628+560090641+556653401+555920929+558529637+563259807+567963853+570783902
3618+571909766+573267186+575879240+578738618+580129459+579673498+578791970
3608+578962951+580263390+582214511+584883333+588157600+591103181+593140006
3598+595088067+598098068+601975254+605063592+606396846+607358384+609762655
3588+612718023+613577911+612436068+611593904+611777983+612273629+612954635
3578+614131856+615079086+614291092+611500156+608640030+607928843+609649047
3568+612014594+613189253+613357672+613617062+613993548+613544598+611606147
3558+608794212+606674957+606150981+606309932+605405625+603403110+602367898
3548+603337764+604337954+603101793+600559072+599158550+598908911+597529531
3538+594369832+591888862+592139390+593700251+593943910+593007535+593039354
3528+594259499+594666486+593323623+591093144+588365846+584864185+581654302
3518+581184567+584500725+588839567+589381625+584776274+578858277+575618497
3508+575412637+576551597+577637740+577722092+576525331+574991875+574081731
3498+573367305+571897344+569935652+568980450+569965585+571795197+572175989
3488+570109872+567099480+565412696+565523919+565684045+564114001+561228285
3478+558741513+557329353+556407428+555598400+555138879+554852831+553827443
3468+551604225+549204581+548154385+548504925+548712672+547775835+546481162
3458+545981530+546198210+546253448+545898637+545773391+546227715+546556117
3448+545972489+544817335+543864481+543000037+541590831+539638393+537806183
3438+536612375+536051384+535690024+534836720+532961195+530365335+528327336
3428+528040433+529251111+530400357+530378540+529483131+528362215+527079358
3418+525683214+524670888+524353804+524494639+524743103+524931274+525048014
3408+525068622+524774708+523950767+522775004+521555856+520217299+518640244
3398+517134727+515943198+514817263+513628048+512864327+513142723+514472810
3388+516086560+516943352+516470413+514848868+512782716+511146543+510559570
3378+511035213+512078753+513060080+513498068+513158917+511937384+509881731
3368+507605055+506263473+506518094+507615021+508051479+507198886+505827905
3358+504950185+504687378+504627692+504745926+505200429+505652119+505668491
3348+505481565+505727893+506712067+508060376+508796976+508092587+506235996
3338+504431974+503588351+503686441+504167601+504492907+504280889+503237028
3328+501358870+499237871+497612909+496494342+495357410+494274506+494001449
3318+494696478+495365952+495082573+494210655+493767293+493951372+494067186
3308+493736649+493384899+493471244+493870935+494149651+494117548+493982479
3298+494010062+494129898+494049640+493765834+493666249+494007642+494583938
3288+495114926+495587722+495812304+495298008+494271018+493956568+495013740
3278+496486192+497058751+496621048+495899646+495293417+494843328+494850695
3268+495607369+496551609+496487011+495000393+493083048+491960566+491850090
3258+492178279+492471054+492545867+492238962+491488766+490488612+489495897
3248+488737159+488462180+488620241+488680213+488299527+487728249+487147113
3238+486399942+485621416+485122673+484679240+483933671+483145535+482659036
3228+482167127+481149889+479547884+477676096+475838725+474174399+472831784
3218+472182419+472433196+473067934+473291127+472867376+471918046+470414345
3208+468604949+467316895+467130147+467585539+467632912+466915709+466217228
3198+466179002+466150743+465224726+463838404+463067744+462778279+461822649
3188+459865157+457789715+456303418+455182395+454062547+453102362+452486738
3178+451930835+451110489+450071967+448926315+447697273+446591839+445823492
3168+445097569+443812790+441889787+439980201+438774114+438330788+438113751
3158+437632876+436980272+436625888+436711913+436663971+435694852+433773094
3148+431736127+430289193+429332069+428429507+427451241+426574269+426002849
3138+425804106+425887105+426084317+426137954+425656437+424562642+423509492
3128+423121831+422976831+422094627+420326339+418565418+417580497+417140516
3118+416425876+415100559+413627074+412494769+411728237+411329364+411482016
3108+412044858+412465050+412356995+411771801+410991352+410331417+409932259
3098+409610548+409102054+408348334+407404272+406337099+405367838+404839769
3088+404865359+405134288+405232377+405085527+404894010+404704521+404358359
3078+403819363+403195766+402457920+401474245+400291507+399105636+398026505
3068+397081838+396380972+396058407+395989039+395694520+394750422+393319576
3058+392086334+391548370+391522530+391478504+391160851+390666593+390110477
3048+389522898+388989169+388622578+388376748+388038274+387501235+386945546
3038+386492752+385767186+384281565+382301721+380756058+380194959+380296644
3028+380363235+379963757+379185551+378412470+377794710+377131855+376383902
3018+375839638+375607511+375406704+374977507+374310204+373462132+372464042
3008+371440291+370661337+370339021+370310441+370094508+369419553+368542011
2998+367919303+367717037+367667387+367293429+366291744+364753875+363047480
2988+361552925+360471018+359795742+359516919+359750505+360400832+360829672
2978+360335948+359005933+357697984+357112897+357129625+357078373+356462962
2968+355300547+353932520+352740528+351936980+351448666+351064208+350712850
2958+350443067+350178551+349736897+349085076+348378729+347739401+347139650
2948+346492313+345729447+344818556+343824274+342933528+342297367+341895576
2938+341616183+341342450+340973367+340566165+340372833+340513953+340752344
2928+340757896+340407534+339724286+338742889+337514238+336148773+334894425
2918+334151561+334164730+334616812+334783629+334288908+333525366+333089513
2908+332990320+332755061+332186346+331556307+331038274+330449093+329705162
2898+329082027+328766723+328523171+328044146+327307226+326434275+325586097
2888+325069843+325084649+325297450+325099313+324343743+323509836+323092634
2878+323028889+322825698+322204450+321404106+320775597+320408828+320262867
2868+320263437+320178622+319769321+319102125+318454361+317970353+317571765
2858+317122068+316605031+316139745+315766248+315332282+314769262+314298743
2848+314134418+314158905+314077400+313722732+313123088+312445285+311900025
2838+311554966+311276214+310956176+310687639+310583036+310547160+310339270
2828+309761799+308807985+307779785+307153127+307109314+307303857+307233172
2818+306669902+305725271+304723266+303981719+303504509+302995374+302310168
2808+301651336+301196477+300855049+300507784+300158561+299751751+299174707
2798+298546359+298191655+298196157+298242426+298030461+297635290+297256686
2788+296811331+296065958+295091536+294269108+293830995+293626558+293342165
2778+292774927+291916124+290949497+290178640+289794965+289630995+289259136
2768+288472068+287543256+286837657+286344840+285815258+285138932+284355743
2758+283521196+282766693+282273485+282020911+281727353+281178373+280522762
2748+280102196+279995101+279893007+279493120+278824944+278102635+277447361
2738+276839816+276221806+275605933+275104823+274800001+274608377+274366480
2728+274002219+273573681+273200665+272955227+272747213+272361918+271694971
2718+270902083+270220294+269674322+269092989+268424049+267849461+267512054
2708+267316177+267084210+266735646+266270840+265765940+265386749+265223402
2698+265107623+264760091+264157635+263628960+263483676+263611165+263583403
2688+263143333+262439104+261772495+261286227+260917767+260521403+260017304
2678+259498559+259150493+258991862+258791767+258358976+257800564+257344229
2668+257033267+256785640+256628076+256628664+256667957+256513490+256114777
2658+255649580+255279642+254999413+254715287+254365762+253975787+253644146
2648+253424814+253208952+252838623+252336304+251885859+251603423+251463620
2638+251411532+251417636+251434863+251385604+251200724+250850274+250350979
2628+249771445+249237751+248875128+248702759+248662594+248753245+248973343
2618+249139359+249005339+248582300+248119594+247775194+247505037+247260399
2608+247106983+247093209+247101840+246948014+246628207+246334596+246196056
2598+246175306+246224849+246308436+246269125+245959658+245525834+245306466
2588+245437069+245735823+245952201+245970620+245804800+245520300+245179761
2578+244824897+244494555+244225288+244022666+243879482+243827323+243905126
2568+244065572+244189750+244243636+244366711+244728907+245292105+245760310
2558+245816901+245448102+244991874+244786796+244818419+244822139+244640711
2548+244307967+243875211+243360648+242824927+242367755+242074321+241975449
2538+241999206+241996181+241871148+241661817+241488878+241448411+241491921
2528+241420934+241116254+240741494+240572684+240662446+240817108+240870531
2518+240834904+240777104+240687947+240554675+240469451+240536114+240703394
2508+240809082+240780378+240678711+240554942+240376825+240127649+239883670
2498+239752623+239772162+239872032+239912766+239785349+239505031+239189050
2488+238927792+238703245+238445706+238138143+237822038+237509545+237171267
2478+236850944+236690444+236749188+236872672+236823592+236503572+236018870
2468+235584940+235370555+235364736+235367796+235166883+234753827+234333207
2458+234094354+234024541+233964160+233793250+233546264+233357967+233286108
2448+233234216+233109593+232958507+232841500+232703406+232477916+232193968
2438+231912244+231668087+231482318+231332211+231148239+230905310+230666847
2428+230522453+230526030+230665477+230849218+230973236+231031214+231089655
2418+231154556+231167191+231138932+231164397+231275976+231400333+231486962
2408+231576599+231726261+231939721+232165246+232319801+232358151+232337277
2398+232350588+232410026+232503257+232766598+233480081+234902314+237232199
2388+240707665+245589116+252046323+260169315+270042337+281682686+294929239
2378+309485041+325034786+341198554+357412292+373084792+387868965+401452036
2368+413091744+421850861+427272501+429306194+427929910+423531025+417016302
2358+408915412+399025413+387037906+373342794+359973806+350168301+346213205
2348+348566545+356379002+367461100+378330859+386159510+390496537+392374624
2338+392772821+392193286+391016456+389627893+388138606+386314261+383912197
2328+380976190+377678717+373915922+369273984+363555334+357161052+350715946
2318+344499799+338449402+332492040+326600416+320654480+314577246+308572157
2308+302917642+297556989+292193256+286756739+281500066+276671646+272325455
2298+268393066+264765109+261359563+258211111+255408163+252903329+250530271
2288+248256621+246266420+244713531+243505559+242395997+241218135+239995730
2278+238887609+238054111+237512909+237090261+236569523+235910850+235259421
2268+234749075+234393108+234134376+233896892+233628213+233355084+233133955
2258+232949734+232751205+232531944+232290349+232001134+231683623+231403589
2248+231194170+231052445+230990427+231016052+231067553+231024399+230834429
2238+230605594+230495030+230526243+230597266+230632946+230657202+230750647
2228+230973574+231298186+231620519+231867399+232069487+232308127+232609587
2218+232932401+233270857+233714558+234361538+235219487+236217986+237256971
2208+238236055+239090800+239806366+240410904+240985669+241622666+242334424
2198+243072572+243845279+244725490+245721694+246716527+247582680+248307801
2188+248942610+249502694+250015441+250550558+251113472+251631185+252064991
2178+252411455+252652285+252787995+252815062+252679886+252367589+251954034
2168+251523022+251131553+250798559+250448286+249977038+249366735+248646685
2158+247869084+247173681+246716456+246529797+246530366+246632496+246858341
2148+247308483+248019884+249120068+251140504+254665210+259620140+265420632
2138+271709332+278458922+285609077+293047681+300740302+308692171+316915673
2128+325406894+334127679+343048666+352076285+361011580+369769452+378359510
2118+386521119+393770021+399742901+404181078+406920443+408159593+408461123
2108+408471338+408681470+409235521+409992586+410786453+411406099+411500772
2098+410790261+409224524+406942901+404198127+401100535+397442094+392925544
2088+387298400+380317180+372007796+362742675+352837408+342448666+331821391
2078+321304058+311280093+302103667+293926522+286802012+280903803+276247237
2068+272458994+269179245+266314154+263809533+261628919+259806941+258252664
2058+256819612+255561669+254585681+253901739+253572073+253646424+254023960
2048+254653518+255648850+257188677+259552213+263028498+267678782+273513852
2038+280725099+289331031+298873960+308690605+318211699+327076060+335194033
2028+342526789+348902492+354271670+358748322+362278812+364723480+366112755
2018+366439199+365492681+363117987+359425734+354740124+349405221+343568514
2008+337217298+330397842+323237135+315878824+308566640+301639590+295336672
1998+289725490+284843861+280743642+277292894+274093493+270833730+267627958
1988+264777299+262401270+260474102+258926178+257606075+256400274+255368194
1978+254577833+253958365+253412731+252891886+252386844+252006158+251909367
1968+252017583+251992117+251645777+251173017+250846074+250706217+250680289
1958+250795125+251089679+251467091+251811206+252131974+252481802+252842965
1948+253207155+253706253+254483552+255320003+255630058+255162066+254405856
1938+253956478+253915441+254089377+254351632+254690516+255144573+255716438
1928+256340676+257037395+257903228+258835260+259652118+260504711+261561260
1918+262407161+262525484+262222939+262281719+263017340+264157422+265260364
1908+266037111+266487200+266831404+267248980+267727329+268198897+268715542
1898+269377970+270096649+270594057+270816414+271094615+271580099+271852587
1888+271519256+270838374+270262719+269864166+269534643+269302872+269227987
1878+269248737+269253951+269238398+269458353+270353210+272009688+273616711
1868+273917245+272670851+270946786+269773141+269351080+269362487+269480740
1858+269583261+269697990+269855037+270042283+270324594+270851401+271722251
1848+273026801+274799325+276491661+276937906+275855962+274486636+273918615
1838+274109065+274470353+274804645+275583012+277264154+279401561+280808133
1828+281036666+280815857+280649218+280312915+279738523+279322121+279325128
1818+279619629+280024571+280641103+281725164+283193149+284426908+284868882
1808+284724844+284737852+285486998+287063004+289048292+290683344+291442491
1798+291642088+292230698+293946187+296561443+298623467+298733125+297511538
1788+296717458+297157760+298449710+299979038+301519647+302930171+303970792
1778+304806621+306200060+308841975+312444182+315402967+316259759+315485930
1768+314326469+313508045+313668704+315219742+317479619+319126576+319964682
1758+320798625+321895979+323241156+325432413+328942545+332872477+335444490
1748+336169701+336217607+336751656+338192361+340385325+342672358+344328000
1738+345762974+348388944+352453697+355506265+355189181+353003584+351099515
1728+349984080+349707855+350269345+351404924+353213609+356487663+361586168
1718+366945060+369486500+368350885+365854824+364063650+363712790+364992266
1708+367764979+371202682+374224464+377045831+380941382+385814843+389373770
1698+390462618+390114855+388649307+386607641+385749355+386973379+389786275
1688+393771623+399346484+405987663+410249556+409887876+407811260+407098613
1678+408656663+412018236+415670057+418389881+420815151+423815614+426405850
1668+427298340+427685539+429552131+433019375+436515199+438929791+441160803
1658+444878824+451198151+460441881+470509018+475692871+475803276+476805921
1648+480620965+484839793+486669227+487004177+488233327+491329103+496492883
1638+503714630+511777579+517440101+519175645+520112447+523405684+529584531
1628+537426422+545647931+554037254+562544989+570333813+577097890+584128119
1618+592649236+601592361+608309813+612634881+616447433+620493465+624297332
1608+627396490+629815994+631867910+633954136+636422757+639535012+643489502
1598+648315484+653846816+659901129+666354777+673030729+679634075+685817726
1588+691279157+695771434+699195399+701896645+704624299+707985552+712221286
1578+717338548+722748869+727386643+731597819+737157696+745202849+755298140
1568+765787996+775815449+786087557+797344409+809829377+824183535+840484544
1558+854389539+861713326+865007311+866946402+868265918+869200691+869425201
1548+868558550+867256901+866649214+867118095+867743365+865621405+857941277
1538+847921654+840684141+836799765+834432367+832227906+830475171+829849332
1528+829946639+829854457+829590298+829822710+830214714+829735297+828570675
1518+827592837+826850827+826351337+826590654+827693916+829387213+831815473
1508+834905377+836258562+833425415+829214737+827117834+827356367+828290499
1498+828267294+826985007+825540209+825138311+825937053+826729033+825779241
1488+823024110+820376678+819164862+819144005+819412507+819395850+819466748
1478+820672585+823576631+827393098+830241692+830439366+828292279+825831916
1468+824491686+824352239+824519945+824121820+823843139+825330860+828988091
1458+832542961+832213385+828283452+824653271+822800168+822114536+821870663
1448+821494533+820562608+819190274+817876524+816998484+816760804+817141561
1438+817408497+816233624+813580569+811386857+810911285+811437255+811401307
1428+810319684+809220622+808940802+809251729+809835712+810850281+811799433
1418+811144124+808533209+805525379+803403775+802121061+800785030+798896906
1408+797186027+796588091+796735084+796598555+796332829+796876097+798275053
1398+799726542+800605578+800522793+799396823+798155537+797851942+797995803
1388+796923006+794204107+792009683+792776607+796659416+802101699+807748347
1378+813147137+818103099+822237112+825260318+827284046+828814476+830455383
1368+832411131+834299682+835660413+836564008+837520206+838660911+839299635
1358+838852891+837741087+836734846+835968350+835352405+835261718+835830113
1348+836277782+835917454+835332331+835847553+838165265+841749819+845186525
1338+847192172+847685612+847775729+848534182+850023683+851709932+853525166
1328+855952286+859183203+862833174+866360994+869394593+871907560+874262359
1318+877024181+880917525+886444017+892646532+897112543+898820646+899944124
1308+903145856+908404060+913494913+916604250+917728796+918081080+918724715
1298+919676429+920238987+920098259+919635357+919055288+917853010+915589895
1288+912753829+910312685+908711570+907712590+906910787+906039651+904990773
1278+903839319+902884117+902550768+903005128+903784722+904089029+903678233
1268+903288720+903900964+905635974+907659701+909434360+911603372+914939568
1258+918903241+922169964+924209707+925442736+926187878+926210656+925320871
1248+924061861+923295791+922912329+921706065+919110455+916241502+914533542
1238+914225462+914663166+915014097+914265965+911785814+908366262+905650281
1228+904347992+903718736+902666298+900846865+898831181+897514370+897279324
1218+897718878+898306919+899055122+900301035+902187380+904467508+906583132
1208+907954113+908513468+908958289+910224418+912731620+916133803+919512068
1198+921818249+922506160+922131596+922207690+924025486+927538430+931471280
1188+934554066+936720159+938967615+941888175+944796064+946842285+948474935
1178+950774496+953683666+956105448+957570889+958700703+959979360+960954066
1168+961121986+960911926+961126257+961934325+963226578+965290880+968203325
1158+971087866+972899682+973680700+974451824+976287558+979700988+984142440
1148+987999125+989818202+989549487+988266844+986952951+986037255+985766760
1138+986267888+987395779+989045085+991395257+994355324+997201427+999503194
1128+1001759547+1004416517+1006935606+1008518570+1009180214+1009456119
1120+1009646746+1009872253+1010437089+1011631252+1013461861+1015974045
1111+1019095269+1021818724+1022835998+1022195495+1021065111+1020485256
1103+1021507655+1025025225+1030110953+1033976038+1034778980+1033475552
1094+1032020432+1031119970+1030574211+1030286704+1029837255+1028672491
1085+1027959951+1029893419+1034557815+1039742416+1044292137+1048644184
1077+1051816233+1052036686+1050211558+1048889622+1048637706+1048175160
1068+1047335274+1047498140+1049212507+1051070521+1051350555+1050662786
1060+1051875670+1056449523+1062063712+1065460342+1066578197+1067265895
1051+1067650994+1066712804+1065239960+1065519922+1068038584+1070604511
1043+1071150199+1069921797+1068029900+1065302032+1061540803+1058401213
1034+1057518475+1058289314+1059088270+1059440838+1060102767+1061491117
1025+1062573452+1061436805+1058182326+1055829663+1056465325+1059138240
1017+1062651041+1067378435+1072355395+1073741823+1069227053+1061582089
1008+1055214358+1051701272+1050357341+1051096076+1054036994+1057180570
1000+1057551575+1054714228+1051075575+1049051207+1049035191+1049496029
991+1048859014+1047554019+1047390726+1048888270+1050469383+1050201522
983+1047893347+1045578411+1045453627+1046914940+1046873298+1043518665
974+1038121726+1033046035+1029533732+1026817182+1022958788+1017458136
965+1012190393+1009075291+1007955158+1007375516+1006579621+1005746853
957+1004594973+1001987902+997550222+992892232+989867105+988314678+986515319
947+983265183+979021903+975074318+971999932+969579004+968012768+967940091
937+968920207+969313065+968330457+967164198+967244421+968195922+968618036
927+968364055+968379360+968602518+967876667+965786668+963366665+962108509
917+962751788+964541396+965603514+964620124+962071779+959559452+958567520
907+959604013+961659061+963029686+962891378+961498615+959514180+957906018
897+957296479+956902767+955561825+953442001+951358479+949573997+948371079
887+948560496+950279917+952040909+952061837+950480226+949483666+950487202
877+951670758+949762916+944560449+939905163+939424324+942609043+945275267
867+943990986+939958479+937325213+938195139+940983441+943131881+943743341
857+943396325+942758029+942135748+941740826+941591983+941383559+940808331
847+939946877+939186359+938871589+939158384+940123410+941769726+943524668
837+944230872+943522746+942322319+941295008+940122342+938966191+938833221
827+939568255+939458278+937882290+936593667+937267769+939291923+940827693
817+941187166+941368469+942651183+945685778+950443638+955674223+958918380
807+958663759+956151504+953605863+951661718+949780356+948048834+947388329
797+948514085+951174970+954253698+956436306+956873297+955657851+953606219
787+951644492+950607145+951223232+953486063+956116197+957737670+958635926
777+960109268+962173428+962972526+960796254+956425700+952742843+951685280
767+952748110+955025178+958626886+963293632+967725261+970575065+970667033
757+967077284+960464755+953312590+948456712+947620385+950610704+955336958
747+958995328+959849024+958101628+955444373+953558527+952564032+951536436
737+950670640+951720302+955734657+961359239+966055312+968645726+969911214
727+970600976+970030161+967446011+963956273+961843994+962560306+965407619
717+967770960+967352405+964182065+960461766+958520895+958872253+960054386
707+959976726+957690405+954119519+950917146+948103858+944799552+942295056
697+943002684+946089242+947819768+946637706+943639201+939248573+933610039
687+928101557+924055454+921549890+920326471+920330101+921343460+922341229
677+921180665+916539545+910304001+905401996+901348704+895201711+887867175
667+885928796+890945121+897620859+901684046+901891259+899167448+894898330
657+890231015+887575682+890100964+897954066+906817893+910879585+907745477
647+900232415+892578055+887080605+884281839+883843211+884395803+883628594
637+880252322+876092754+874478043+876288791+879246010+880551646+878961635
627+875266819+872469762+873338762+876242166+876148632+870642427+862925000
617+857663023+855171340+852415710+848961635+848139402+852433506+861363604
607+872858278+883502885+888342890+884724311+875830445+868228120
##END=
