##TITLE=<SNM>
##JCAMP-DX=4.24
##DATA TYPE=INFRARED SPECTRUM
##DATE=3/5/2025
##SAMPLING PROCEDURE=Instrument type and / or accessory
##ORIGIN=Admin
##XUNITS=1/CM
##YUNITS=ABSORBANCE
##RESOLUTION=4
##FIRSTX=4497.3318
##LASTX=599.83466
##DELTAX=-1.4281778
##MAXY=1.7691857
##MINY=0.24322475
##XFACTOR=1
##YFACTOR=1.6476825e-09
##NPOINTS=2730
##FIRSTY=0.26784867
##XYDATA=(X++(Y..Y))
4497+162560847+162258914+161698041+161045519+160679701+160724287+160878066
4487+160815158+160552312+160508088+161111556+162167391+162925399+162943884
4477+162427398+161730689+161115572+160842723+160859635+160617408+159789764
4467+158887980+158685147+159271433+160044815+160501034+160629454+160569838
4457+160382814+160197039+160087429+159788462+159020940+158081570+157642390
4447+157998531+158846035+159629057+159858731+159370028+158538459+158016637
4437+158041109+158185844+157924065+157192085+156317740+155727095+155792662
4427+156605149+157776490+158746138+159214168+158993032+157860723+156033622
4417+154292582+153192903+152663502+152613274+153172736+153994519+154173784
4407+153409753+152527141+152362456+152825855+153393818+153756019+153701648
4397+153171289+152627038+152631433+153017401+153157144+152932010+152754790
4387+152833181+153002714+153042000+152773185+152151629+151424442+150852409
4377+150347092+149736687+149165396+148933036+149200594+149993953+151194126
4367+152422307+153133956+152918879+151755351+150056690+148473462+147616272
4357+147802988+148876929+150352283+151779154+152770689+152871454+151967824
4347+150705178+149922770+149814363+150038946+150348033+150692571+150959659
4337+150963593+150675234+150365568+150454640+151055007+151704092+151835081
4327+151457198+150990000+150560867+150038195+149645924+149819654+150456666
4317+151024882+151397067+151870080+152405359+152532188+152074775+151435548
4307+151030760+150889443+150957850+151378256+152187170+153020801+153410006
4297+153280500+153035760+153102086+153391051+153439362+153159532+153031328
4287+153420099+154132110+154675637+154666521+154105070+153503826+153561832
4277+154506068+155817876+156677263+156693126+156192828+155818328+155919708
4267+156320362+156544194+156281583+155683342+155128637+154862173+155019859
4257+155713204+156840267+157975072+158591310+158481646+158119373+158326492
4247+159219667+159906772+159657437+158792659+158017179+157596592+157484866
4237+157546382+157518256+157278616+157138728+157469763+158172586+158887907
4227+159535039+160169582+160466487+160023399+159205468+158951394+159542473
4217+160211834+160284763+160041650+160017232+160128560+160042228+159844732
4207+159859600+160247105+160998926+161883419+162472888+162610714+162586350
4197+162660852+162769720+162695653+162277978+161679248+161422714+161744489
4187+162195336+162334754+162374257+162693464+163168801+163325818+162944137
4177+162416057+162452015+163302087+164444724+165201483+165393789+165260466
4167+165083336+165048446+165169288+165228090+165074184+165027500+165579655
4157+166571967+167184298+166984613+166458939+166279204+166592189+167162847
4147+167663380+167684542+166958549+165751305+164710374+164273020+164408205
4137+164834526+165256795+165503905+165739747+166457474+167900614+169512692
4127+170368064+170164852+169371194+168491078+167785542+167639866+168452480
4117+169930077+171033645+170968476+169985117+168940424+168293166+167907090
4107+167704909+167953032+168729633+169590902+170063291+170139565+170063019
4097+169909692+169631834+169362458+169389317+169734986+169970466+169709284
4087+169143925+168789412+168878999+169346848+170158503+171203395+171999422
4077+172055258+171555738+171190553+171335198+171867004+172592834+173318393
4067+173727892+173721652+173629623+173763904+174077938+174358474+174381336
4057+173977589+173249552+172524084+172003745+171762061+171960968+172651383
4047+173513502+174126213+174314304+174083111+173503391+172837014+172524410
4037+172836164+173660209+174736266+175890695+176924915+177555949+177694589
4027+177602597+177602452+177745089+177850322+177807003+177761549+177925204
4017+178177144+178040204+177231081+176073505+175141894+174638358+174381011
4007+174329009+174757048+175803875+177105482+178011788+178098210+177508615
3997+176866945+176731235+177072147+177480398+177796892+178159255+178597441
3987+179037074+179514799+179979320+180099999+179656767+178952479+178538548
3977+178642497+179036115+179373029+179552547+179746896+180109314+180539650
3967+180803961+180850428+180893928+181139356+181515231+181796454+181902573
3957+181864698+181594218+181004514+180326851+179990660+180208578+180847299
3947+181566165+181988325+181958427+181712745+181602828+181702852+181879240
3937+182063949+182353800+182985069+184022490+184898428+184853589+184131286
3927+183788313+184206060+184592588+184176360+183369480+183170591+183791550
3917+184355751+184057815+183268318+182966692+183479434+184272006+184816546
3907+185255492+186023013+187083442+187885420+188099033+187949377+187721422
3897+187420465+187088199+187038242+187409667+187690528+187456586+187413972
3887+188324366+189554925+190021309+190149585+190870568+191618302+191365874
3878+190474833+189904501+190026012+190958780+192653661+194181650+194327471
3868+193377755+192534357+192080254+191536727+190869718+190567332+190939517
3858+192151392+194487219+197653639+199496982+198077734+195061422+192754246
3848+191930816+192485195+193932189+195626130+197157428+198438054+199183075
3838+198951574+198095605+197561103+197609958+197800346+197981383+198510494
3828+199464587+200530081+201810163+203624078+205250029+205377201+204490701
3818+204063838+203824650+202698147+201143335+200504614+201398946+203528649
3808+205864060+207265618+207856769+208631164+209621251+210033554+210017076
3798+210243494+210486951+210308663+210186573+210878363+212432705+214393978
3788+216370734+218081948+219461837+221007986+223313173+226093697+228429398
3778+230207644+232390886+235765980+240339890+245562614+250603215+254947289
3768+258965644+263296712+268140269+273620304+280064218+287438856+294899229
3758+301589511+308005390+315699307+325631795+336853446+346751424+354157715
3748+361185581+370306053+381634998+392356062+400366871+407180763+414907310
3738+424457575+436194319+449780430+463430208+474971608+483429646+489138614
3728+492777839+494719306+495708579+497201623+499773148+502583462+505363715
3718+509223787+514941763+522103367+529931131+537888473+545881303+553993293
3708+561718501+568468762+574662943+581394320+589016466+596439904+601957254
3698+604812208+606163121+607794172+610493611+614717529+620767698+626667452
3688+629201644+628856464+628724353+630157021+632439943+634550383+636060610
3678+636103224+632970193+627944713+626214109+629886361+635630201+638748328
3668+638855043+638814745+640170505+642877902+646155053+649296331+652740826
3658+657437477+662809875+666935108+669416846+671405450+672429849+670062784
3648+665587885+663929775+666868185+672562683+678122682+681426313+682367799
3638+682865710+684746584+687476916+689046687+689285151+690559591+694514730
3628+699258047+702415170+704188749+705477152+706806433+708294087+709295623
3618+708952107+707641854+706542935+706078378+706377255+708686294+714423840
3608+722603332+729450577+732409317+732773236+733269338+734171683+733008589
3598+728567188+723449462+721429097+723639524+728744879+734890621+739720685
3588+741027393+739031627+735550523+731923706+730046160+731959013+736375671
3578+738720090+736611892+732486225+729980105+730742381+734095354+737597295
3568+738772760+737866797+737239381+737743152+738377441+738609395+739138994
3558+740601904+742404279+743005939+741545923+739350038+738791571+740240445
3548+741627099+741395146+740297457+739435483+738343075+736234517+734100491
3538+734138474+737301168+742437416+747507898+750745401+751262918+749565522
3528+746718129+743015417+739035317+736794865+737560541+739899027+741727665
3518+742901828+744380511+746161253+747131752+746771595+746313043+746929028
3508+747651801+746743162+744441140+742817975+743368194+745573701+746993419
3498+745026304+740122660+736330235+737149595+741657631+746002590+747781452
3488+747057593+744611596+741797121+740296951+740040037+739471007+738946182
3478+740752392+745060381+748851214+749339285+746313477+741834164+739091460
3468+739882459+742257410+742244097+739137185+736660439+738163214+742545361
3458+745809706+746670522+748250856+752810767+757395276+757386811+753226126
3448+749545554+748330224+747124661+744296730+742199675+743691814+748554001
3438+754248427+758294365+759024952+755610410+749001556+742060980+737727597
3428+736671653+737121885+737856524+739474914+742072122+744169394+744283490
3418+742226516+739016723+736758039+737538619+741287056+745058065+745658785
3408+743404803+741883579+743332815+745872216+746557585+745526964+744463930
3398+743410012+742263632+742919192+746597232+750686508+751150703+747405306
3388+743062734+742221162+745259270+748415669+748201007+745351588+743114391
3378+743594432+747021491+752369868+757588377+760676840+760898664+758417649
3368+753901800+749028977+745867803+745151035+745838357+746349724+745917507
3358+745159789+745458448+747126108+748510230+748079677+746934671+747707510
3348+751162641+754642299+754120079+748576357+741803777+738705981+740591124
3338+745163841+750222747+755039064+758729766+760249615+759809150+758745682
3328+758255224+758328370+757691258+755267979+751907770+749598731+749257096
3318+750579141+753176784+756388313+758524365+757832123+754268613+749866786
3308+747403063+748003420+750255449+752191671+753203119+753393037+752633655
3298+751149474+750137446+750890317+753805358+758210295+762319684+763487408
3288+760291795+754584202+749741115+747569901+747934182+749793279+751586972
3278+751934323+751181886+751086674+752276175+753271417+752763161+751651363
3268+751410656+751534663+750628484+749345290+749740608+751845694+753350785
3258+753171574+752926960+754047801+755554339+755613376+754143013+752585976
3248+752091973+752980354+754734038+755971145+755488356+753959245+753357585
3238+754266153+754890892+753256368+749653210+746311957+745168471+746336918
3228+748649069+751047678+752894982+753515091+752476873+750396603+748629317
3218+748041910+748574693+749744009+750754951+750544341+748993092+747611792
3208+747866463+749417061+750782516+750948848+749870910+748378409+747607885
3198+747518026+746542391+743963704+741341825+740206441+739956328+739483813
3188+739255911+740023396+741083247+741459176+741226789+740708620+739903007
3178+738996755+738227388+737475169+737064150+737911003+739873343+741245817
3168+740555022+738096725+735558771+734257345+733875917+733164431+731679960
3158+730374483+730256914+731011883+731506683+731347441+731205925+731633222
3148+732300648+732388697+730958851+727369439+722447636+718484176+716948120
3138+717050712+717250325+717203153+717396978+717669302+717053172+715103059
3128+713032411+712685422+714091683+715186695+714707596+714144064+715452652
3118+717896552+718843392+717407975+715398390+714201148+712835548+710312136
3108+708120013+708275710+710035833+710682494+709259593+707448898+706798619
3098+707157546+707863172+708871365+710261998+711315771+710501330+706790082
3088+701271032+696681313+695040929+696242296+698886893+701805045+704393933
3078+705913927+705415293+702893328+699775998+697443011+695946675+694802827
3068+694042793+693920088+694510823+695764932+697112734+697348739+695766958
3058+693119250+691049904+690798634+692197732+693579321+693140231+690812019
3048+688270664+686976473+686838864+686646848+685461037+683802927+683193743
3038+684212137+685466102+684997276+682382920+678784320+675433228+672973195
3028+671897572+672493372+674094180+675378676+675680592+675065981+673446072
3018+671023299+669098508+668884208+669926912+670736143+670479880+669380744
3008+668079680+667177841+666810160+666564533+666226950+665991307+665716740
2998+665005759+664221923+664198988+664628673+663969712+661460987+658226451
2988+655947364+655180602+655184364+654974695+654268634+653449708+652983559
2978+652992458+653037243+652247184+650144052+647382320+645234548+644365194
2968+644341898+644280039+643743349+643209770+643632147+645064743+646098258
2958+645402544+643463211+641858061+641187524+640657997+639466470+637766832
2948+636187728+634966538+633895112+632871364+632012718+631449042+631512492
2938+632630439+634333044+635020221+633531699+630320459+626686769+623861081
2928+622686267+622904329+622882913+621129808+617913286+614801672+613122725
2918+613041983+613507336+613065569+611180209+608796215+607472867+607903710
2908+609253320+610121661+610096556+609756368+609332181+608408204+606878442
2898+605202679+603730689+602424126+601104251+599711954+598548391+598057028
2888+598084485+597872681+597109139+596321576+595857200+595352163+594507987
2878+593471036+592280666+590706410+588682102+586427578+584311278+582930123
2868+582846486+583795678+584514182+583957054+582607950+581879497+582145129
2858+582278867+581478499+580384210+579678728+578753231+576770272+574326553
2848+572954984+573168090+573850456+573609532+572074235+569815913+567756335
2838+566769196+567088909+567904869+567963182+566665519+564492641+562509139
2828+561416152+560964726+560415918+559417312+558094687+556629064+555329013
2818+554699824+554829257+555036431+554511534+553122709+551500992+550388579
2808+549758052+548728588+546671796+544111486+542138004+541285218+541290174
2798+541537357+541379743+540366667+538566209+536552681+534968766+534204862
2788+534268060+534623080+534502183+533760889+532945363+532255654+531224092
2778+529695669+528216082+527141943+526188483+525030743+523710760+522432558
2768+521407001+520827987+520707995+520760087+520471448+519327708+517238286
2758+514823652+513031225+512332508+512309862+512014893+510843154+509151148
2748+507842379+507267488+506814073+505763013+504213030+502817224+501930108
2738+501415702+501008084+500408848+499217357+497260914+495002627+493235451
2728+492289768+491806147+491316954+490704731+489975193+488967218+487536829
2718+485808829+484073341+482594044+481531336+480804764+480110895+479329771
2708+478725760+478469317+478219313+477498529+476262326+474837617+473494590
2698+472260883+471064002+469966241+469207329+468903135+468725951+468155546
2688+467125359+466106712+465434475+464854483+463933110+462727005+461727531
2678+461141173+460583574+459663105+458531629+457566701+456823634+456153278
2668+455618361+455406231+455394981+455101422+454161636+452749877+451354035
2658+450220388+449276080+448486239+447889607+447334251+446604677+445794216
2648+445204349+444901204+444606741+444018538+443144843+442264348+441505291
2638+440642847+439521934+438418348+437645292+437085956+436465160+435785435
2628+435165254+434520727+433685377+432701530+431818611+431239235+430934679
2618+430759159+430676499+430644665+430375090+429613646+428592756+427769055
2608+427234536+426771100+426274781+425794741+425390487+425138349+425045199
2598+424928065+424588636+424027275+423364009+422707653+422126287+421579107
2588+420946554+420237201+419614017+419170297+418840419+418525083+418196253
2578+417912317+417744574+417627440+417373457+416935235+416511338+416263794
2568+416071741+415708691+415175691+414706648+414486017+414479542+414504973
2558+414365772+413982717+413501411+413177103+413079612+413032730+412882098
2548+412670764+412512101+412425571+412346999+412231059+412080319+411896080
2538+411690969+411536792+411467553+411362682+411096797+410756718+410523969
2528+410407088+410260146+410011769+409764442+409664527+409686376+409591128
2518+409187489+408593679+408122068+407959932+408079780+408378294+408732699
2508+408952136+408858660+408462690+407963514+407564614+407340655+407211330
2498+407000395+406658181+406395841+406362018+406295673+405844681+405086457
2488+404378371+403896305+403620870+403517192+403492413+403409211+403256155
2478+403126468+403059255+403077089+403268852+403643515+403972127+403943079
2468+403500986+402941434+402619803+402623819+402759728+402770616+402535805
2458+402144647+401782790+401500518+401184422+400794493+400458900+400273612
2448+400178038+400086914+400023716+400058372+400138716+400053090+399647606
2438+399020262+398400407+397967177+397835392+397961099+398022741+397717173
2428+397176395+396761578+396539248+396288303+395885604+395432732+395135700
2418+395165870+395476901+395758486+395777731+395708601+395860391+396200434
2408+396477389+396695197+397042440+397387077+397301017+396690748+396034934
2398+395834887+396066153+396313553+396308199+396150006+396000423+395750889
2388+395139028+394030052+392382180+390057477+386845188+382591244+377259254
2378+371033456+364381013+357784242+351356444+344933819+338588319+332774806
2368+327871054+323875471+320694003+318481984+317633177+318573904+321484387
2358+326101236+331955229+339038225+348045217+359139496+370356698+378345078
2348+380773639+377911016+372574721+367932115+364818511+362211825+359291069
2338+355906226+352268665+348687573+345305877+342351877+340468976+340143873
2328+341011382+342237456+343344297+344433340+345886086+347965270+350542257
2318+353150354+355354270+357112041+358790337+360801477+363225552+365806084
2308+368219127+370247811+371798156+372903406+373718678+374431431+375138866
2298+375826984+376472343+377099108+377702758+378233189+378708816+379212225
2288+379735856+380180589+380523382+380832568+381099900+381186901+380959904
2278+380427410+379759116+379187481+378857133+378762101+378819149+378916749
2268+378892078+378645980+378332996+378232285+378390297+378615413+378815098
2258+379062859+379331928+379429165+379252596+378970577+378866032+379028855
2248+379274156+379389482+379358407+379291412+379280885+379377906+379546155
2238+379619734+379501370+379391797+379588407+380057414+380460691+380630098
2228+380734824+380915372+381075808+381154054+381287214+381565145+381859463
2218+382016679+382063525+382143363+382329266+382580970+382897645+383386801
2208+384047173+384618844+384878289+384988767+385318031+385980066+386742849
2198+387315967+387589847+387657964+387727600+387986214+388455908+388969265
2188+389328807+389486095+389556455+389711754+390096473+390785278+391728863
2178+392727686+393534674+394054760+394445846+394982934+395807033+396834941
2168+397916098+399022505+400247204+401655491+403208549+404848535+406622187
2158+408685419+411183617+414124414+417335762+420533654+423480094+426116155
2148+428503621+430648174+432487122+434055301+435541436+437162539+439041713
2138+441170421+443467740+445924192+448652028+451727070+455027770+458289691
2128+461301355+464024633+466492154+468601654+470127472+470965607+471191302
2118+470824272+469733673+467858876+465390739+462631070+459739796+456745424
2108+453727647+450759538+447729642+444508996+441229024+438125585+435215681
2098+432357146+429493401+426674766+423945918+421315031+418797660+416460729
2088+414399813+412666423+411249238+410099529+409127150+408224624+407336459
2078+406483203+405734420+405153887+404702931+404214209+403544324+402764539
2068+402143019+401883211+401883790+401847000+401608500+401199507+400681266
2058+400169899+399869792+399809380+399737718+399485073+399184894+399026738
2048+399047538+399202547+399414641+399560606+399576487+399558218+399673254
2038+400016011+400581677+401281009+401952884+402498654+403021489+403638125
2028+404185848+404402463+404316475+404109809+403749399+403127879+402366941
2018+401642395+400929679+400170984+399459570+398867171+398272999+397495746
2008+396516204+395510399+394686228+394103921+393662516+393238222+392781261
1998+392305490+391874828+391583404+391444818+391311369+391012203+390552023
1988+390068727+389663822+389347907+389042085+388624374+388122485+387787108
1978+387766633+387836667+387694681+387355832+387019080+386753629+386529309
1968+386337655+386135256+385868973+385607212+385446017+385329751+385152350
1958+384963336+384909653+385029138+385184509+385171378+384899416+384505291
1948+384256227+384319244+384620508+384869354+384742670+384186229+383506069
1938+383066437+382991157+383149349+383313294+383344440+383281785+383235156
1928+383253786+383370595+383628304+383955867+384205365+384370286+384502650
1918+384469224+384138369+383705103+383475502+383498111+383594227+383580734
1908+383423916+383275419+383310942+383479626+383520648+383274442+382884007
1898+382634545+382631109+382712357+382733411+382775591+382903360+382938486
1888+382722450+382400386+382227904+382314289+382622065+383006640+383246298
1878+383176842+382844432+382529313+382602458+383245828+384216652+384901550
1868+384802467+384085807+383364951+383032794+383079640+383308953+383528968
1858+383638216+383659451+383683181+383765298+383908587+384101001+384390942
1848+384957621+385911479+386886427+387172172+386637255+385925515+385580515
1838+385720693+386218061+386819033+387364007+387915312+388481158+388851770
1828+388963622+389005259+388992924+388789657+388540340+388574309+388944449
1818+389429663+389938425+390638843+391600153+392532812+393097429+393392326
1808+393828486+394563776+395432949+396330229+397271969+398111551+398614308
1798+398928849+399569614+400844849+402508819+403901586+404586846+404899939
1788+405454102+406483348+407892539+409591418+411532740+413482093+415126348
1778+416528051+418181458+420492306+423254183+425578018+426759343+427155060
1768+427492065+428160503+429384479+431186781+433147674+434820797+436393859
1758+438189253+439965112+441487566+443164776+445430804+447975956+450023127
1748+451283277+452137292+453097192+454523783+456462826+458532822+460324562
1738+462114493+464600102+467755380+470388908+471706178+472603748+473898120
1728+475543713+477407441+479481091+481682800+484124637+487276768+491402616
1718+495895350+499474561+501680176+503263006+504852818+506637684+508885806
1708+511981612+515861182+519892253+523816860+528118736+532855432+536958057
1698+539863873+542387465+545099855+548055519+551490392+555605135+560228930
1688+565281397+571212153+578042070+583981146+587499475+590025563+593335995
1678+597892469+603385979+609132641+614572034+619851100+625212717+630142117
1668+634106590+637830210+642507182+648436383+654673720+659957127+664301725
1658+668789430+674245825+680790215+687705324+693399460+697701950+702096976
1648+707021818+711536220+714733280+717289538+720268608+723829659+727679168
1638+731501184+734565410+735858877+735901491+736328354+737409403+738268483
1628+738416149+738350021+738375416+737604964+735315242+732586791+730719374
1618+729147866+726188475+721753513+717611350+714618750+712285763+709757286
1608+706540909+702940573+699654668+697031775+695039699+693614266+692676180
1598+692042180+691513883+690952666+690263174+689365749+688200991+686817738
1588+685457781+684435119+683883670+683670310+683647810+683972081+684901195
1578+686176575+686927276+686940588+687564097+689787981+693030838+695952390
1568+697991494+699994494+702950629+707291393+713214371+720907528+729800388
1558+737517059+743254967+749293632+756744708+764897792+772852783+780351248
1548+787388266+794149704+801076028+808083166+813982703+817299356+818265297
1538+819256053+821379299+823679078+825144737+825856875+826560042+827588203
1528+829201022+832100435+836599644+841837253+846491580+849936148+852665105
1518+855240464+857407988+858972549+860518300+862620926+865163149+867765277
1508+870354310+873055340+875655443+877742224+879406050+881300381+884156891
1498+887608766+889706038+889402314+888347746+888331829+889327794+890288453
1488+890832884+891558624+892739298+893943558+894839247+895770605+897404405
1478+899952560+902944002+905600610+907216684+907631393+907765746+908725898
1468+910557069+912479255+913547787+913382251+912676408+912461312+913144582
1458+914326631+915049766+914732151+913674037+912375433+911336926+911000717
1448+911468240+912590673+914128827+915539573+916175744+916035241+915755971
1438+915725078+915902118+916378468+917048136+917313443+917060146+917161364
1428+918171654+919331709+919908047+920491474+922004595+923946750+924474468
1418+922689964+920204535+918874170+918911140+919546588+919956231+919847996
1408+919535735+919159372+918063564+915668718+912606445+910007645+908329061
1398+907419408+907077990+907193677+907621264+908122068+908123153+906573568
1388+902794817+897858616+894207128+893416346+895332817+898857476+902657859
1378+905645973+907406675+908487072+910213263+913450549+917368356+920289908
1368+921661224+922364390+923230560+924373902+925732050+926988764+927456215
1358+927148150+927286049+929002255+932032621+935132226+937333899+938379279
1348+938590395+938768737+939543964+940629209+941295911+941466440+941897644
1338+943434640+946200351+949238169+951035841+950936577+949919703+949418754
1328+949715026+950160627+950501177+951026219+951736982+952391312+953137165
1318+954213873+955259036+955756440+955917346+956319538+957011996+957424679
1308+956925828+955438608+953634280+952399777+952197994+952958317+954072791
1298+954386788+953015039+950473322+948287856+947386741+947435215+947489477
1288+946761350+945039935+942725830+940271295+937675027+934843913+932078563
1278+929623450+927161897+924301480+921215694+918397241+916090299+914230551
1268+912663385+911328099+910250812+909236325+907873330+906133465+904327834
1258+902167184+899037988+895542052+893373226+893375758+894701060+895814304
1248+895695506+894394948+892891088+892007120+891696378+891912341+893280184
1238+896014785+899017007+901064575+902277879+903482863+904747897+905412501
1228+905095464+904278709+904035035+905068478+906979450+908841658+910415914
1218+912120545+913947953+915271011+915847855+916375284+917809544+920419703
1208+923462079+925659556+926347022+926311354+927147427+929569115+932609972
1198+934689374+935251458+935212245+935992608+938354174+941877747+945434096
1188+948487541+951428700+954264662+956093373+956486738+956399195+957072119
1178+958814299+961198582+963878486+966798736+969755523+972096107+973138665
1168+972934061+972379573+972541202+973995358+976535483+979284047+981403892
1158+982895163+984315098+985643510+986153214+985817077+986028628+988433386
1148+993049584+997885798+1000881508+1002064064+1003099894+1004375129+1004319492
1138+1002440861+1000665328+1000320147+1000372963+1000128927+1000854956
1130+1003094323+1004897711+1004674295+1003844155+1004748237+1007798933
1121+1011740905+1015155592+1017252285+1018383545+1019807603+1022052975
1113+1024148728+1025388151+1026479111+1027583023+1027574413+1026303085
1104+1025432284+1026354163+1028685849+1031310550+1033765157+1035813376
1095+1036674048+1036129617+1035779155+1037397038+1040639751+1043679377
1087+1045442900+1046300316+1047198972+1048839718+1051099704+1053187499
1078+1054522639+1055074161+1055342217+1056012102+1056946064+1057102339
1070+1056405757+1056881166+1060081916+1064760190+1068475490+1069334209
1061+1066122679+1059951035+1054881639+1054004182+1056291589+1059166403
1053+1062005042+1064903877+1066724267+1066825846+1066698148+1067930987
1044+1069956271+1071386986+1072347138+1073521735+1073741823+1071561855
1035+1068514487+1067257846+1067565404+1067162416+1065349334+1063221602
1027+1061962356+1062542094+1065205647+1068306843+1069100809+1066527910
1018+1062152202+1057847613+1054423448+1052848251+1054367377+1058457087
1010+1062036587+1062359556+1060132199+1057989925+1057217448+1057448822
1001+1057806736+1057360555+1055557457+1052585405+1049044612+1045807543
993+1044142198+1044787774+1046973241+1049072539+1050243446+1050463534
984+1049359984+1046833244+1044064422+1041752488+1038587190+1033395161
975+1027273077+1022342229+1019834662+1019372637+1018828278+1015697708
967+1009617876+1002573044+996545593+992071706+988786091+986585720+985783000
957+985845510+984990699+982068207+977759494+973181352+968848185+965297046
947+962901042+961324109+960507571+961090130+962999944+965153215+966872026
937+968192697+968826263+968088224+965894293+963075622+960695535+959351351
927+958821606+958442060+958045801+958125675+958849389+959373200+958999297
917+958745422+960151031+962622786+963815180+962474324+959369221+955847022
907+953159521+952491227+953716541+954824287+954081183+951832628+949312761
897+947325822+946479331+946798827+946942731+945576914+943487528+942698410
887+943731057+945001083+944806752+943151174+941426213+940774343+941069963
877+941138696+939838066+937446909+935713266+935693515+936296332+936013156
867+935020735+934307078+934058702+934110432+934635980+935599243+936534435
857+937380781+938690093+940723047+943022102+944692222+944934304+944021034
847+943580063+944937343+947444403+949112497+948537173+945766181+941885778
837+938064413+934656455+931658863+929955173+931033762+935045985+939974517
827+943507496+945174794+946177488+947642931+949170450+949552022+948982268
817+949212991+951292104+954432296+956990074+957601140+956091347+953802854
807+952246323+951498590+950804177+950241876+950591687+952186707+954517163
797+956292479+956169123+954096522+951689882+950534747+950500454+950502986
787+950230734+950227406+950845272+951990061+953378306+954618235+955637425
777+956577175+956698505+954834271+951617243+949515196+949788243+951193998
767+952356874+953365283+954194917+953821159+952068126+950492929+950392870
757+951145379+951371761+951068471+951416183+952928870+955349401+958647822
747+962001953+962877095+959926603+955845575+954606008+957180209+961703583
737+965724271+967161859+964975525+960481163+957187951+957652074+960599599
727+961987194+959421747+954580034+950657814+949708948+952526751+958163875
717+962652449+961719283+956560968+952832211+953267684+955147762+955229083
707+954143621+954363998+955960683+957048461+957344371+958642613+961613363
697+963612384+961405575+955612175+949823695+945919996+942888400+939645471
687+936384816+933261046+930129825+927409477+925345992+923404923+921263662
677+918702050+915862615+913645459+911518089+906333295+896624331+888634974
667+891080176+899898443+905953459+907727618+907464844+906213990+904294409
657+902732886+902608010+903470274+903533797+900699137+893804068+884920542
647+877831866+874825447+876474152+881841267+888033097+891361616+890693973
637+888575502+887855334+888724109+888941664+887048490+884613417+883448949
627+882932300+882021129+881218915+881217468+881063364+879732419+877742369
617+876504828+878131466+882496249+885682384+884010672+878438445+873841564
607+874389396+879912063+885942047+887589593+884027891+878539084
##END=
