##TITLE=<SNM>
##JCAMP-DX=4.24
##DATA TYPE=INFRARED SPECTRUM
##DATE=2/5/2025
##SAMPLING PROCEDURE=Instrument type and / or accessory
##ORIGIN=Admin
##XUNITS=1/CM
##YUNITS=ABSORBANCE
##RESOLUTION=4
##FIRSTX=4497.3318
##LASTX=599.83466
##DELTAX=-1.4281778
##MAXY=1.8399051
##MINY=0.36638901
##XFACTOR=1
##YFACTOR=1.7135452e-09
##NPOINTS=2730
##FIRSTY=0.39089933
##XYDATA=(X++(Y..Y))
4497+228123151+228521781+228716973+228475152+228289317+228558339+229033825
4487+229223573+229008084+228689042+228474457+228166823+227600585+227105273
4477+227209557+228090489+229437811+230718137+231531275+231714484+231121619
4467+229627090+227654345+226321615+226525504+227974483+229420558+229829048
4457+229169710+228043565+226826546+225598430+224796215+225077151+226228828
4447+227068349+226862182+226041270+225278327+224712280+224265509+224104683
4437+224471381+225233629+225785309+225611092+224980937+224650451+224842287
4427+225027740+224726037+224054107+223417570+222994209+222677688+222363046
4417+222096841+222092371+222662418+223765675+224721411+224927926+224672626
4407+224598587+224726872+224705323+224594100+224676522+224785988+224521314
4397+223946206+223473120+223251057+223177314+223290763+223597179+223840844
4387+223962780+224125867+223921265+222639669+220671167+219358369+219221614
4377+219562588+219840481+220207265+220678368+220935477+220973252+221052491
4367+221098563+220845976+220375900+219928607+219470862+218910677+218360909
4357+217861005+217294089+216810760+216893912+217741416+218839438+219405137
4347+219172516+218492012+217770305+217171404+216778688+216671570+216854744
4337+217270227+217770983+218216241+218738320+219467853+219925129+219458566
4327+218316089+217325847+216664926+216040529+215755470+216336231+217241599
4317+217183214+215962942+214883704+214943533+215639795+216130829+216573304
4307+217463332+218561911+219252642+219285983+218706196+217712771+216857545
4297+216711415+217149455+217480794+217415539+217463072+218167717+219269808
4287+219968470+219852690+219151385+218195857+217163630+216268871+215725538
4277+215585514+215861667+216608540+217738929+218968888+219925616+220223162
4267+219799766+219197700+218925373+218652246+217830725+216937984+217053955
4257+218245060+219388388+219668507+219308749+218827351+218524570+218589912
4247+218869979+218742111+217995864+217409886+217697257+218506430+219162707
4237+219596625+219861856+219645375+218923390+218264643+218000577+217860414
4227+217705414+217859179+218429695+218929286+218873127+218353587+217788097
4217+217412982+217290837+217436235+217590174+217319134+216679605+216288820
4207+216528989+217130533+217624523+217816725+217745956+217510709+217228190
4197+217084078+217291306+217819490+218341447+218659707+218872675+218946452
4187+218611426+217864657+217099522+216601027+216291724+216121820+216366876
4177+217165387+217962749+218054459+217639828+217575616+218183735+219046301
4167+219736876+220094233+220054788+219687186+219147367+218491629+217789436
4157+217215580+216842692+216689049+216970559+217803228+218661985+218696544
4147+217765209+216708076+216336196+216551807+216811577+217026040+217401921
4137+217781001+217847004+217711745+217720598+217948697+218248382+218456010
4127+218375797+217938487+217486829+217538275+218121192+218682717+218828290
4117+218766460+218824759+218920451+218716580+218072094+217299585+217055955
4107+217716041+218763365+219266904+218990194+218397711+217721241+216814203
4097+215771350+215039573+214993188+215681606+216763766+217607740+217772357
4087+217364284+216736130+216057938+215329083+214584280+213987971+213819284
4077+214333571+215510953+216889077+217737694+217620349+216836761+216094027
4067+215780376+215832587+216111802+216460098+216546137+216129733+215431436
4057+214946890+214966247+215382860+215836657+216002161+215790881+215362250
4047+215111924+215541964+216713850+217841648+218004612+217263531+216461889
4037+216059121+215833631+215635029+215774845+216523667+217514431+217927756
4027+217434635+216759783+216880241+217752617+218401346+218286401+217904294
4017+217886693+218160064+218254260+218000160+217626332+217433609+217581652
4007+217981777+218301584+218302054+218164325+218273009+218724163+219200222
3997+219281235+218773104+217872223+217123628+217016179+217544971+218374736
3987+219310541+220173194+220449782+219860082+219099434+219186708+220248624
3977+221545873+222380664+222539455+222176184+221595824+220983618+220315723
3967+219694160+219524552+220076198+221057361+221892569+222294781+222310017
3957+222020941+221603146+221470843+222007828+223204741+224515592+225035566
3947+224377724+223427605+223360349+224033254+224284136+223742960+223241717
3937+223577265+224882097+226892862+229037129+230287228+229798420+228125934
3927+226904584+226871070+227119865+226856669+226844181+228043634+229854458
3917+230575539+229221365+226558914+224410056+224055846+225356678+227589263
3907+230859014+235669297+241120900+244904330+245743816+244095018+240461805
3897+235650218+231913243+231570338+234534265+237521740+237421266+235896509
3887+236375107+238672426+240134953+240572663+241404062+241228158+238366984
3878+235534038+236287833+240472449+245678265+250246275+252610866+251113780
3868+247522778+245577808+245875214+245770026+243539911+240579794+239406429
3858+242016859+249508063+260111131+265733369+259986638+249514080+241518833
3848+237833913+238158312+241214105+245295098+249608850+254288239+258365476
3838+259423930+256997266+253584864+250786389+248088024+245278088+243449350
3828+243230626+244323621+247306419+253153068+259705910+262112452+260314741
3818+258398904+256382382+251720177+245715641+242104342+242778637+247304192
3808+253020661+256889678+259632254+263744727+267639223+267368009+264128903
3798+261714118+260067320+257641682+255461448+255527173+257930636+261491620
3788+265623589+270309761+275203561+280281788+286466333+293957380+301007761
3778+306396769+311945160+320368029+332451017+346763894+360435103+370770870
3768+377180836+380340651+381042043+381308109+383400078+386926034+389284521
3758+389769659+391020645+395868338+405121928+416415102+424253245+426883537
3748+429878231+437604855+447247300+451794073+452292777+456224945+467234522
3738+484410085+503541889+518898298+527505524+531388020+534667807+540056537
3728+548319710+558689880+568872979+576403419+580299724+580932800+579336649
3718+576853599+575363852+577220992+583299009+590006486+590686938+583709396
3708+574234403+567783357+566365128+568008412+568798749+567083147+564858441
3698+564217643+565823152+570188907+577686963+587014123+593938584+593357893
3688+585981861+578523981+575398950+576718705+580718076+585493001+590649649
3678+596539622+600535654+599215239+596197274+596514230+597749563+593972673
3668+585666505+577960056+572930197+569962635+568413164+568400780+570035960
3658+572261640+573546437+574713454+578805595+586937388+594979055+594859397
3648+584883995+572828243+564346902+559626172+557269007+556443190+556627408
3638+557280068+558244709+559939266+563452143+570095198+578900800+584254050
3628+581653533+575682269+572427040+573433770+577678859+582414164+583852777
3618+581232851+578187024+577734722+579536450+581909442+584229075+586534167
3608+588316868+589175973+589581838+589977545+590090246+589816284+590145623
3598+592223435+595665769+598732709+600544977+602518435+606492135+611633757
3588+614263458+612412858+608727311+606160083+604952439+604019799+602875114
3578+601898507+601251030+600383090+599156662+599082362+602188540+608215563
3568+613349463+613287268+608577878+603703609+601626076+601950962+602765265
3558+603132936+603515217+604217027+604536835+603684478+602120084+601328947
3548+602110483+603510277+603611013+601379246+597346829+593020971+589910481
3538+588418508+587620554+586478582+585062022+584431242+585760771+589175834
3528+592749723+593513727+590609299+586441293+583898762+583584902+584004089
3518+583506394+581710997+579482395+577943081+577467265+577407401+576899305
3508+575921168+575264160+575442152+575748881+574807824+572478799+570385544
3498+569802105+569854142+568942965+567400277+566808942+567071877+566232877
3488+563463795+560644137+560085291+561505712+562059862+559894429+556831419
3478+555804305+556897509+557591041+556154793+553553337+551816447+551407557
3468+550968995+549703677+548749993+549144309+549938020+549632300+548207218
3458+546659903+545598144+544986147+544545777+543968286+543005628+541793565
3448+540867570+540508525+540261660+539215972+536801134+533438004+530440458
3438+529080284+529500445+530571526+530902673+529869368+527932051+526300662
3428+526009239+526835646+527527612+527393240+526553127+524890642+522325779
3418+519670686+517933135+517182940+516845531+516711890+516938893+517467511
3408+517754622+517318599+516547325+516031437+515334079+513784747+512198335
3398+512131549+513594303+514860559+514447947+512376084+509719007+507704295
3388+507150840+507975683+509071809+509228443+508338728+507255646+506591577
3378+506284048+506221749+506599716+507381113+507860129+507315857+506111691
3368+505558202+506331772+507524286+507753341+506755272+505278674+504111657
3358+503891124+504919108+506468405+507180477+506634570+505704574+505157033
3348+504788945+504201088+503505887+502872428+502060978+500853716+499654384
3338+499172794+499568084+500394144+501360803+502450181+503201280+502770336
3328+501044091+498998490+497611531+496884954+496199945+495337083+494739035
3318+494690337+494775837+494539442+494083071+493563079+492806449+491941326
3308+491688756+492562575+494222174+495713798+496123941+495178675+493455282
3298+491945743+491223932+491035644+490821372+490506608+490480798+490870905
3288+491299832+491448500+491456536+491677869+492300022+493235584+494213373
3278+494926175+495062147+494426706+493364703+492721749+492945621+493596055
3268+494096880+494394148+494540208+494343258+493724583+492826415+491754499
3258+490685365+489917117+489368045+488479095+487035334+485661245+485163550
3248+485690638+486612390+487067753+486770520+486171811+485653697+484992307
3238+483950305+482813099+481855345+480845554+479579019+478419203+477767412
3228+477346730+476600396+475648555+475168078+475245369+475023619+473815522
3218+472081867+470836412+470567946+471022926+471493802+471189021+469809054
3208+467882868+466326370+465725853+465996545+466507945+466644196+466303795
3198+465696042+464926229+464127057+463600978+463407298+463143076+462358305
3188+460907830+458963313+456972601+455432522+454485656+453902808+453440002
3178+452939837+452165884+450873122+449157798+447591631+446769536+446643964
3168+446500235+445725169+444438181+443200343+442322872+441690909+441004961
3158+439969533+438525598+437016407+435862122+435111996+434541288+433977885
3148+433323834+432556838+431848245+431384673+431058848+430536212+429647610
3138+428660150+428057928+427966897+427880354+427189779+425923627+424648604
3128+423764281+423222861+422868339+422680364+422565088+422236619+421520513
3118+420516531+419343114+418049343+416827158+415913163+415245685+414554310
3108+413794097+413220294+412995656+412922713+412705728+412359832+412105454
3098+411911948+411488378+410757628+410028268+409620317+409532451+409557600
3088+409599759+409684424+409661954+409224609+408319658+407260195+406348461
3078+405600701+404824661+403878942+402901396+402199517+401896858+401849690
3068+401838629+401592320+400832177+399605713+398363736+397546303+397276341
3058+397399582+397593401+397546616+397209486+396754993+396247523+395524077
3048+394489658+393362574+392428752+391687184+390979251+390312156+389813209
3038+389499106+389267789+389035777+388779555+388385205+387552292+386188848
3028+384847318+384190658+384056877+383668057+382681224+381480883+380601673
3018+380223671+380063767+379736515+379313641+379168695+379229776+378968580
3008+378167495+377157878+376304269+375620338+374870108+373880666+372755112
2998+371784905+371185988+370960445+370917974+370789515+370392625+369689910
2988+368714173+367552200+366414785+365608309+365303667+365282379+365091308
2978+364588360+364049515+363633250+363225473+362874359+362755466+362681097
2968+362233317+361320366+360160619+358922260+357714441+356720337+356105175
2958+355861615+355819874+355815734+355813230+355811282+355716425+355405348
2948+354831092+354052756+353265898+352731680+352527947+352431455+352134710
2938+351509112+350619814+349577117+348478313+347480592+346778712+346429476
2928+346311801+346255972+346055962+345472036+344459358+343269035+342178370
2918+341322083+340814787+340724313+340876321+340940741+340762750+340460682
2908+340179102+339890844+339531243+339191016+338977092+338778786+338399636
2898+337846077+337274570+336710019+336022888+335221629+334594362+334382316
2888+334414909+334348923+334148635+333955303+333690455+333245284+332824949
2878+332655410+332567475+332212326+331504185+330652002+329931652+329518900
2868+329400494+329395172+329325151+329171474+329002595+328756844+328233721
2858+327356006+326282316+325256350+324557671+324482989+325007503+325584576
2848+325687155+325390931+325063053+324763420+324294388+323550001+322575168
2838+321537272+320761405+320516280+320685541+320877620+320852193+320601710
2828+320090380+319251623+318258702+317501620+317206509+317225606+317223136
2818+316934634+316275261+315397233+314668083+314416417+314620358+314926809
2808+314993178+314729060+314231469+313626777+313018815+312469082+311967422
2798+311486179+311051618+310678103+310278222+309774091+309267143+308921421
2788+308696053+308381845+307879524+307240361+306477886+305567022+304628087
2778+303908328+303522082+303343603+303215075+303084251+302828411+302189318
2768+301126898+300058634+299472934+299397835+299415783+299123525+298494379
2758+297834624+297409593+297158867+296833354+296294335+295597639+294922995
2748+294467424+294269466+294152764+293920787+293497774+292875133+292116346
2738+291393613+290834993+290382135+289910650+289403998+288909711+288405442
2728+287852926+287372136+287165343+287180979+287054050+286521136+285721843
2718+284990848+284512458+284201782+283824093+283272516+282725392+282428386
2708+282401480+282462388+282409602+282115726+281598013+281036123+280614101
2698+280352905+280150964+279936553+279729568+279569595+279422927+279201159
2688+278854271+278404752+277927858+277518063+277213926+276970244+276728788
2678+276438129+276014455+275412772+274724858+274115122+273718476+273617410
2668+273772061+273972402+274022492+273939444+273823542+273613218+273161212
2658+272513927+271912539+271490309+271152100+270804604+270510850+270334180
2648+270226383+270146118+270077436+269876747+269373782+268722010+268352199
2638+268426273+268606525+268523878+268204818+267863409+267548001+267208488
2628+266887324+266641555+266425770+266186522+265965746+265829026+265771562
2618+265761440+265826800+265998408+266162312+266100240+265749752+265313504
2608+265018601+264873811+264760171+264656252+264636564+264679958+264624703
2598+264354793+263933015+263506489+263175550+262991819+262976774+263071336
2588+263136017+263063092+262886074+262767564+262836854+263002758+263021333
2578+262814627+262575101+262463704+262421981+262399458+262491236+262686759
2568+262768972+262646931+262518820+262547848+262650636+262735092+262867812
2558+263075388+263220770+263182194+262982775+262705700+262411406+262130731
2548+261852647+261557240+261295418+261168525+261195378+261245937+261145445
2538+260830264+260367109+259855222+259401147+259135881+259099844+259149829
2528+259121097+259007091+258879972+258769392+258675700+258558425+258322517
2518+257950585+257584201+257370938+257317300+257354641+257444872+257562426
2508+257639021+257605332+257483691+257375373+257343510+257367111+257392139
2498+257367094+257284637+257224721+257256340+257301977+257236861+257068922
2488+256869764+256628917+256338554+256102385+256006763+255980866+255896496
2478+255704226+255395010+254966587+254523939+254252846+254175138+254086594
2468+253853017+253617266+253601995+253815206+254026678+253990172+253678556
2458+253315650+253147694+253182130+253208845+253066333+252792806+252492008
2448+252168965+251776510+251330035+250909265+250631147+250622190+250873020
2438+251140669+251173922+251011340+250875368+250817139+250693185+250484809
2428+250372090+250396300+250302434+249903700+249401205+249136739+249193873
2418+249408475+249620121+249767589+249849750+249910101+250011376+250165210
2408+250294712+250299721+250175019+250036838+250000871+250070248+250187419
2398+250366020+250724334+251421970+252660364+254793657+258375685+264036794
2388+272359432+283890896+299145926+318427929+341589923+368018729+396893121
2378+427454419+459009019+490634511+520932664+548333972+571847115+591369965
2368+607111646+618932220+626708969+631111700+632741002+630487598+622356258
2358+608072391+589142858+566381929+539871936+512578285+490902594+480143361
2348+482021371+495039329+514095059+531502600+542397840+547181947+548125440
2338+547294197+546271500+545985294+546811737+548368965+549343728+548595481
2328+546379228+543298686+538576286+530942675+520878435+510285924+500190829
2318+490248091+480115499+470046040+460190506+450112839+439251931+427574877
2308+415508690+403425632+391545541+380194487+369711025+360094251+351053019
2298+342371424+334008697+325972144+318337872+311281786+304873526+298941846
2288+293321626+288132662+283642901+279940884+276872169+274214745+271819856
2278+269646875+267731524+266100344+264715073+263519533+262494871+261615574
2268+260791636+259931904+259049807+258230512+257500022+256813117+256168058
2258+255622847+255168650+254682155+254062767+253360192+252702210+252140511
2248+251646190+251221734+250909891+250693793+250484635+250210064+249867038
2238+249517350+249242588+249039186+248789591+248442651+248160011+248131157
2228+248290939+248381274+248278869+248121695+248092424+248187038+248246467
2218+248148497+247908467+247624661+247397658+247307080+247400997+247655011
2208+247955704+248167089+248237162+248241336+248295652+248411710+248475001
2198+248402406+248278156+248271825+248443625+248703534+248955686+249189246
2188+249402527+249535925+249539682+249436963+249288695+249154566+249095154
2178+249165228+249385500+249684385+249865368+249755971+249419919+249077919
2168+248837558+248677550+248615251+248665897+248710682+248585928+248261598
2158+247849855+247499785+247299688+247217805+247141419+247013743+246903894
2148+246901685+247014143+247247685+247698195+248433190+249383221+250487435
2138+251822182+253452649+255295544+257260306+259423669+261951278+264889412
2128+268129318+271607393+275429190+279688575+284262167+288892684+293375020
2118+297601151+301530849+305108042+308119571+310205974+311084489+310737202
2108+309402315+307386559+304840515+301767418+298263480+294595848+290982896
2098+287418834+283777394+280031845+276309079+272746269+269404480+266353001
2088+263714186+261571015+259907155+258631455+257601367+256672188+255791308
2078+255049896+254612726+254522408+254569541+254476806+254209975+253970554
2068+253912551+253980780+253996016+253868270+253726228+253749064+253917838
2058+254082246+254176895+254206774+254158059+254058645+254012625+254109309
2048+254336520+254578411+254742298+254883905+255081028+255257211+255321284
2038+255346764+255439099+255589020+255745184+255881696+256009093+256200790
2028+256509102+256856198+257139099+257383060+257706781+258220303+258921852
2018+259570025+259800715+259532823+259086174+258799185+258743756+258837778
2008+259007248+259188701+259323647+259391216+259415634+259464245+259597139
1998+259810020+260164873+260891171+262011125+262957173+263073736+262454382
1988+261747024+261339455+261200735+261232424+261394728+261635749+261894440
1978+262132505+262335037+262476227+262497932+262470296+262754850+263668706
1968+264894247+265611119+265434223+264827218+264407561+264332740+264505166
1958+264888108+265392012+265805129+266034793+266207358+266488781+266968563
1948+267727767+268926316+270631882+272335726+272962959+272032546+270433628
1938+269357538+269094620+269221270+269342668+269387957+269497911+269792047
1928+270314718+271248592+272734947+274315811+275323915+275930851+276650366
1918+276989323+276090129+274490637+273644698+274139089+275321393+276164080
1908+276160202+275590503+275063693+274886780+274956348+275105260+275387884
1898+276008107+276913093+277662331+278133382+278930153+280293615+281221315
1888+280762578+279533489+278726091+278605597+278747135+278876237+279015358
1878+279265266+279655495+280180357+281210532+283604081+287627071+291590180
1868+292681871+290333924+286964985+284831953+284302743+284640969+285118055
1858+285409705+285558547+285767219+286145586+286760592+287816090+289603347
1848+292441163+296353399+300000092+300713937+297847111+294217046+292388082
1838+292467564+293178036+293819703+295185096+298316527+302427730+305011515
1828+305082162+304182673+303222275+301612070+299519093+298205808+298176206
1818+298707677+299088671+299585566+300960976+303211805+305131974+305559822
1808+304835297+304370230+305295565+307823625+311114056+313585001+314202319
1798+313712903+314047216+316630410+320973521+324042514+322868192+318895570
1788+315999456+315873362+317586250+319697872+321656478+323185287+323952074
1778+324576002+326688111+331436982+337978710+342985264+343479759+340482805
1768+336704245+333791364+332986314+334858863+337878879+339554131+339785169
1758+340159345+340944150+342050816+344861848+350455354+357042337+360953564
1748+361025464+359457731+358525091+359128879+361120912+363403743+364689687
1738+365774335+369379251+376115772+381296804+380011556+374925415+370164926
1728+366794631+365164494+365425795+366883227+369427253+374618304+383538763
1718+393402576+397738869+394340294+387992071+383049451+381002667+382161266
1708+386165786+391353149+395637926+399506161+405543446+413703449+419408926
1698+419969302+417149296+411661918+405115945+401362708+401987228+405635276
1688+411303743+420070177+431271972+437700477+434266422+427324325+423455221
1678+424290882+428616566+433381194+436390879+439077905+442957514+445547664
1668+444012942+441232659+441648820+445402405+448818964+449331547+449092578
1658+451944481+460249744+474438684+489893116+495255653+491543497+490779701
1648+495474447+499712196+498056284+493753906+492156293+494839075+501855715
1638+512982654+525493212+532621440+531805050+529839766+532496599+540239016
1628+550662822+561615318+572872802+584130913+593657456+601487077+610821263
1618+623854630+637532344+645996572+649700902+653359317+658669643+664417695
1608+669353463+673452457+677072052+680107896+682359768+684267206+686665660
1598+689912436+693776357+697898587+701984989+705948045+709987558+714164677
1588+718072079+721289706+723960522+726627998+729703287+733569713+739124503
1578+747030233+755252917+759559296+760678658+764073129+772277169+782748735
1568+791184787+797253343+803739939+812689896+825715054+845077931+869327737
1558+885349989+885614072+880654652+877476888+876702657+876906493+876044675
1548+873964985+873219555+875671577+880508279+885731783+887811960+881614075
1538+869945439+861457210+858260593+856279134+851158522+844398800+840639371
1528+841288796+844384677+848046014+852228282+856189947+857523581+855887879
1518+853007383+849151810+844546912+841352243+841824615+846680726+855077403
1508+863198517+862818810+851643904+839819294+833737937+833114392+836151905
1498+840070090+840870201+837304799+833472602+833738076+838187488+842390140
1488+841782456+837264241+832804741+830321622+829199060+828476240+828496276
1478+830267080+834047797+839138424+843587906+843829310+838674818+832574677
1468+830025398+831096201+832258974+830643795+828322423+829513511+835701517
1458+843690242+846322238+841389601+834653115+830023172+827857286+827310684
1448+826737576+824628876+821381544+818565051+817045042+817355736+820398467
1438+825625728+828878974+826404620+821223414+818128646+817670883+817635959
1428+816910774+816418088+816666170+817115028+818128993+820948269+824555620
1418+825007052+820950913+815587784+811652555+809540099+808603076+808265668
1408+808343167+808501993+807814305+806048997+804885876+806025343+808934293
1398+811679270+813226828+813380644+811747099+808984939+807170376+807248572
1388+807544378+806009134+803866554+804323134+808133348+813198165+817652656
1378+821589694+825750256+829801039+832474359+833415695+834110757+836091033
1368+839228238+842540200+845570965+847892893+848483671+847042762+844844806
1358+843286256+842744523+842934585+843487796+844025633+844105707+843667910
1348+843393879+843983405+845332622+847035597+849131287+851593049+853668495
1338+854569550+854497477+854302476+854449127+854790014+855249238+856268421
1328+858151161+860448114+862683360+865212325+868659946+872878946+876962218
1318+880191671+882781787+885644265+889394024+893484322+896566081+898176459
1308+899638656+902458767+906330688+909800502+912485232+915216712+918286574
1298+921003653+922682210+922932727+921576622+919314871+917788183+917970662
1288+918932590+918868100+917064042+914387591+912150536+910788796+909475755
1278+907203638+904406763+902789080+903331995+905226214+906943172+907816191
1268+908231238+908784380+909800989+911539513+914311761+918000159+921668314
1258+924048610+924641963+924438404+925215627+927549382+929986099+930976202
1248+930844161+930833099+931275766+931700553+931657559+930721650+928676745
1238+926239402+924790075+924789449+925071550+924306572+922437119+920102598
1228+917700735+915658474+914558799+914510449+915061573+915759140+916358266
1218+916802672+917315115+918144236+919184081+920183507+921240883+922851888
1208+925401932+928453916+930793932+931709944+931817567+932017299+932330568
1198+932374396+932326950+932798557+934118208+936300025+939541235+944027449
1188+949012471+952790196+954237228+954020938+953854669+954920324+957075217
1178+959223363+960403737+960818158+961693751+963735248+966123684+967857686
1168+969474187+971789715+973772426+974238398+974635149+976972313+980410333
1158+982908271+984501049+986046798+986821307+985859588+983878756+982332937
1148+982022243+983347528+986914738+992757057+998977691+1002476306+1002112530
1138+999871719+998118446+997688928+998769958+1001735537+1006279423+1010542600
1128+1012311456+1011515380+1011031738+1013850875+1019595866+1024927967
1120+1026972386+1025296543+1021774970+1019495131+1020035402+1022092482
1111+1023720392+1024511042+1024796482+1024298787+1022837216+1021650233
1103+1023131283+1028416565+1034817451+1037281926+1033930449+1028364110
1094+1025777820+1028704023+1035650190+1042651246+1046954703+1048811773
1085+1049157390+1047841427+1045521168+1045128104+1048985764+1054975082
1077+1058137332+1057247894+1056830412+1060840010+1067242914+1070862996
1068+1069749895+1066172181+1062968398+1061301321+1061364072+1062720455
1060+1064064872+1064296467+1063993564+1065068263+1067903261+1070003822
1051+1069113132+1065955404+1062620624+1060232466+1059660888+1062143173
1043+1067328136+1072151828+1073741823+1072479497+1070148525+1067852754
1034+1066929507+1068660865+1071880440+1072745946+1068468925+1060363394
1025+1052368339+1047942789+1048341348+1052108151+1056150516+1058100321
1017+1057849804+1056720772+1055735747+1054892712+1053538903+1051532678
1008+1049797771+1049654529+1051753768+1055487873+1058845751+1059044857
1000+1055061347+1049421613+1045849046+1046031594+1049172835+1052924402
991+1054568522+1052969552+1049583569+1046676915+1044957800+1043385267
983+1040930323+1038340346+1037570567+1039354033+1042360101+1044942008
974+1046319957+1045857672+1042914773+1038046835+1033221682+1029986802
965+1027888607+1025560070+1023106726+1021475337+1020104832+1017732744
957+1014763409+1012336292+1010018051+1006803416+1003147158+1000192014+998268784
947+996782516+994644389+991019645+986740607+984442402+985977716+989810748
937+992021506+990359368+986183153+982038104+978999200+976797069+975314279
927+975198934+976698351+978376976+978366054+976672749+974904589+974047362
917+973452966+971746095+968754011+966228872+965704393+966758430+968174642
907+969278072+969577705+968769872+967260786+965506330+963415996+961122939
897+959556737+959804680+961964304+964468781+965233690+964088866+962756206
887+962186785+961876021+961486297+960794574+958868423+955244584+951345600
877+949215264+949419727+950989338+952928360+955051739+957309734+959389076
867+961246911+962865777+963318878+961582232+958304429+955149901+952818650
857+950981129+949425779+948265650+947334889+946295809+945432739+945772304
847+948083241+951680296+954453934+954904879+954157432+954258307+955345528
837+955991057+955055913+951958849+946963392+942588557+942385834+946844290
827+951876897+953076333+950878794+949043499+949342158+950327322+950522532
817+950469242+951083535+952079899+952838616+953238289+953300762+953279961
807+953993528+955993770+958713493+961037509+962212804+962159862+961652984
797+961932163+963524593+965715663+967168677+967000807+965723176+964557899
787+963412101+961350499+959380797+959969906+963514088+967608978+970002840
777+970427488+969333519+967193235+965073195+964303346+965281623+967133684
767+968819475+970059330+970670283+969805613+967217375+964307242+962258163
757+960453687+958636063+958832038+962492401+967212923+968750254+966233394
747+963401735+964138955+968500989+973349935+975728979+975038230+972486377
737+969698546+967884679+967370218+967859565+968793456+969087176+967271778
727+962767754+957312656+954238062+955600776+960818784+968125387+975390735
717+979873610+979694122+976164619+972805350+971111071+969862868+968013938
707+965864749+963402917+960128801+956944219+956341545+959153237+962333436
697+962481966+960034187+957830248+957313908+958405095+961487340+965970702
687+968387522+965214906+957243435+947952799+939064758+931290236+926300274
677+925109117+926360521+928569261+932344969+937583360+940864364+938522957
667+933193569+929303490+925135971+918886257+913190729+910732863+908780902
657+902908738+894356367+888981690+890745885+897972970+904775339+907658478
647+909097161+911091490+910069316+903028118+894740665+892597528+897017234
637+901525293+900992187+896141154+891478653+889125280+886878207+882893167
627+878589919+876508073+876961522+877469027+875691057+872727982+871692172
617+872836092+873749600+873552442+873041250+872062417+869095447+864930084
607+864127469+868880271+874295019+874841761+872371651+870792369
##END=
