##TITLE=<SNM>
##JCAMP-DX=4.24
##DATA TYPE=INFRARED SPECTRUM
##DATE=2/5/2025
##SAMPLING PROCEDURE=Instrument type and / or accessory
##ORIGIN=Admin
##XUNITS=1/CM
##YUNITS=ABSORBANCE
##RESOLUTION=4
##FIRSTX=4497.3318
##LASTX=599.83466
##DELTAX=-1.4281778
##MAXY=1.8537822
##MINY=0.38237405
##XFACTOR=1
##YFACTOR=1.7264692e-09
##NPOINTS=2730
##FIRSTY=0.39655232
##XYDATA=(X++(Y..Y))
4497+229689777+229914943+229943477+230365947+231568212+232692227+232444932
4487+230887968+229365321+228895466+229500931+230643641+231649032+232117523
4477+232288935+232743789+233735284+234903162+235433779+234687249+233078551
4467+231928729+232006615+232713460+233084386+233016080+232947929+232933947
4457+232870388+233109692+233811444+234190103+233490975+232201969+231342960
4447+231183234+231346343+231411162+231022732+230204824+229690313+230297573
4437+231950513+233633732+234348793+234023197+233342073+232787341+232234577
4427+231622294+231412750+231942020+232706451+232702895+231515683+229933793
4417+229184536+229582356+230389424+230954806+231242081+231178470+230436273
4407+229145092+228114188+227951942+228383596+228796779+229080446+229470671
4397+229882197+229989912+229865867+229954266+230393688+230813085+230826619
4387+230465618+230137364+230206516+230491857+230298211+229262336+228032642
4377+227635236+228244447+229054277+229275904+228839796+228060054+227045704
4367+225795417+224646492+224121227+224253954+224553657+224788610+225175159
4357+225612992+225596093+225156809+225038927+225623953+226386399+226663040
4347+226421320+226007170+225556908+225050648+224684037+224622308+224463394
4337+223626791+222331226+221477481+221494087+221915867+222170275+222327359
4327+222904393+224079504+225286291+225815147+225693882+225502999+225438387
4317+225198583+224724965+224332324+224105328+223816949+223516642+223611618
4307+224118068+224346047+223789796+222965743+222860962+223680890+224580569
4297+224731197+224257044+223882424+224020710+224415216+224523639+224268420
4287+224258874+224887574+225471444+225060504+223858689+222898680+222687531
4277+223063446+223824769+224706046+225261123+225307886+225053755+224640623
4267+224024680+223321858+222874168+222834085+222875756+222575880+222066116
4257+221949925+222603914+223916068+225487532+226733555+227108296+226572121
4247+225687633+225145520+225263436+225800078+226236012+226345764+226306545
4237+226235581+226024605+225657079+225323577+225167391+225058813+224691374
4227+224099666+223911631+224529283+225364747+225597284+225290417+225049526
4217+225036320+225040290+225089781+225352543+225635277+225442046+224590719
4207+223639927+223471399+224265831+225170084+225303778+224778063+224351433
4197+224433220+224788679+224994736+224938928+224940723+225374414+226166222
4187+226852939+227163345+227266502+227336914+227213059+226718416+226057471
4177+225652315+225751589+226287039+226919864+227305756+227508498+227772624
4167+227827293+227120345+225777792+224570022+224033173+224172529+224643696
4157+224875266+224550498+224099528+224220259+225048404+226135927+226917862
4147+227014425+226472467+225834999+225742043+226319923+226933156+226808213
4137+226059836+225575085+225723693+225947288+225773788+225489551+225619707
4127+226196621+226648143+226370967+225491174+224790026+224728245+225023564
4117+225333831+225748999+226381566+226985978+227213422+226997232+226574710
4107+226288057+226435406+227127975+228112513+228787372+228566435+227377618
4097+225854677+224854551+224627504+224686368+224561598+224293122+224146982
4087+224324625+224986899+226099073+227250034+227944778+227982358+227454037
4077+226595010+225707363+225040567+224636705+224310729+223898340+223575005
4067+223710098+224369454+225192679+225737710+225782954+225396613+224919456
4057+224730558+224868154+225073813+225218124+225453284+225921706+226492733
4047+226914271+227102531+227086581+226803276+226291734+225940452+226057558
4037+226341483+226348405+226309928+226747192+227388458+227352346+226497739
4027+225751364+225960925+227087461+228514649+229582132+229889154+229562470
4017+229117387+228827074+228554403+228243308+228117226+228327166+228715251
4007+228960406+228900679+228806584+229167550+229980729+230582120+230527468
3997+230235343+230326400+230702021+230819904+230625171+230505563+230503198
3987+230327350+230010385+229854181+229860654+229840492+229975187+230671709
3977+231870780+233016529+233706249+233868150+233345836+232051807+230591804
3967+229981022+230668136+232256690+233936542+234886556+234709534+233757535
3957+232716549+231931042+231452056+231556077+232685046+234641332+236314901
3947+236919365+237100702+237777856+238515617+238292954+237329786+236722371
3937+237014755+238240996+240381139+242825923+244017087+242900598+240631628
3927+239506301+240357145+241808155+242349181+242449145+243506633+245461986
3917+246426242+244808309+241363485+238251508+236717848+236730864+238411734
3907+242611149+249502642+257137283+262429192+263901952+261971041+257312337
3897+251355374+246878023+246136931+248762534+251549260+251884903+251554094
3887+253487473+256867132+258582095+258816375+259791748+260118690+257287082
3878+253584209+252945135+255550335+259147167+262607820+265139310+264962426
3868+262662022+261311132+261735191+261604448+259332785+256499831+255638578
3858+258393283+265693559+276480984+283536414+279210279+268454548+259149463
3848+254464986+254732789+258559603+263626554+268446452+273029290+277033886
3838+278639580+276942967+273624001+270422226+267491466+264683645+262669583
3828+262085765+263103205+266494878+273148381+280793102+283857419+281540426
3818+278510944+276114822+272206289+267075814+263572490+263591996+267171238
3808+272283709+276308847+279838012+285029112+289898793+289940153+286428508
3798+283951497+282616712+280063713+276707858+274932858+275659019+278297775
3788+282404700+287652747+292949507+297565057+302482036+308512484+314187610
3778+317922141+321040385+326176142+334815155+346974720+361063072+374391481
3768+385766764+395900943+404906808+412644053+419971568+426794445+430950515
3758+431740942+432332511+436502356+445648699+457320957+465258891+467034184
3748+468540329+474814033+484028216+489633500+491017740+494726344+505074606
3738+521443304+538841370+550544734+553662977+551448814+549362666+550539072
3728+554852502+560439316+565768270+570349123+573360307+573759543+572439276
3718+571613358+572401817+575030959+579449722+583166439+581207270+573052768
3708+563834580+558085123+557219468+559703367+562124882+562316835+561225876
3698+560247742+559846539+561129969+565844430+574281650+583716476+589241353
3688+588765613+585585122+582701953+580775306+580640593+583401893+588623097
3678+593981639+596283562+594345176+591881750+592399334+593360966+588920556
3668+578992382+569332322+563478154+561204092+560855434+561732482+564696127
3658+569579169+573046933+572446388+570529891+571930806+577630859+582566205
3648+580126324+571247680+561355963+553728055+548928527+546206757+544960164
3638+545277232+547139527+550000704+553875024+559888554+567602427+571607696
3628+566725241+557636380+551462244+550172910+553166004+558807435+563811207
3618+565927495+566795221+568391025+570315497+572083092+574357326+576177985
3608+574877983+570737311+567681694+568521974+572369952+576153576+578268863
3598+580127912+583319519+586797606+588278272+588195552+589789802+594489694
3588+599134555+599850237+597645948+595665168+594684962+594330607+594777003
3578+595431716+594517106+591730673+589417633+590333693+595933350+605824135
3568+615972537+619317224+613734967+605021796+598896270+596617409+596785403
3558+597436871+597228208+596557544+596941175+598888191+601848142+605648960
3548+609677222+611527156+609355527+604732623+600559430+597952452+596502237
3538+595782756+595743675+596028015+595901933+595118583+593844509+591943548
3528+589655365+588389853+589288237+591507441+592763977+591022516+586032208
3518+579950320+575816795+574928146+576494846+579485765+582770172+584444725
3508+583605377+582069404+582135207+583605101+584547952+584389349+583969813
3498+583219123+581398879+579108038+577749518+577432070+577111618+576125888
3488+574603276+573130481+572472350+572653566+572399988+570696469+568489453
3478+567365696+567266819+566799813+565318595+563615629+562617229+562390786
3468+562643950+563481468+564996278+566379448+566499488+565224102+563114720
3458+560375101+557248365+554771992+553872572+554272084+555188869+556334031
3448+557404344+557546687+556495155+555291061+554760634+554218779+552599672
3438+550164797+547956192+546136259+544100827+541784265+539897873+539041816
3428+539154675+539835488+540733113+541411786+541395801+540689716+539709614
3418+538637160+537347343+535852004+534343443+532981643+531968191+531525973
3408+531649810+532211723+533125816+533979698+533928533+532667130+531128705
3398+530481518+530731575+530847231+529903034+527785158+525504225+524724017
3388+525935327+527482451+527556540+526353447+524995618+523765285+522635349
3378+522070502+522313102+522831963+522923279+522515344+522266702+522725008
3368+523466894+523607304+523056369+522465249+522173556+522072573+522168067
3358+522446192+522460036+521833840+521059431+521162589+522400551+523772190
3348+524195765+523640378+522595854+521200531+519526634+518089987+517466655
3338+517709877+518388688+518943973+519057177+518915594+518969451+519132370
3328+518723191+517640518+516926596+517592426+519166929+520079088+519521249
3318+518257290+517326592+516767924+516224309+515925883+516179911+516692834
3308+517209797+517919334+518619619+518625696+517882256+517201960+517223399
3298+517692028+517840171+517308121+516660934+516671913+517253366+517704595
3288+517761387+517658022+517477496+517173547+517001341+517468002+518822344
3278+520640483+521981671+522210876+521666812+521243824+521332102+521415478
3268+520785104+519450889+518042585+517008349+516441258+516409599+516757705
3258+516799997+515831391+513980731+512195805+511365399+511664964+512619277
3248+513527189+513804832+513233390+512102832+510988915+510202492+509515154
3238+508538055+507404252+506771082+506884838+507125781+506971390+506835711
3228+507239676+507730366+507412814+506072661+504130858+502061903+500442899
3218+499939056+500517678+501073308+500549406+499196168+498107626+497840376
3208+498030154+498042824+497489197+496308303+494802331+493463766+492502583
3198+491670278+490740098+489957680+489740386+490063945+490403489+490213952
3188+489317191+487880232+486184482+484570001+483419246+482807446+482243600
3178+481171768+479713094+478457973+477649662+477122308+476781936+476541269
3168+476053652+475099132+473981935+473076612+472262950+471197504+469913142
3158+468770432+467944445+467309755+466769972+466367250+465986104+465204446
3148+463748672+462062554+461007397+460904032+461278306+461520389+461273024
3138+460306490+458650546+456766916+455202218+454258953+453997296+454150134
3128+454241381+454150341+454177166+454397912+454478043+454140639+453286136
3118+451770393+449658111+447628858+446594829+446820617+447652127+448183694
3108+447963327+447072262+446052112+445640586+445876109+445805093+444816912
3098+443601459+442930796+442448426+441556430+440558237+440075177+440110288
3088+440293299+440416274+440366870+440029640+439484747+438954596+438448164
3078+437730030+436689338+435520079+434484427+433642352+432901570+432263981
3068+431877450+431764833+431631881+431144056+430325423+429497433+428933656
3058+428688708+428592179+428333215+427717410+426882895+426177950+425862435
3048+425934037+426159583+426249069+426030498+425530176+424980968+424684337
3038+424653818+424505261+423949114+423171391+422422842+421536472+420208334
3028+418508785+416827328+415450510+414345431+413344545+412546109+412326985
3018+412695598+413001929+412790228+412470570+412519525+412604661+412178221
3008+411344707+410553037+409953942+409430420+408857252+408183620+407490792
2998+406907716+406385160+405735764+404894483+403991265+403252831+402845724
2988+402632297+402170711+401222094+400154922+399562870+399552720+399610444
2978+399191288+398329016+397570489+397347671+397530165+397663739+397491533
2968+397036092+396294551+395190024+393871069+392766024+392198553+392091667
2958+392111276+391997347+391688219+391176953+390409519+389416850+388400394
2948+387526418+386747488+385974529+385275038+384775752+384526627+384557906
2938+384874146+385279147+385377782+384912571+384058723+383251793+382699236
2928+382175196+381361672+380258009+379109982+378074261+377189100+376581374
2918+376421010+376618108+376758586+376433404+375607521+374689631+374199252
2908+374266194+374483212+374335656+373739426+373055885+372610698+372353701
2898+372057520+371659424+371196042+370602091+369884855+369324703+369185433
2888+369321906+369286554+368762755+367811170+366780179+366017337+365630461
2878+365505829+365492365+365502860+365478762+365324751+364931453+364312955
2868+363666493+363201696+362962169+362875134+362876169+362922777+362936794
2858+362773046+362260088+361354800+360295223+359475520+359068412+358866999
2848+358585180+358171617+357701054+357149395+356467477+355723484+355061625
2838+354630420+354491426+354437810+354085320+353346403+352581661+352125047
2828+351892079+351555366+350936350+350197916+349699010+349588049+349571823
2818+349227343+348485145+347650458+347014837+346577625+346126016+345520361
2808+344866856+344379999+344120965+343958460+343746517+343416675+342938725
2798+342374153+341956516+341878492+341938771+341646836+340798995+339775324
2788+339152027+339117607+339339493+339356720+339025600+338528178+338042667
2778+337587606+337139312+336708556+336285740+335799366+335110370+334110693
2768+332956244+332089381+331841706+332076572+332304327+332059103+331192585
2758+329965153+328850131+328162343+327897337+327868441+327860017+327721921
2748+327480908+327276837+327090960+326690136+325957053+325117256+324490922
2738+324107118+323691933+323019163+322181507+321499382+321215076+321290546
2728+321470692+321502420+321273353+320788360+320118283+319398112+318795530
2718+318421462+318264930+318183143+317966988+317509821+316927436+316427114
2708+316074313+315756208+315319859+314704572+314030974+313554060+313378194
2698+313257844+312867550+312217221+311622821+311336513+311346076+311446576
2688+311417886+311197485+310867539+310449039+309878840+309248570+308797617
2678+308566030+308322809+307925368+307488916+307148129+306889026+306631374
2668+306319898+305976419+305727121+305668326+305702471+305643573+305417509
2658+305006674+304367289+303632756+303207558+303344204+303727490+303763153
2648+303243809+302484177+301843963+301375231+300960011+300580074+300317346
2638+300165095+299984120+299684935+299355887+299151608+299119570+299179055
2628+299185442+298983373+298506838+297884473+297353736+297010187+296708689
2618+296262846+295702521+295272663+295169022+295303147+295368570+295162807
2608+294788947+294459450+294176905+293786300+293315289+293014413+293023251
2598+293192280+293259568+293087983+292763009+292487093+292312746+292074289
2588+291678230+291250097+290900127+290610713+290398252+290303967+290252319
2578+290141324+289980511+289821528+289686746+289584331+289485454+289339573
2568+289146463+288904018+288548248+288070021+287590914+287248402+287094597
2558+287062818+286967083+286686109+286376584+286283041+286358701+286347135
2548+286201824+286126561+286218326+286338987+286342906+286222642+286033243
2538+285816829+285574039+285254312+284857942+284510820+284295994+284126033
2528+283949166+283893703+284038963+284246142+284328171+284220663+283969812
2518+283689856+283512230+283512869+283710554+284069879+284446968+284657185
2508+284663589+284586773+284514859+284425270+284272760+284035718+283697055
2498+283289292+282941428+282784257+282814880+282903434+282899429+282731263
2488+282492995+282394015+282506598+282656484+282657347+282490509+282214576
2478+281927112+281797612+281886805+281992829+281875896+281529344+281105665
2468+280736189+280520656+280546272+280806497+281144453+281329691+281208581
2458+280804236+280307055+279953927+279843484+279855447+279829502+279789558
2448+279861627+280024684+280114377+280040219+279871621+279749355+279781341
2438+279961798+280145431+280160087+279968617+279681912+279432252+279290082
2428+279277688+279367571+279458334+279434029+279289132+279151813+279141697
2418+279225349+279290651+279372162+279651617+280135195+280507795+280493278
2408+280216361+280018245+280048712+280213668+280401323+280590929+280796779
2398+281011863+281195876+281305852+281359071+281414966+281460606+281390868
2388+281141035+280738606+280167164+279253935+277742387+275463371+272459592
2378+268982368+265329555+261623091+257779429+253765478+249820022+246300782
2368+243388388+241095804+239454774+238509869+238273983+238863671+240592599
2358+243833213+248745669+255216332+263086616+271854835+279959278+285306650
2348+286747614+284903824+281928286+279941463+279230821+278672999+277468336
2338+275771325+274133316+272771292+271522472+270375705+269606717+269323258
2328+269287025+269250568+269181485+269189460+269428936+270017864+270931887
2318+271976308+272902656+273592066+274137217+274718308+275415590+276188358
2308+276984257+277768160+278460677+278950797+279200716+279298868+279389649
2298+279543160+279690336+279729348+279680065+279635166+279602334+279550548
2288+279539259+279609135+279641450+279509896+279258389+278998526+278769218
2278+278577817+278442483+278335734+278178149+277922102+277608089+277315602
2268+277061660+276800193+276549151+276427644+276515076+276746629+276960073
2258+276993147+276791182+276478014+276250346+276185872+276219671+276269783
2248+276307138+276350172+276440038+276576650+276685245+276698623+276623274
2238+276473803+276233774+275942582+275730621+275700085+275820487+275980644
2228+276116841+276256301+276421965+276530784+276461391+276247083+276101755
2218+276175239+276353659+276406222+276291464+276205465+276320257+276570780
2208+276744315+276719113+276542695+276313801+276096386+275954354+275951454
2198+276067092+276189756+276227439+276182454+276133154+276173150+276325712
2188+276495932+276555435+276477065+276340315+276221121+276131134+276066764
2178+276071581+276208399+276468762+276752498+276947109+277003228+276936459
2168+276798743+276664116+276612555+276679013+276820216+276966219+277086863
2158+277169461+277188415+277145346+277077938+277013862+276978492+277012308
2148+277111357+277218209+277319641+277472893+277698197+277904650+277968692
2138+277886922+277791463+277768073+277767107+277771336+277890892+278187091
2128+278553995+278842322+278979158+278985632+278981903+279108434+279362927
2118+279583121+279638101+279584123+279582103+279690163+279834836+279994734
2108+280257928+280633929+280973559+281154257+281221458+281299155+281453046
2098+281662054+281868577+282039678+282196365+282383986+282602626+282783670
2088+282878041+282943206+283072412+283273583+283479225+283616113+283641868
2078+283613437+283694931+283970502+284311150+284535608+284612148+284639129
2068+284732896+284945944+285201111+285334270+285274957+285142972+285134980
2058+285330282+285599259+285717866+285609288+285445903+285477078+285783772
2048+286229167+286649168+287057346+287566782+288105478+288401435+288338083
2038+288121152+287984471+287932547+287869817+287800441+287798059+287900163
2028+288097278+288349476+288576178+288709648+288835505+289209297+289963905
2018+290788408+291124879+290795934+290210372+289865443+289911947+290232191
2008+290659771+291042159+291264839+291311170+291292320+291383567+291633314
1998+291895558+292181693+292895477+294259935+295680737+296253904+295810202
1988+294912577+294110964+293665812+293623830+293823172+294032319+294183396
1978+294354117+294599168+294884026+295118444+295329179+295819523+296831042
1968+297945823+298308014+297698769+296842884+296418722+296389687+296465433
1958+296628697+296939137+297238564+297320489+297215294+297203107+297571651
1948+298400849+299679170+301405508+303111236+303658338+302477410+300578555
1938+299349742+299095472+299278829+299449999+299543076+299677582+299940413
1928+300401377+301362112+303085792+305036882+306269873+306832821+307416899
1918+307661018+306584870+304615309+303316274+303467386+304529793+305438189
1908+305532992+304997283+304468859+304283361+304332351+304529379+305050243
1898+306051923+307254567+308042992+308354329+309007109+310370393+311374214
1888+310949844+309714161+308898773+308734335+308778491+308826825+308936128
1878+309134986+309411006+309853983+310985059+313763862+318474733+323224477
1868+324683738+321945708+317746345+314874431+313910209+314051689+314485483
1858+314811355+314927667+314949106+315094556+315635133+316855488+318928655
1848+322027150+326227549+330331522+331503957+328707132+324759070+322540281
1838+322336761+322844161+323340444+324772085+328384540+333279700+336420487
1828+336522264+335481400+334502402+332743714+330080670+327969561+327349372
1818+327727997+328283626+329031002+330580820+332876770+334692491+334943447
1808+334109243+333623214+334559539+337184607+340760432+343578282+344242697
1798+343359676+343193408+345630079+350302835+353741323+352376554+347735353
1788+344245182+343809938+345254561+346952072+348590340+350124345+350977606
1778+351439193+353288713+358115619+365231743+370806508+371126545+367245770
1768+362431397+358666933+357370349+359254808+362634260+364517890+364586627
1758+364620254+364906423+365303864+367570020+373336358+380754740+385103281
1748+384333983+381124838+378703116+378335367+379727962+381565675+382365596
1738+382901547+386269295+393446941+399242384+397609260+391303552+385304349
1728+381069737+378974786+379071488+380537135+383227695+388842853+398664832
1718+409787985+414824832+410710812+402774121+396448045+393805128+395152220
1708+399827635+405750920+410362258+414093095+420181301+429252969+436310091
1698+437447623+434143813+427391883+419204997+414124788+414204331+418047165
1688+424368891+434214726+446796139+453606691+448511223+439146481+433407934
1678+433290828+437491952+442550065+445820456+448711359+452723739+454709630
1668+451273903+446042445+444491109+447052929+449715420+449389169+448122586
1658+450110168+458174943+472983362+489058744+492870506+486112983+483155656
1648+486561588+489040170+484143422+475995306+471118513+471421185+476867659
1638+486913767+497955237+501709861+495437055+487518559+484512795+486647932
1628+491120691+495698333+500150101+503709320+504507895+503742532+505476259
1618+510994853+515800803+514712951+510312382+507967477+509100382+511975715
1608+514398955+515679209+516531504+517660819+518994619+520180346+521357822
1598+523017944+525236561+527479275+529228538+530504684+531629200+532787549
1588+533984428+535187659+536379290+537549826+538908381+541353509+546293481
1578+553903886+560605342+561287502+558166876+557967604+562331577+566894512
1568+567217036+564929371+563918094+566310573+574187986+590013518+610044557
1558+617430555+607910973+596680657+590243862+587827733+587970386+589624846
1548+592816453+599104312+609779896+624016908+639400325+651262638+651915004
1538+643092530+636493541+637101578+641707220+644752238+645872818+649409251
1528+657256973+667328387+677397454+687942607+698818914+706444647+708990654
1518+709222034+708912699+708063547+708190112+711833085+720432465+733916785
1508+748925823+754931413+745605925+732982979+727215605+728855012+735123675
1498+741831760+744404904+742445113+741254242+745516370+754507735+761990538
1488+762146656+756719826+751214834+748541226+748478047+749639711+751648456
1478+755589717+762253749+770637215+777640273+779076472+774355797+768707392
1468+767034773+769833772+773634935+774629710+774112472+776871907+785221608
1458+795450176+798100653+790378184+780550509+774193534+772048074+773005632
1448+774412692+773589018+770650058+767751905+766471962+767683686+771948299
1438+777879387+780927857+778265572+773856994+772229670+773165340+773707367
1428+772552815+771419115+771981442+774179862+777776160+782891030+787326123
1418+786476004+780104943+773262352+769311700+768056960+767872325+767743689
1408+767840908+768395985+768682742+768162465+768026648+769817615+773329881
1398+777101561+780144576+781811534+781288978+779321731+778464430+780092859
1388+782516307+782816942+780981922+780094447+782232312+786764141+792036580
1378+797366673+803103528+809010380+813467430+815330414+815619242+815839022
1368+816450857+817936701+821235678+825934741+829481117+829901619+828327393
1358+826926271+826084368+824914419+823340745+822334025+822378146+822997093
1348+823556451+823690887+823441141+823515091+824767968+827232913+830134933
1338+832587933+833891421+833730954+832559761+831414738+831218849+832335907
1328+834521208+837077919+839258870+840871486+842535130+845026451+848283032
1318+851400827+853678721+855181483+856355092+857725764+859787815+862697567
1308+866217360+869940429+873221039+875224122+875697584+875383140+875126281
1298+875077050+875176548+875672451+876445167+876550466+875301318+873137836
1288+870869194+868836144+867136182+865785947+864295891+861993968+859155335
1278+857004834+856349292+856770347+857196787+857018229+856679134+857152597
1268+858774259+860821878+862282934+862739963+862539585+862416680+862809149
1258+863330254+863323419+862980871+863222885+864537214+866665965+869089481
1248+871145800+872183523+872281226+872479532+873809190+876300236+879054769
1238+881054676+881883183+881981921+882440124+884178961+887016213+889875492
1228+892034278+893613061+894949693+896254770+897649747+899031053+900404971
1218+902454109+905860179+910077563+913681180+915804407+916686426+917297570
1208+918756072+921574612+925256046+928662875+930770566+931422725+931620616
1198+932590051+934395795+936207477+937920420+940308584+943346490+945668852
1188+946244505+945790100+946157919+948697298+952884508+956326967+957255248
1178+957139041+959021704+963456866+967964183+970403719+971357065+972650196
1168+974545496+975654062+975537509+975733881+977447722+979826496+981395060
1158+982083952+983151780+985717673+989534096+993050505+994859494+994664986
1148+992944585+990861130+990209593+992072854+995586639+998715895+999965803
1138+999437930+998714721+999239141+1000570387+1001062838+1000476413+1000559270
1128+1002553101+1005557035+1008223256+1010225372+1011141985+1010077264
1120+1007762982+1007560464+1012312280+1020520019+1027202142+1029081836
1111+1027407905+1025085336+1023610332+1023222351+1023854831+1024956216
1103+1026041790+1027687756+1030401137+1033492072+1035825757+1037676313
1094+1039337954+1038926082+1035167453+1030406177+1028307117+1030069568
1085+1034440860+1039936117+1044984080+1047417885+1046494781+1044255071
1077+1042972711+1042463758+1041411328+1040252840+1040684252+1042575616
1068+1043986819+1044749869+1047190647+1052292468+1057369224+1058681137
1060+1055348396+1050044333+1046689842+1047667079+1052318982+1058128545
1051+1063117196+1067105134+1070391958+1071849976+1071196989+1070956011
1043+1072652659+1073741823+1071786176+1068040873+1064067711+1059593537
1034+1055074758+1052572251+1053247747+1055787886+1057645416+1057135151
1025+1054144612+1049870609+1046424491+1045758799+1047968612+1050861379
1017+1052531167+1053417329+1054526724+1056112067+1058305377+1060125138
1008+1058988953+1054395049+1049739832+1047734677+1047288558+1046453698
1000+1045589700+1045981686+1047844463+1050540512+1053004008+1053881539
991+1052544839+1049672855+1045966357+1041250515+1035697742+1030999369
983+1029135486+1029712728+1029883622+1028338741+1027903324+1031439481
974+1036460999+1037394321+1033521141+1030087313+1030460380+1031990208
965+1030122321+1023863877+1016023957+1009849475+1007112618+1007895140
957+1010766295+1013348000+1013523313+1010749930+1006049417+1000259809+993381866
947+986144459+980734408+978712199+979019531+979091410+977247414+973761662
937+970499143+969163202+969302679+969166102+968733240+969725184+972346247
927+974270132+973560664+971232709+969890623+970589182+971987404+972413638
917+971565452+969922040+967915297+965967245+964230204+962436681+960520461
907+958568473+956544468+955005940+954934268+956302524+957711311+957669468
897+956098280+954620307+954993097+957051626+958729562+958562535+957351018
887+956541844+956012522+954615819+952360917+950460716+949172901+947403959
877+945012895+943782114+944994390+947509879+949574139+950957585+952018163
867+952218333+950939287+948755367+946346834+943502125+940598172+939224185
857+940178084+942418830+944613522+946634972+948649793+949567856+947883084
847+943748212+938626920+933810336+930631434+930222256+932355702+935893032
837+940226348+944687196+947076603+945476829+941043393+937022105+936036169
827+938752449+943919934+948981431+951544148+951009164+948684455+946953352
817+947622082+950177066+952610940+953993558+955003938+956073284+956440413
807+955179803+952592435+949799926+947331735+945552713+945743078+948788027
797+952632138+953625256+951308901+949228070+950365222+953890331+957080212
787+958938018+960282728+961205624+960642054+958278885+955204177+952589673
777+950900068+950454363+951488081+953205720+954194142+954439608+955288968
767+956862434+957567967+956623390+954814539+952951278+951191658+949697597
757+949729566+953389042+960425865+966237361+966763714+964184977+962603639
747+961815525+959762037+957027459+955592227+956551925+960440158+966467015
737+971742215+974291330+975015022+974570905+972104441+968673375+967182559
727+967744955+967214736+963367103+957212577+951840778+950616143+954983914
717+962329105+968166287+970261066+969019582+965860428+962766524+961764706
707+963144769+965036478+965907311+966328642+967525728+968748430+967575512
697+964105986+960917832+957780359+951895603+943435838+936145334+933265755
687+935379108+939780436+941112649+936553684+929652333+924973018+923208841
677+923242950+924151208+924327281+921497002+914785948+905908236+900272329
667+904838682+916247350+923589295+921878354+915011321+910235683+910175266
657+911863421+910868992+906268529+901699414+899283354+897275714+894647470
647+892864857+892390014+891326260+888661006+885820232+884661744+886165472
637+890348402+895669243+899199254+899101896+896007095+891397863+886854088
627+883218779+879668053+876009958+874294943+876013824+879663358+882445579
617+883945164+884693092+882345045+875531455+869058755+869034450+875121033
607+880481232+880138063+876819408+875217217+875600572+875998703
##END=
