##TITLE=<SNM>
##JCAMP-DX=4.24
##DATA TYPE=INFRARED SPECTRUM
##DATE=3/5/2025
##SAMPLING PROCEDURE=Instrument type and / or accessory
##ORIGIN=Admin
##XUNITS=1/CM
##YUNITS=ABSORBANCE
##RESOLUTION=4
##FIRSTX=4497.3318
##LASTX=599.83466
##DELTAX=-1.4281778
##MAXY=1.7205003
##MINY=0.18147334
##XFACTOR=1
##YFACTOR=1.6023408e-09
##NPOINTS=2730
##FIRSTY=0.20211038
##XYDATA=(X++(Y..Y))
4497+126134451+127315373+127940521+127800255+127389370+127045442+126560830
4487+125837859+125367121+125694998+126615725+127249048+127003055+126177909
4477+125513246+125440895+125842583+126260266+126261940+125777904+125173131
4467+124986060+125550370+126726530+127966523+128778929+129096529+129122485
4457+129048571+128969775+128792153+128265952+127399060+126652171+126444296
4447+126693805+126955106+126697237+125597203+124055651+123178716+123655247
4437+124842734+125433530+124850127+123679575+122902164+122934610+123437329
4427+123881962+124041972+123903166+123448414+122657649+121517218+120123428
4417+118963691+118748284+119587974+120665177+121081596+120724769+120026033
4407+119282528+118615318+118235205+118252698+118437649+118554638+118697461
4397+118932872+118929710+118375862+117592136+117316040+117794245+118391318
4387+118401194+118017929+117871097+117845226+117241987+115967800+114656311
4377+113765408+113309522+113255147+113635408+114451524+115662884+117064522
4367+118203001+118625957+118188902+117112397+115856009+114935551+114698020
4357+115098518+115736416+116312360+116955336+117817150+118585066+118820095
4347+118524265+117960680+117259889+116579780+116252907+116438658+116901593
4337+117270723+117330287+117074417+116642822+116193855+115865839+115896509
4327+116480646+117279232+117556389+117214098+117035312+117433094+117718090
4317+117193359+116293872+115959746+116376211+116931510+117198465+117425627
4307+117966223+118641524+118985266+118883668+118642975+118590423+118835375
4297+119208782+119363640+119199780+119144234+119670164+120600433+121276599
4287+121375203+121156709+120894255+120541483+120119680+119968887+120307839
4277+120814269+120936522+120572981+120249754+120522651+121291683+121902743
4267+121959015+121785465+121936594+122427920+122734222+122586079+122407210
4257+122724309+123484264+124216740+124559207+124452587+124097425+123733987
4247+123320433+122640528+121846313+121505658+121968919+123007110+124091278
4237+124772810+124849290+124385425+123641205+122921488+122431426+122259634
4227+122459744+123024333+123743017+124253017+124352040+124178137+124054024
4217+124190626+124563736+125038947+125537379+126040070+126457362+126543718
4207+126097923+125389105+125115446+125578195+126217590+126394543+126239342
4197+126272216+126563945+126722866+126502930+126123645+125993106+126242532
4187+126683361+127140484+127512562+127586717+127257753+126877798+126944393
4177+127468268+127972949+128127490+128157602+128532479+129357625+130238495
4167+130743473+130829095+130758288+130746068+130771456+130677976+130355391
4157+129839290+129392862+129449003+130156649+131011433+131360113+131217782
4147+131123307+131273626+131303887+130985812+130677325+130804200+131236474
4137+131558222+131689812+131789783+131840178+131833138+132044258+132682212
4127+133532671+134163539+134241042+133686599+132810686+132177112+132139309
4117+132616250+133310792+133963393+134428857+134606759+134373013+133739281
4107+133063041+132871878+133486638+134865595+136566403+137859422+138256367
4097+137902600+137192481+136301494+135417193+134964748+135181736+135786732
4087+136315945+136551105+136571480+136629185+136960409+137531313+138002497
4077+138078977+137832500+137544462+137323913+137077715+136809188+136712295
4067+136956633+137533461+138254665+138779108+138802645+138390198+137960025
4057+137829710+137924305+137956240+137733040+137314315+137008349+137178411
4047+137943063+138994692+139732245+139728488+139141040+138540824+138302726
4037+138343253+138500454+138893865+139713255+140778982+141511122+141440520
4027+140740723+140161152+140353841+141274215+142299535+142882166+142974492
4017+142835723+142579091+142059419+141213218+140375155+140102556+140636093
4007+141616041+142435003+142823243+142976901+143192103+143528647+143858058
3997+144121154+144339472+144395604+144159292+143903357+144079947+144578054
3987+144846459+144782292+144723230+144667163+144358071+144023713+144262676
3977+145264933+146554725+147376588+147297318+146619069+146025288+145765420
3967+145626316+145638871+146137888+147088263+147935384+148210095+147951110
3957+147527642+147236350+147104277+147135384+147605610+148679428+149816251
3947+150215920+149836831+149303609+149020510+148936674+148854428+148625806
3937+148453317+149045117+150805330+152810394+153405421+152212568+150607007
3927+149941619+150394482+151354166+152225606+152880327+153490819+154090710
3917+154356428+153857680+152609475+151172572+150154013+149921699+150826236
3907+153266754+157080538+160989075+163417671+164000385+163150660+160877628
3897+157656054+155291272+155432896+157636692+159261726+158480967+157101071
3887+157584912+159431333+160621219+161179382+162045158+161937934+159597331
3878+157145374+157289202+159932991+163276689+166216131+168171730+168496640
3868+167941694+167975619+168298837+167284992+164699995+162213072+161482345
3858+163524951+168860050+176043542+179473019+175283930+168142027+162817882
3848+160521471+161190282+164205442+168257342+172143095+175527543+177987721
3838+178329017+176440766+173967681+171922508+170062528+168417891+167707455
3828+168095287+169131320+171303767+175626882+180669024+182560846+180959228
3818+179202344+177886615+175250247+171789784+169892271+170929774+174523445
3808+178488896+180606103+181788940+184077670+186340993+185866898+183630600
3798+182152388+181059348+179130291+177136712+176611693+177905270+180396918
3788+183372982+186187791+188351255+190231861+192933308+196596187+199691733
3778+201167229+202230659+204771167+209579368+216218683+223247596+229074366
3768+233481364+237304754+241234569+246238006+253493867+262747994+271824126
3758+279094197+285866180+294816116+307347485+322119802+335015734+343786987
3748+351619313+361855554+373299518+381591617+386734121+393389302+404314756
3738+419103905+435099959+448724126+457799997+462763353+465620606+468455874
3728+472262841+476140671+478368972+479081583+480294030+483299147+487860425
3718+493503360+500517543+509821218+521463338+532729902+540025454+543850909
3708+547284887+551977066+558581433+567084374+575507709+581129590+583926283
3698+586109983+589247563+593408102+598222329+603796857+609826619+614569760
3688+616522122+616035454+614088412+611926064+611290342+613218451+617365598
3678+622235400+624980982+623816186+621747281+622153675+624012557+624280386
3668+622963262+622096240+622447729+623543075+624365720+624933368+626976011
3658+631410442+636505965+640892707+646279717+654252393+662704781+666141399
3648+662224399+656142968+653184201+654313845+657556213+659951572+660081692
3638+659298218+659548638+661480207+665278915+671651834+680485431+688482212
3628+691208191+689303555+686588140+686099501+689849405+697047162+703212141
3618+705245931+705202781+705744614+707409915+710201885+713516641+715326868
3608+714419225+712667474+712743582+715384005+719183830+721486416+720927918
3598+719180110+718533005+719092470+719623441+719782577+720029798+720186106
3588+718978792+715890351+712678336+711390599+712296085+713604058+713040724
3578+710450594+708587024+710423141+715828824+722083451+727493896+731806316
3568+733214502+729779222+723992105+720190272+719352339+719479260+718635896
3558+716748594+715387502+715624828+716741973+717731303+718847556+720914154
3548+723514254+724934789+724670903+724647840+726699783+729641885+730497822
3538+728567221+726042411+724677897+724325776+724166269+723596983+722372707
3528+720926058+719988879+720060747+721351683+723214657+724175568+723670041
3518+722943778+723277448+724656694+726533952+728175298+728308096+726006254
3508+722139100+719142539+718990174+721662811+725250753+727260885+726631710
3498+724692553+723549592+723675398+724278311+725590896+728223061+730962134
3488+732008601+731905934+732500142+733408380+732334683+728862577+725387272
3478+723806783+723452653+723207143+723821960+726100515+728413963+728482483
3468+726346472+723540442+721251991+720678762+722715751+726340669+729058390
3458+729329790+727667241+725644388+724616966+724989322+726015852+726558280
3448+726045536+724993191+725038871+727525887+731292159+733079471+731499205
3438+728782079+727380590+727494194+728451906+730047125+731664292+731939487
3428+730310937+727927928+726551063+726977953+728402283+729137623+728368432
3418+726977656+726345505+726794862+727625356+728092792+727704216+726048363
3408+723081635+719557377+716833332+716226253+718290099+722480136+727374043
3398+731168585+732425820+731060412+729109426+729834127+734368622+739434683
3388+739766791+733483893+723741090+715345839+711719880+713790050+719656920
3378+725853964+730090499+732213416+732669767+731799025+730411075+729518089
3368+729530215+730576088+733112950+736941938+739882701+739113734+734586084
3358+729169688+725508092+724738605+726561628+729035178+729852503+729140524
3348+729305313+731567651+734396223+735517534+734084574+731153408+729181219
3338+730290180+734074010+737508174+738050081+736323253+734326216+732674380
3328+731310535+730688278+730967044+731826998+733487464+736215452+738685059
3318+738781552+736326601+733310176+731551060+731263069+731786006+732840359
3308+734390569+735816759+736320352+735981176+735360259+734329043+732365335
3298+729784430+727748259+726956750+726860034+726357185+725239445+724632515
3288+725570139+727540617+729260898+730573261+732273975+734137322+734709657
3278+733657610+732512492+732306561+732509962+732896901+734551341+737780913
3268+740151200+738885708+735007394+732076005+731027454+729726177+727772810
3258+727585702+729832044+731778566+731372507+729998767+729802359+730925010
3248+732175548+732890057+733418498+733961447+734198253+734279122+734975180
3238+736420267+737567468+737646478+737338400+737689107+738499811+738446766
3228+736701934+733889282+731113755+728981612+728051576+729018067+731797388
3218+734996086+736768445+736051927+733035726+728922392+725339137+723543789
3208+723743396+725154186+727077571+729337676+731083401+730650634+727979411
3198+725767738+726767633+730583528+733893374+734036067+731746650+729437591
3188+727906278+726130497+723400501+720393971+718624513+718997093+720135367
3178+719388124+716581722+714481347+714799319+716434416+717870575+718783053
3168+718727404+716858181+713603314+710690970+709490724+710200173+712168940
3158+714172525+714816133+713735740+712140967+711348937+711168227+710230751
3148+707832936+705155762+704157280+705307457+706862800+706710658+704495117
3138+701540962+699460897+698946963+699420202+699851407+699727164+698992197
3128+697806011+696811175+696803289+697720455+698592982+698620733+697879888
3118+697141795+697132421+697691886+697798869+696747938+695029517+693589787
3108+692523306+690992812+688376122+685100424+682332336+681304170+682513121
3098+684754775+685817908+685085470+684156103+684183258+684339938+683525663
3088+682084669+680944312+680091723+678975247+677916430+677890912+678909406
3078+679842344+680018367+679775536+679265619+678145721+676471195+674656057
3068+672987185+671862675+671539569+671546116+671320023+670938664+670675894
3058+670604324+670754011+671113646+671515390+671717005+671342119+669879252
3048+667343729+664676300+662965096+662462618+662506587+662409871+662208925
3038+662242924+662316800+661875924+660919253+659983265+659147639+657852834
3028+655851630+653750065+652329975+651712778+651310142+650427943+649002274
3018+647641702+646846696+646503726+646241849+645925066+645477420+644574836
3008+642898598+640673087+638863828+638422579+639117000+639682715+639415704
2998+638888155+638735716+638667792+638059224+636724245+634940653+633145454
2988+631568313+630019219+628218143+626282929+624609667+623489249+623039891
2978+623211451+623680896+623985811+623895977+623637522+623723451+624409019
2968+625307511+625690953+625113186+623691385+622032966+620790202+619992926
2958+619169092+618207288+617395059+616687990+615781500+614706241+613637492
2948+612344472+610356065+607754403+605580673+605023997+606125853+607722263
2938+608660409+608442575+606900400+604363761+601896461+600337509+599522305
2928+598906000+598296317+597742841+597214660+596469649+595135711+593074283
2918+590652624+588522156+587156042+586523295+586107007+585564505+585245118
2908+585490517+585874108+585801199+585383199+585074787+584818452+584128234
2898+582759181+580866932+578817444+577086376+575949776+575156370+574290686
2888+573323452+572382479+571435740+570642929+570332099+570216634+569429291
2878+567692085+565757950+564531516+564245720+564450051+564434502+563752580
2868+562505166+561020761+559408839+557765373+556521679+556011948+555854115
2858+555339437+554295015+553014271+551620518+550203480+549274187+549187775
2848+549288025+548464934+546516515+544287024+542595683+541615355+541131402
2838+540880610+540655001+540348709+539880678+539088350+537946282+536778994
2828+535858220+534979071+533833656+532576979+531700397+531471254+531591889
2818+531395518+530527083+529348672+528368492+527452777+526063302+524137351
2808+522169849+520465600+518902557+517499616+516637579+516500056+516754270
2798+516947293+516796007+516081201+514735323+513122099+511911809+511524536
2788+511639851+511271438+509681351+507356967+505611391+505061635+504949518
2778+504128622+502333052+500228436+498524634+497363893+496424817+495367710
2768+494194061+493211984+492608402+492185827+491641129+490861710+489806314
2758+488429003+486882402+485470608+484309867+483293865+482341174+481432043
2748+480541623+479702649+479002871+478471937+477990626+477269831+476021115
2738+474340637+472778561+471782646+471231550+470697789+469940093+468976206
2728+467934277+466977420+466151428+465267853+464157441+462959724+461901241
2718+460889703+459619710+458045581+456502477+455305727+454399833+453504763
2708+452489356+451424289+450353977+449283033+448366425+447814028+447520494
2698+447012177+445922262+444424688+443023607+441942843+440960319+439924490
2688+439106161+438731758+438427921+437620825+436395545+435394757+434841095
2678+434248709+433217269+431961634+430894782+430139095+429529821+428798387
2668+427809838+426791380+426109793+425738254+425270148+424499433+423611543
2658+422788824+422035927+421421110+421073118+420844422+420357271+419518743
2648+418635018+417902394+417181450+416372160+415597241+414900960+414141665
2638+413258908+412342300+411459729+410662417+410033316+409528644+408946153
2628+408197273+407443148+406873416+406458653+405944087+405096817+404027658
2618+403155465+402705885+402405656+401854077+401027638+400257332+399826090
2608+399670340+399440527+398884224+398132517+397509592+397146906+396896449
2598+396526956+395926387+395165566+394378521+393642103+393050833+392742346
2588+392673677+392562380+392223464+391783778+391441292+391185701+390854151
2578+390337092+389666106+388984964+388487435+388306352+388358802+388359137
2568+388103174+387655342+387158779+386634244+386106062+385753942+385736421
2558+385931564+386016674+385805647+385386346+384930516+384530483+384231296
2548+384053413+383958371+383896361+383835765+383693778+383406606+383144989
2538+383233782+383694001+384032991+383724392+382840631+381973162+381563161
2528+381552410+381633912+381585368+381390597+381204604+381155205+381178714
2518+381160599+381095836+380965976+380703318+380384527+380156649+379957339
2508+379639069+379291115+379115687+379109698+379120634+379069412+378920283
2498+378578131+378000327+377349800+376898657+376760985+376799672+376823628
2488+376797403+376781482+376733793+376506101+376041232+375452380+374891241
2478+374465170+374276090+374357629+374548829+374590268+374382366+374050518
2468+373781424+373688763+373781387+373942903+373967342+373744375+373416358
2458+373218314+373163520+373071268+372883155+372679605+372411553+371955202
2448+371433196+371145838+371169124+371267663+371196241+370931649+370623162
2438+370392643+370211932+370000124+369767373+369543662+369252918+368822160
2428+368351971+368037384+367945838+367941672+367832978+367589179+367363608
2418+367265962+367224039+367152320+367109840+367181112+367309112+367347389
2408+367239774+367096560+367071971+367185613+367325851+367415388+367471669
2398+367512513+367502841+367422456+367351072+367404861+367524231+367434322
2388+366938541+366111916+365072218+363729167+361876311+359356449+356101544
2378+352249121+348241989+344533523+341123687+337619925+333829958+330075515
2368+326852155+324442177+322935006+322319148+322459610+323284970+325063355
2358+328201493+332775827+338672233+346011531+354551260+362777258+368625715
2348+370960998+370157102+367801508+365454024+363246517+360398564+356687457
2338+352580745+348527896+344654009+340975489+337751757+335497343+334482196
2328+334345789+334401773+334232408+333950035+334003117+334705015+335906117
2318+337204381+338411137+339625370+340918091+342188308+343350909+344466492
2308+345616260+346756505+347743455+348477641+349010658+349480587+349945940
2298+350365315+350753221+351235313+351875313+352520186+352914527+352987027
2288+352944360+353003729+353120532+353122206+353011541+352928811+352878333
2278+352715813+352402713+352100662+351974931+352003164+352023921+351918761
2268+351691962+351401702+351096005+350827246+350664354+350645755+350715279
2258+350729042+350589213+350394330+350379748+350668334+351144623+351595878
2248+351884166+351963027+351868543+351744672+351734182+351797643+351792286
2238+351743073+351834097+352121307+352470005+352789615+353134221+353555122
2228+353996668+354339117+354476305+354401797+354268552+354298869+354566846
2218+354903939+355076540+355028777+354894974+354833708+354952632+355327593
2208+355942855+356630693+357202136+357652051+358134255+358719536+359300651
2198+359785087+360226261+360661632+360993144+361190482+361458423+362017925
2188+362803781+363496491+363824916+363815282+363767035+363986209+364552332
2178+365339750+366175116+366912836+367463448+367896811+368488787+369501218
2168+370876632+372307658+373642637+375019464+376570194+378276377+380188454
2158+382473519+385147011+388030786+391029914+394168982+397324789+400213549
2148+402691191+404864289+406928917+409084755+411490120+414077051+416532337
2138+418680512+420767793+423175874+426005823+429141394+432541336+436185038
2128+439837223+443191744+446185590+448859342+451022471+452411314+453010321
2118+452879903+451903517+450009742+447430400+444557561+441718424+439079527
2108+436572051+433948629+431008758+427730233+424251394+420806740+417543764
2098+414350720+411041915+407693531+404552454+401651568+398807372+395988248
2088+393375241+391019238+388757124+386559623+384664770+383240775+382159452
2078+381186377+380200878+379209836+378322317+377675213+377254163+376892928
2068+376528421+376247646+376017090+375636364+375047735+374431803+373947962
2058+373606777+373389204+373280286+373194470+373021050+372748237+372469248
2048+372277750+372218233+372346270+372725880+373288991+373854296+374414208
2038+375193181+376296116+377545725+378765054+379959794+381154572+382265803
2028+383144803+383632103+383640287+383245760+382636337+381952108+381166699
2018+380098842+378651412+377064971+375728058+374738132+373878773+372963579
2008+371976889+370961928+369979814+369117553+368426145+367877207+367363012
1998+366748345+366047897+365509263+365321634+365302663+365082225+364530720
1988+363812901+363145300+362659302+362373878+362206447+362046010+361783240
1978+361301817+360609628+359958618+359634879+359667242+359896570+360185603
1968+360361254+360171876+359599317+359016789+358765848+358771651+358762463
1958+358644767+358439246+358062760+357452035+356802996+356457534+356555403
1948+356971133+357602503+358444602+359222980+359325276+358513457+357353496
1938+356530145+356153250+355948807+355769585+355693812+355757495+355822035
1928+355839518+356089678+356792655+357620581+358136599+358524244+359089549
1918+359363665+358684086+357411675+356559978+356576606+357066473+357361196
1908+357162928+356702858+356331803+356135767+356026068+355968002+356017290
1898+356259861+356631660+356820144+356735481+356873375+357552285+358147758
1888+357887592+356994866+356192197+355748605+355576302+355605874+355727290
1878+355749051+355587610+355431302+355807899+357351376+360070139+362679575
1868+363294912+361546844+359017087+357253953+356606997+356664171+356938138
1858+357121378+357161589+357251461+357571628+358077416+358648561+359429581
1848+360914432+363320430+365588012+365774563+363649414+361263987+360154356
1838+360156625+360431931+360707423+361623212+363819745+366623804+368251015
1828+368061525+367162141+366226041+364935886+363464016+362653685+362819999
1818+363468369+364079651+364731220+365834527+367365765+368600159+368892279
1808+368523568+368387719+369200134+371155398+373767401+375914422+376711474
1798+376621826+377166189+379470448+383066165+385671249+385356178+383343257
1788+382242926+382949585+384641000+386482251+388429665+390396163+391934618
1778+393244711+395486850+399618931+405054671+409294554+410203313+408684350
1768+406829671+405829515+406481568+409092269+412482092+414831548+416110171
1758+417459063+418918061+420243890+422454819+426550111+431564503+435098880
1748+436139098+435857803+435770313+436736246+438876423+441404171+443236717
1738+444873413+448352215+454219606+459231023+459940323+458116333+456591753
1728+456035376+456607711+458474368+461299481+465062703+470774121+479077826
1718+487952193+492865443+492254198+489519626+487892192+488439865+491270409
1708+496179307+502158405+507624722+512572715+518803572+526639469+533088049
1698+536081299+536890106+536275029+535025048+535354515+538446639+543616001
1688+550300196+559404449+570679718+578971074+580106967+578338328+578731962
1678+582789535+589763320+597400987+603765126+609471522+615532122+620367924
1668+622248568+623438994+627264523+633993877+641059580+646294001+650480764
1658+655679475+663449420+674693405+687367150+694317910+695023119+697069630
1648+702517273+707176755+707032797+704652689+704211292+706774491+711972904
1638+719194245+726276836+728821138+725613066+721284279+719523006+720470228
1628+722322266+723509046+723864887+723280275+721279295+718904172+717937829
1618+717837989+715503486+709783922+703783584+699769347+697075656+694135340
1608+690412590+686683145+683757335+681636948+679936382+678494643+677404728
1598+676753382+676440766+676171598+675652382+674783276+673615244+672211894
1588+670624263+669031424+667826342+667299165+667375496+668143124+670284343
1578+674024055+677381962+677521308+675857866+676344199+679864812+683757559
1568+685632139+686826582+689616319+694748668+703006657+715933798+731851921
1558+741654540+742683747+743501147+748100218+755426012+763767177+772004557
1548+779649143+787354585+796296877+806658216+817246020+824985833+825527741
1538+820690971+817284334+817601339+819495114+820371362+820704809+822716651
1528+826901927+832058083+837634210+844271907+851021794+854781147+855077619
1518+854903307+855642589+856612875+857736864+859914314+864187899+871389971
1508+880363733+885017263+880701049+873727077+870394391+871112173+874061938
1498+877146362+878628052+878393701+878393627+880502558+884635904+888383428
1488+888854286+886109857+883064268+882255945+883820811+886076973+888004152
1478+890538038+894996723+901046237+906011267+906458393+902622337+898844459
1468+898141557+900012268+901772575+901553104+901014172+903198393+908953444
1458+915429625+917130637+913280818+909077613+907282563+907216498+907377344
1448+906650263+904642810+901896371+899638275+898940952+900182191+903192590
1438+907147979+910009658+910081228+908557503+907540051+907476962+907607975
1428+907456056+907572190+908843337+911404601+914441931+916713196+916726959
1418+913751007+909485977+906381615+905266554+905550676+906081349+906165120
1408+906257075+906850688+907041888+905872740+904522584+904773004+906348583
1398+907481277+907133843+905191338+901658599+897369167+894064752+892558734
1388+891557277+889123157+885751710+884009705+884976121+887476380+890343862
1378+893784945+898370625+903532881+907576951+909545793+910389975+911313985
1368+912227580+912822384+913778013+915599473+917409924+918230894+918616121
1358+919781996+921942558+924170004+925568815+926165032+926453990+926652928
1348+926802168+927062111+927552461+928310641+929539455+931422740+933553246
1338+935003615+935343386+935212745+935544481+936698080+938579951+940934317
1328+943123969+944238287+944055791+943607400+944238956+946202143+948467307
1318+950039687+951005583+951722919+951785189+950701299+948836763+946840023
1308+944873637+943074569+942123107+942756150+944877803+947350981+948824859
1298+948993666+948794208+949048720+949324584+948569083+946472948+943594083
1288+940458400+937229795+934027080+930993916+928193094+925685916+923457281
1278+921215923+918688138+916050245+913647148+911494323+909406819+907334938
1268+905323467+903455806+901986243+901080237+900222068+898320630+894782608
1258+890266117+886109931+883259039+881832924+881452458+881695811+882285481
1248+882912052+882982878+882108118+880872757+880358897+880848875+881675203
1238+882282207+882747412+883409024+884577056+886326054+888133454+889060366
1228+888674246+887641839+887278782+888651778+891851293+895766731+898776981
1218+900097453+900476208+901435929+903842373+907201024+910355678+912836593
1208+915092161+917216045+918396353+918336389+918299265+919698151+922319974
1198+924809148+926475268+927818877+929473614+931434569+933366807+935112458
1188+936741528+938372830+939952278+941172909+941958689+942966396+944967451
1178+947825931+950770861+953137726+954386479+954391910+953996564+954396150
1168+956061898+958903788+962908799+967852701+972826361+976621201+978614147
1158+979146978+978933161+978521151+978815465+980980491+984458252+986650656
1148+986328442+985427644+985922607+987368586+988578802+989458248+990412538
1138+991690603+993584155+996204044+999237655+1002117635+1003862988+1003642401
1128+1002391119+1002278333+1003838065+1005388051+1005959718+1006821755
1120+1009127020+1011961767+1013838207+1015025434+1017364995+1021909757
1111+1027084661+1029724414+1028455648+1025482373+1024265462+1025845505
1103+1028022806+1028192804+1026634113+1026004119+1027505524+1029082145
1094+1028593208+1027487818+1028849134+1032759289+1036442534+1038582935
1085+1040614418+1043372462+1045435862+1045688216+1045158138+1045191468
1077+1045459743+1044799917+1043131937+1041381004+1040476486+1041376243
1068+1044687131+1049316631+1052893413+1054364762+1055113419+1057343096
1060+1061743974+1066414392+1067476111+1062412802+1054031166+1048382651
1051+1048998658+1054247513+1059480446+1061855792+1062400750+1063380112
1043+1065714093+1068794351+1071550312+1073346254+1073741823+1072283568
1034+1069257025+1066406283+1065308555+1064877648+1062592397+1058302221
1025+1054880705+1055031359+1058576523+1062328883+1062538980+1058558221
1017+1053482712+1050703762+1051247232+1054245950+1058009916+1060397165
1008+1060206709+1058747487+1058367096+1059223851+1059018887+1056287403
1000+1052387886+1049563257+1048464488+1048055528+1047007721+1044822831
991+1042032350+1039467589+1037440792+1035907173+1034919479+1034247005
983+1033140350+1031271796+1029100149+1026637312+1023053089+1018258503
974+1013545455+1010055047+1007931312+1006969433+1006518662+1005105120
965+1001779948+997203865+992502126+988126468+984331926+981687783+980414628
955+979499545+976890295+971434171+964709950+959708168+957642015+956976237
945+955667743+953659323+952479684+952863796+953818904+954094322+953614833
935+952919594+952011356+950294571+947455658+944310228+942374419+942386844
925+943741687+945332963+946403685+946893217+947544116+949060251+950731281
915+950846076+948831555+946073213+944577537+945273743+947133370+948057380
905+947270781+946106841+945768111+945646100+944606923+942602521+940226802
895+937790823+935468149+933832160+933685301+934966416+936327286+936622121
885+936348191+936427721+936151114+934304507+932052585+931941659+934040546
875+935433332+933991295+930705851+927660783+925744318+924805726+924392674
865+923976720+923360341+922904883+923160214+924336727+926005600+927358657
855+927980393+928143173+927981732+926823297+924210401+921469022+921009844
845+923447386+926129024+925728917+922447119+919985918+921152984+924977806
835+928180223+928827402+928103520+928516051+930996074+934150877+935951953
825+935705699+934559614+934123499+934710268+935310725+935108961+934674557
815+935476854+937937161+940274342+940521266+939104152+937750053+936814958
805+935712395+935012691+935740070+937484605+938968527+939396086+938366655
795+936259361+934968499+935881797+937701472+938437704+938427884+939219170
785+940704803+941738549+942691276+944686007+946822465+946750300+944341698
776+942203455+942070136+943044959+943267555+941610214+938265922+934897525
766+933330948+933747868+934977353+936097845+936806774+937091491+937411175
756+938234675+939192461+939437227+938713271+937781597+937602524+938173074
746+938497296+937734876+936324012+935727646+936859819+939244762+941644436
736+942793051+941876778+939357771+937124821+936532919+936878790+936813990
726+936121876+935317719+934890457+935628624+938016245+940775182+941534552
716+939564372+937010696+937086135+940999564+946123729+948134083+945533166
706+940549462+935637403+930957090+925688148+920210076+916007318+913730622
696+912336571+910323464+907446087+905341992+905835170+908473584+910802581
686+911394185+910888583+909264944+905008099+897777681+889640885+883716432
676+881842075+882534339+881021104+872971800+860150153+853359049+862448870
666+878857343+887702696+885420420+877836171+871665166+868379721+866101612
656+864006445+862506900+861726773+861414678+860830513+858093151+851979060
646+845072269+841651125+842401195+844051543+844101389+843744060+845195619
636+848347447+851545400+853546009+853384270+850080301+844439374+839790233
626+838794802+840616933+842570150+842723929+839323021+831612445+823356688
616+820511079+824011903+828213917+827959182+824521819+822036738+821828798
606+822251670+821618031+820271818+820154792+822153690
##END=
