##TITLE=<SNM>
##JCAMP-DX=4.24
##DATA TYPE=INFRARED SPECTRUM
##DATE=2/5/2025
##SAMPLING PROCEDURE=Instrument type and / or accessory
##ORIGIN=Admin
##XUNITS=1/CM
##YUNITS=ABSORBANCE
##RESOLUTION=4
##FIRSTX=4497.3318
##LASTX=599.83466
##DELTAX=-1.4281778
##MAXY=1.7228404
##MINY=0.21421526
##XFACTOR=1
##YFACTOR=1.6045202e-09
##NPOINTS=2730
##FIRSTY=0.2293994
##XYDATA=(X++(Y..Y))
4497+142970715+143279294+144284034+144906179+145013862+145150083+145463891
4487+145688171+145822248+146162941+146756352+147280389+147422089+147106945
4477+146497830+145945449+145714352+145711222+145734829+145845084+146160647
4467+146509030+146707047+147031637+147872963+148914657+149141873+147917987
4457+145899348+144551240+144641658+145450777+145723471+145196528+144733042
4447+145009014+145625280+145712689+144983735+143877218+142993747+142666287
4437+142752276+142648707+141865489+140685503+139886478+139846850+140326718
4427+141036244+141905739+142792878+143338953+143147651+142011824+140118365
4417+138154622+137087398+137560960+139246363+140826879+141059202+140025281
4407+138912422+138518226+138593543+138715064+138956767+139297637+139160561
4397+138169917+136880670+136205023+136413701+137022807+137480489+137743468
4387+138145084+138772030+139076727+138356790+136682941+135010131+134231640
4377+134396437+134821066+134774687+134174562+133661437+133857291+134666995
4367+135524834+136041117+136099745+135716787+135164880+134959712+135412870
4357+136267125+136889474+136840197+136212072+135382892+134707041+134534971
4347+134962498+135435967+135341732+134974692+135087557+135661650+135975021
4337+135667408+135003361+134296658+133712200+133507366+133927240+134814296
4327+135647460+136021066+135850325+135212597+134385915+133857318+133843880
4317+134037588+134127681+134203482+134434189+134743984+134952227+134996479
4307+134980942+135082987+135376772+135806295+136351321+137057875+137847343
4297+138344745+138046140+136957882+135959846+135951451+136715018+137245054
4287+137059825+136570447+136250817+136083558+135914897+135879161+136171404
4277+136679551+137210609+137811690+138477911+138890857+138784261+138206044
4267+137358820+136624377+136478729+136871253+137133564+136924653+136668583
4257+136783500+137171770+137650301+138268072+139017021+139631699+139839467
4247+139633055+139181224+138626949+138143923+138029507+138443791+139107690
4237+139517571+139509928+139408923+139493778+139533294+139179116+138664840
4227+138582501+138967140+139126459+138539865+137582738+137135458+137627177
4217+138613009+139307360+139401604+139206206+139112835+139178875+139266200
4207+139395828+139744824+140241204+140428179+140010831+139320018+138925572
4197+138967010+139082977+138937060+138661283+138665406+139055395+139519354
4187+139847287+140163286+140529166+140747521+140742748+140815781+141280548
4177+141974202+142366076+142233235+141995795+142148064+142556199+142651029
4167+142255700+141840470+141825899+141987891+141900910+141695045+141837972
4157+142344893+142803373+143081267+143433244+143943165+144373570+144593616
4147+144689672+144536186+143782500+142555457+141645926+141617313+142192419
4137+142793064+143207812+143501940+143677585+143652677+143449004+143316079
4127+143502432+143816258+143762904+143294134+142913368+142860005+142835013
4117+142711134+142835013+143388824+144004403+144258161+144191127+144055277
4107+143829074+143381395+142968820+143066817+143674947+144245707+144380248
4097+144186809+143906927+143617517+143373696+143276768+143348770+143561052
4087+143939654+144479173+145038101+145453424+145681457+145755094+145694561
4077+145535642+145378720+145323759+145357824+145341015+145132178+144755869
4067+144446650+144474111+144844764+145181557+145064569+144598464+144412789
4057+144888766+145617823+145912452+145682924+145487860+145775386+146334360
4047+146620065+146526907+146521001+146891171+147346921+147615185+147823241
4037+147940786+147581733+146839461+146567909+147246110+148167993+148352943
4027+147854575+147588577+148109401+149031580+149583042+149439131+148982006
4017+148816587+149075879+149393383+149549924+149686935+149782647+149550742
4007+149105904+149073753+149752260+150710668+151363330+151487868+151146497
3997+150516106+149814353+149176504+148689661+148543921+148850475+149372645
3987+149799122+150179192+150715451+151276106+151505012+151386129+151371595
3977+151821531+152519950+152945600+152917266+152717744+152629806+152644488
3967+152714939+153072804+154003667+155307532+156291331+156424897+155780584
3957+154834760+154137929+154120683+154988339+156689910+158672459+159769476
3947+159317292+158352393+158370669+159197694+159344707+158199046+156601164
3937+155680656+156260777+158646381+162019639+164422257+164467429+163128264
3927+162663338+163860153+165178701+165037074+164155349+164273777+165496613
3917+166079074+164584909+161559543+158738081+157365297+157782283+160226358
3907+165235574+172618303+180241194+185053303+185967124+183743169+178832116
3897+172411705+167599317+167152409+170546153+173459166+172387522+170106563
3887+171176703+175081027+177696633+178335169+179306830+179455905+176398145
3878+172714962+172559164+176222825+181498299+186676520+189786101+188904952
3868+186215662+185575603+186577242+185533812+181318095+176940338+175643521
3858+179185672+188501822+201968105+210243703+204171071+190911536+180184562
3848+175053983+175320464+179423159+185248348+191368455+197292644+201795422
3838+202467540+198977545+194149816+190101283+186860662+184406798+183481703
3828+184084781+185485018+188568075+195219714+203438996+206765373+203976620
3818+200312104+197008815+191439854+184510478+180159004+180654799+185561190
3808+191761351+195854573+198955071+203972330+208696658+208137470+203749590
3798+200133181+197264746+193450970+189845501+188609105+189867511+192428342
3788+195706891+199580030+203267354+206308212+209878613+214864797+219567394
3778+221793114+222455759+224494068+230074266+239490066+250572657+259960818
3768+266736810+272363481+277666778+283659115+292667717+305515858+319352171
3758+331068822+342190957+357058684+378143640+402904907+423081597+433967545
3748+441792168+452886665+465289958+471911433+473158861+476145111+484945425
3738+499379337+515769164+528175467+532611193+530781581+527747039+526934279
3728+528534687+530775229+532074739+532598414+533218227+533838412+533855278
3718+533329300+533457089+536438546+543769956+552992121+558219433+557954345
3708+556532099+557781607+562699588+569417164+573957053+574147622+572344200
3698+571938285+574498002+580596210+590365899+602275497+611502715+611967844
3688+604309868+596140735+592572228+594080732+599275094+606744916+616208395
3678+626803772+632536965+627080301+617101209+612260422+610926141+605318880
3668+594464396+584815921+580298246+580065143+581644414+584273486+588861444
3658+594538915+598042524+599197603+602897094+612929271+626783266+634556476
3648+629227379+616865988+606744285+603070723+605072738+608995971+611666574
3638+613216907+615214130+617837927+620902039+625997438+634896157+645027073
3628+649958464+648660143+645514751+643818353+645648113+651470535+657721941
3618+659953865+659836031+662103617+667458792+673009291+676582478+677276625
3608+674395875+669609584+666947116+668939732+674239854+679008537+681383852
3598+683410941+686741330+689252383+689113524+689485301+694604586+703029148
3588+707411715+703629979+697029828+694039269+695217230+697345734+698369234
3578+699528771+702198817+704738549+704539064+702207287+701537881+704630448
3568+708220872+707521153+703809850+701647541+701371235+700056346+696753150
3558+693618828+692446216+692996674+694437941+696336573+698978238+702564353
3548+705503351+705703950+703612743+701535875+700586299+700047059+698613445
3538+695735741+692992142+693431825+697941216+703414670+705968592+704950069
3528+702719111+701253996+700092602+697674419+693939861+690885556+690396317
3518+692125257+694139271+695210469+695614268+695854764+695817467+695513225
3508+695738862+697293355+699671419+700937867+699612428+696636431+694495891
3498+694770266+696860730+698610102+698295830+696370897+694775615+694900135
3488+696863405+700253899+704580075+708499705+709681381+706718757+700930735
3478+695326297+692545921+693706572+697637122+701257191+701841528+699348009
3468+696167995+694478878+694257327+694246257+694327760+695856398+699513317
3458+703608136+705035584+702287898+696925962+692164486+690514819+692200668
3448+695177779+696624618+695282091+692035434+688322050+685416262+684547520
3438+685838635+687754132+688762996+688366330+686466212+683957908+683144813
3428+685052732+687440454+687666463+686449347+686714435+689346516+691363056
3418+689356843+684468246+681097441+681004422+681916182+681942111+682166485
3408+684140824+687646477+691285862+693470236+693078548+690350997+686858569
3398+684219281+683035078+683015167+683784947+685136464+686586051+687386144
3388+687239707+686619187+686145254+685848887+685438774+685137875+685384909
3378+685680533+685190477+684858523+687008647+691980752+696635836+697473671
3368+694500721+690536885+687858666+686977888+687592241+689168874+690618833
3358+690792092+689842441+688953045+688562025+687964241+686648386+685029775
3348+683722018+683295783+684851911+688906684+693362210+694868337+693025501
3338+690769803+690319421+691003538+691137493+690654644+690878201+692576011
3328+695092710+696980941+697004790+694860536+691721459+689577205+689274003
3318+689901655+690539485+691466624+693256338+695751195+698151102+699629887
3308+699865405+699108999+697761642+696081589+694587275+693905907+693734210
3298+692925647+691079097+689539314+690198987+693108564+695897558+696659834
3288+696753075+698532314+701508757+703293344+702994452+701208601+698428671
3278+695877572+695658399+697977398+700225889+700324034+699135151+698662257
3268+699495709+700434958+699871126+697708372+696075571+696988668+699306923
3258+699695639+696915486+693226471+691098488+690788451+691320633+691746200
3248+691546344+690896106+690453005+690400403+690081823+689294657+688983729
3238+689670743+690604049+691392997+692833966+695076514+696496012+695728015
3228+693711401+692351414+692316049+693231449+694760385+696270003+696441627
3218+694528210+691452582+688966641+688217664+688892345+689289605+687802573
3208+685043074+683536873+684466983+686193695+686706485+686179281+685982991
3198+686047926+684814168+681646785+677847143+675275985+675093365+677107751
3188+679390715+679711971+678384972+678132291+680242444+682703124+682908701
3178+680539033+677014138+673887023+672389812+673078163+675302806+677644761
3168+678852293+678288238+676245992+673750541+671826649+671214153+672300434
3158+674267046+675109785+674034872+672588702+672089136+671347366+668530585
3148+664396537+661608063+661705614+663881592+665947093+666253192+664856058
3138+662914482+661310137+660166945+659329630+658569063+657567703+656391004
3128+655661790+655640318+655610080+654841340+653826607+653860114+655295511
3118+656732394+656493013+654534647+652124041+650105496+648459098+647039155
3108+645814758+644771272+644126087+644355884+645538006+646813593+647076080
3098+646290327+645480650+645157760+644632933+643266929+641430631+639814026
3088+638683985+638114507+638249057+639038897+640000658+640429716+639876658
3078+638498394+636922652+635738004+635135613+634973870+635051733+635232197
3068+635240221+634542731+632745142+630073981+627494650+626241352+626847681
3058+628559384+629955330+630079924+628837920+626802880+624841988+623409786
3048+622252330+621119986+620331781+620351841+621222886+622303631+622246721
3038+620167104+617239325+615801328+616711638+618851732+620988705+622514186
3028+622656871+620827557+617632796+614375218+611980363+610911616+611129118
3018+611821221+612089467+611822373+611334100+610642591+609534616+607937551
3008+606167377+604980760+604969392+605737798+606153558+605452613+603841395
2998+602231514+601360951+600883154+599623356+597053534+594008034+591800182
2988+591182746+591956352+593099097+593629422+593574814+593566344+593557986
2978+592846343+591455375+590386405+589988959+589251907+587613162+586164800
2968+585811449+585697739+584755592+583534762+583298278+584182734+585035242
2958+584575127+582468133+579638201+577560368+577008720+577434993+577634366
2948+577093083+576486420+576566177+576836540+576025117+573863514+571514984
2938+569997601+569151408+568512389+568101606+567756316+566791807+565117697
2928+563657188+563002604+562511656+561324519+559581166+558095136+557329442
2918+557050238+556800455+556551118+556661188+557110604+557234789+556547738
2908+555410788+554422020+553524043+552309862+550877920+549774291+549337394
2898+549464663+549657795+549136498+547457410+545185330+543426151+542694894
2888+542652805+542765289+542744189+542362642+541351735+539818973+538452411
2878+537847420+537827694+537731555+537095248+535838978+534163940+532502795
2868+531275946+530543835+529993450+529282179+528493490+528184791+528702485
2858+529580217+529923835+529359855+528317037+527353680+526519671+525566083
2848+524540911+523622650+522479050+520692308+518744492+517518535+516934049
2838+516090679+514670513+513266172+512359316+511732704+510923882+509822593
2828+508698459+507782279+506982818+506107278+505233075+504591864+504120494
2818+503500048+502688068+502003283+501559922+501014144+500084183+498970041
2808+498059842+497465177+496950381+496199881+495045805+493496364+491797811
2798+490467060+489831050+489532380+488973080+488079523+487129762+486198240
2788+485341385+484912437+485121283+485528870+485342908+484169738+482394326
2778+480756844+479531482+478367079+477026669+475809591+475014216+474449604
2768+473698844+472574412+471229471+470011241+469193726+468761509+468458196
2758+467945889+466942225+465515707+464237817+463620492+463397382+462783846
2748+461471483+459951129+458825657+458176088+457672287+457077103+456452051
2738+455894832+455335569+454668578+453806114+452626220+451231092+450100828
2728+449546618+449208497+448513756+447394562+446187217+445100044+444115587
2718+443219875+442442740+441714863+440900802+440043725+439392595+439050574
2708+438780100+438299480+437603884+436919322+436464816+436202255+435772824
2698+434863182+433592499+432298450+431111907+430025813+429159782+428663114
2688+428458206+428211024+427567621+426493525+425362853+424592330+424226088
2678+423922255+423246534+422036142+420614601+419502317+418823364+418225096
2668+417429721+416595118+416054206+415910592+415929166+415704533+414989175
2658+413978119+413191771+412905471+412743581+412083647+410872735+409726201
2648+409154308+409011623+408789292+408170482+407216968+406223966+405471905
2638+405018143+404724377+404487485+404306017+404084466+403577991+402673661
2628+401573859+400542706+399606318+398685345+397878678+397364698+397121082
2618+396967550+396777984+396456468+395873988+395049824+394246202+393675386
2608+393253274+392820055+392412505+392093218+391721218+391134689+390355808
2598+389464740+388547854+387805638+387340360+386911152+386314965+385784603
2588+385573232+385483779+385217651+384828081+384486988+384127322+383601195
2578+382991263+382556186+382402319+382321857+382025193+381461770+380786866
2568+380106390+379432229+378835707+378470431+378392606+378422584+378264260
2558+377791738+377152199+376554302+376037203+375501603+374910468+374372380
2548+373997148+373718390+373374326+372969339+372684934+372586381+372502129
2538+372243914+371777744+371175278+370593393+370253600+370205271+370190189
2528+369957903+369587760+369319106+369225605+369160596+368896920+368341261
2518+367703245+367317797+367238487+367194058+366952484+366545714+366162979
2508+365938977+365825230+365667574+365445800+365326295+365396208+365467532
2498+365260246+364719335+364057173+363519270+363181818+362935044+362599190
2488+362121133+361682453+361484751+361431258+361200012+360634137+359921825
2478+359412081+359303535+359456584+359546965+359436970+359249967+359083953
2468+358911438+358764406+358736471+358792862+358790893+358647873+358335385
2458+357820105+357188701+356696900+356499161+356444516+356307775+356082398
2448+355894541+355782057+355687404+355554117+355368897+355182117+355046119
2438+354890692+354601792+354259028+354082724+354090562+354042641+353814404
2428+353599763+353595788+353672945+353564918+353286012+353119292+353205215
2418+353375352+353429254+353350500+353172376+352866202+352495094+352282942
2408+352384914+352695322+352936598+352884368+352559286+352260542+352299288
2398+352648738+352976086+353034706+352877458+352657245+352383093+351981375
2388+351500458+351057914+350558906+349636745+347963973+345530187+342570349
2378+339334911+336014478+332812584+329943685+327484007+325270844+323040220
2368+320739870+318721622+317469401+317006018+316850554+316826296+317596447
2358+320090710+324630078+330821380+338051746+345606155+352385062+357188070
2348+359402645+359341240+358105959+356801694+355606719+353997952+351608930
2338+348483858+344846479+340937920+337128843+333984305+331937193+330920007
2328+330444254+329970357+329227175+328360811+327772573+327749392+328300742
2318+329263172+330404468+331514858+332503030+333382285+334201361+335024337
2308+335892113+336749710+337468523+337988669+338408961+338875762+339421874
2298+340007846+340627326+341221544+341615981+341713012+341633775+341573150
2288+341635112+341813646+342023420+342200653+342402181+342690672+342968798
2278+343091052+343072330+343032730+343006243+342925744+342749477+342507941
2268+342251137+342029661+341920074+341978545+342154329+342323947+342435279
2258+342558685+342765339+342992573+343088006+342988450+342812740+342782613
2248+343068243+343638576+344232535+344573701+344633138+344590567+344586815
2238+344631727+344716461+344914571+345339395+345991565+346683631+347190812
2228+347499660+347842796+348442884+349277153+350194261+351188861+352321502
2218+353412463+354195691+354835861+355891532+357626156+359683818+361599873
2208+363344972+365147911+367055273+368969358+370913162+372969264+375126186
2198+377360636+379689441+382085893+384509797+386962639+389385132+391614269
2188+393527538+395182553+396791691+398469516+399997486+401042866+401605509
2178+402000689+402469348+402995623+403401501+403533637+403410268+403151347
2168+402803605+402334092+401680919+400735764+399411254+397723325+395743822
2158+393548638+391211065+388801017+386379751+383881105+381088470+377950062
2148+374610350+371048938+367509147+365263590+365715903+368747808+372996085
2138+377452874+381835850+385973129+389813708+393605474+397559874+401642286
2128+405728449+409781811+413954270+418468675+423365296+428528193+433839310
2118+439173274+444481345+449826342+455091544+459964948+464403422+468707236
2108+473120005+477757778+482853772+488810224+496099284+505118548+515827003
2098+527342461+538144566+546963120+553328942+557282042+559183311+559732766
2088+559286174+557233155+552522088+544460202+533096122+519410146+504791163
2078+490141384+475935188+462638337+450496342+439556492+430127078+422560894
2068+416723836+412112103+408163163+404456875+401037294+398200788+395812211
2058+393463234+391163107+389183196+387587802+386371913+385562087+385011814
2048+384496647+383958707+383490123+383195354+383051703+382981419+383211699
2038+384271790+386565305+390406998+396304942+404625898+415257643+427973871
2028+442583456+458338201+473666414+486850929+497000271+504393420+509708103
2018+512995363+513912880+512738894+510341105+507246866+503308885+498125222
2008+491449623+483318233+474088452+464399299+454878649+445786650+437025193
1998+428566084+420841315+414479430+409425265+404627867+399168306+393388641
1988+388216494+383984302+380534483+377789100+375683554+373983849+372457217
1978+371007332+369650949+368480900+367575901+366989670+366842378+367126337
1968+367370399+366918903+365697664+364300938+363240363+362528832+362021725
1958+361737097+361673797+361620193+361334413+360804609+360288327+360113917
1948+360477261+361516587+363281263+365110354+365552006+363982320+361656969
1938+360083456+359420328+359044873+358690296+358546459+358765149+359184921
1928+359588459+360221943+361499833+363077990+364203759+364994861+365880803
1918+366068809+364483334+361916856+360263103+360272019+361173265+361807790
1908+361697015+361177649+360717237+360381197+360055669+359842663+360018298
1898+360721472+361635089+362112849+362120761+362571589+363824255+364630960
1888+363824106+362153303+360993321+360578861+360433761+360337028+360317117
1878+360407126+360636552+361072855+362172397+364904852+369563094+374123526
1868+375157799+371943609+367471033+364559042+363646465+363749439+363922511
1858+363794388+363472501+363266478+363381340+363907764+364991778+366890930
1848+370035393+374566998+378890500+379723543+376250172+371806645+369327799
1838+368878940+369075267+369293066+370606023+374296672+379334604+382479921
1828+382407891+381060126+379609127+377328280+374427359+372503243+372254129
1818+372838727+373314666+373905282+375528536+378176702+380299819+380458367
1808+379177245+378238888+378967916+381639040+385381028+388321400+388992961
1798+388131091+388215566+391180121+396398926+399922892+397996325+392607568
1788+388694180+388245878+389945917+392064800+394200659+396104417+397027581
1778+397371794+399256050+404537857+412435327+418563551+418787665+414475864
1768+409312075+405366368+404131236+406424788+410438253+412892507+413385869
1758+413817305+414526757+415388738+418216663+424636982+432707598+437647459
1748+437420262+434701217+432748089+432932232+434999515+437525502+439019556
1738+440548268+445399308+454175810+460891789+459476192+453576094+448472633
1728+445372785+444494867+445920234+448886313+453384224+461359147+474232251
1718+488786338+496787376+494686064+488221466+483298433+482216276+485542429
1708+492946240+502398017+510840224+518212273+527881738+540641206+551011987
1698+554764673+553891845+549742158+544255331+542024002+545203235+552185973
1688+561406876+574158915+590450597+602180844+602108368+596907729+594765035
1678+598148433+606094158+615289094+622850487+629909638+638034788+644100306
1668+644440284+642714464+644832938+651244824+657198006+659017439+659241293
1658+662833797+672882988+689944227+708201332+713713197+708222135+706185016
1648+709784058+711373545+705155423+696181220+690957623+691120777+696552328
1638+706355599+715667403+715114790+703754796+692301487+687253303+687738381
1628+690035388+691807940+693265402+693687700+691130138+687338818+686669560
1618+689654621+691099008+686802401+680470235+676957301+676767475+677721212
1608+677664821+676262263+674628793+673677360+673347263+673164866+673020955
1598+673154985+673580552+673911169+673808789+673262268+672358013+671184212
1588+670038123+669421096+669631204+670374238+671218536+672875484+677263475
1578+685035347+692308323+692978992+688956760+687540828+690690529+694201754
1568+694049150+691891968+690938157+692817992+699934129+715278092+734956553
1558+741603214+731175783+719032265+711646805+708399777+707813211+708675786
1548+711246722+717469524+728530923+743204960+758640901+769144263+766515970
1538+754755002+747093087+747614348+751745646+753406531+752881408+754948023
1528+761051878+768670700+775992711+784050028+792412999+797221505+797341938
1518+795796806+793375428+789420954+786230911+787511698+794962389+807833710
1508+821752752+825797941+814695829+801155176+794717287+795232900+799728397
1498+804398415+805239297+802030902+799711829+802432397+809317771+814873099
1488+814179324+808567605+802771261+799857672+800198393+802562043+805906028
1478+810388821+816776412+825181285+833146996+835053057+828880256+821067298
1468+818049546+820239493+823283990+823212592+822086637+824983658+833738688
1458+844172137+846993970+839831993+830806377+825182325+823290603+823612081
1448+823915729+822849657+821121979+820001894+819951299+821470353+825338941
1438+830663878+833814619+832733167+830778590+831231424+833303017+834481424
1428+834195385+834087210+835276465+837533278+840684464+844686785+847481426
1418+845694015+840042696+834741757+831804914+830516177+829786740+829459169
1408+829939715+831021092+831411072+830353841+829288512+830160820+833103681
1398+836850870+840185270+841785010+840376954+836978361+834626673+834784849
1388+835671571+834548365+831840056+830776733+833051005+837710770+843397008
1378+849626943+855948708+861117326+863819468+864353656+864715625+866350730
1368+868936822+871772846+874896914+877716518+878238299+875527835+871311542
1358+867642364+864965928+862788835+860909074+859631110+859086299+858783171
1348+858090139+857122063+856886099+858377887+861494303+864775582+866416407
1338+865880585+864282555+863075840+862829921+863118486+863236617+863054592
1328+863187359+864185227+865732216+867067240+868207682+870061811+872933868
1318+875665134+876974228+876994436+876705500+876651264+876948002+877792672
1308+879194858+880694224+881849303+882537060+882740334+882714850+883160849
1298+884359019+885354138+885011262+883614425+882329032+881310732+879312766
1288+875344919+870070800+865134283+861460276+858632128+855807249+852842099
1278+850334537+848760653+847967618+847582320+847592424+848191472+849228048
1268+850216555+850815529+851042057+851079057+851023186+850827342+850440112
1258+850053996+850256378+851688357+854207880+856628293+857925722+858374915
1248+858796693+859365131+859895827+860593911+861873955+863950898+866697618
1238+869415808+871227291+872285264+873918289+877039906+880950917+884037912
1228+885388017+885522418+885676657+886652979+888453541+890711988+893157512
1218+895736323+898497976+901357998+903943124+905771472+906632561+906944530
1208+907743583+909988954+913663406+917581996+920321806+921612623+922636421
1198+924608532+927414762+930155836+932491253+934650441+936726120+938887909
1188+941671108+945151351+948471635+950940266+952900340+954860861+956478209
1178+957146426+957159056+957520877+959056500+962058129+966260825+970771776
1168+974350239+976126357+976199390+975752797+976326807+978486218+981065846
1158+982256809+981883398+981749517+983394800+986509210+989751410+992026648
1148+992643452+991595880+990202163+990116797+991678051+994339925+997817642
1138+1001777763+1005132818+1006562494+1006000371+1005044926+1005298869
1130+1006775798+1008725917+1011467064+1015492714+1019014935+1019207064
1121+1016333892+1014211258+1015849483+1020336362+1024346038+1025877202
1113+1025898376+1026617784+1029010261+1031982692+1033613115+1033131901
1104+1031478668+1030129677+1029878037+1030577756+1031760101+1032944898
1095+1033541271+1033270685+1032445704+1031853119+1032594816+1035414494
1087+1039890823+1044489962+1047459644+1048112705+1047908540+1049316002
1078+1052869427+1056353236+1057555641+1056701238+1055677515+1056067346
1070+1057800818+1058980340+1057660324+1054604459+1052977973+1054438185
1061+1057000948+1057725259+1056448409+1055321786+1055556413+1056730065
1053+1058709531+1061971716+1065841567+1068244743+1067800825+1065373132
1044+1063489433+1064193238+1066991891+1069229832+1068648987+1065445793
1035+1061628395+1059456428+1060165805+1062888453+1065296384+1065869503
1027+1065407753+1065762962+1067679797+1070505716+1073001836+1073741823
1018+1071734496+1067385511+1061902101+1056212446+1051493912+1049236877
1010+1049866312+1052437619+1055817786+1059195872+1061745336+1062707394
1001+1061742959+1059184356+1056164302+1053579101+1050860911+1047052354
993+1042810280+1040206283+1040730069+1043609630+1045887023+1045106024
984+1042087678+1039437246+1037661500+1035079345+1030950201+1026389844
975+1022666504+1020211470+1018747618+1017459698+1015496726+1012686483
967+1009354683+1005757052+1002278666+999400740+996852464+993489906+988660226
957+983115373+978083905+974272079+971923957+970929358+970568354+969844266
947+968537549+967390123+966901702+966477992+965021347+962256127+959104198
937+956885870+956391208+957255790+958320896+958938963+959462750+960114845
927+960214476+959289492+958138945+957838641+958263985+958340287+957368199
917+955563329+953737358+952735329+952875228+953999251+955828788+957543463
907+957445690+954558254+950363358+947501702+946992775+947727710+948369033
897+948532484+948202090+947272128+945919942+944632617+943716697+943357922
887+943799983+944676303+945019104+944901345+945721944+947647619+948436642
877+946290084+942327586+939128776+938094725+938544141+938717622+937758462
867+936779911+937240620+938581438+939000987+938229350+937895687+939173799
857+941356242+943141721+944126142+944414336+943929332+942910215+942192814
847+942052766+941557138+940031768+938494437+938559075+940352281+942373278
837+943332513+943405694+943263195+942850927+941853653+940571454+939765120
827+939869878+940625616+941513972+942237317+942560727+942089022+940693968
817+939162060+938870895+940453100+943043205+945229585+946692991+948452690
807+951375045+954692878+956591584+956438980+955339104+954360329+953376354
797+951865473+949988758+948518888+948344366+950082668+953260750+955785548
787+955660508+953588543+952128554+952462589+953613432+954228751+953775323
777+952443569+950828896+949468018+948235300+946518322+944157123+942304480
767+942864003+946259697+950355334+952562665+952753829+952734809+953216841
757+953086897+951550904+950048046+951170880+955273129+959226860+959922864
747+957906845+955832800+954894071+954141899+952283684+949574187+947663073
737+947933733+950606677+954655135+958119108+959366685+958631898+957728906
727+957786337+957611667+954905141+949510738+944473847+943300194+946896339
717+953026049+958101277+960067370+959691432+958752406+958050087+957630910
707+957312700+956115273+952824558+947759880+942692676+939172833+938073180
697+939566453+942426251+944073317+942218669+936513783+928937903+922622156
687+919221484+917553615+915870515+914329172+913652485+913045116+911050865
677+907838607+905151175+903539400+900897883+894571735+884831912+877395040
667+879111127+886797782+892612923+894603459+894995073+895484014+896356174
657+898252874+901332588+903072524+899958485+891505914+881387405+874907167
647+875336598+881016891+885663952+884543273+879819316+876815309+877639102
637+879405636+878330054+874477662+869668340+865059244+863391152+867819411
627+876286174+881263108+877786059+868545951+859460081+854458926+853845019
617+854324748+851756561+846413868+843236232+845222459+849895300+852500115
607+850687071+845738444+840090989+835123564+832103807+832607384
##END=
