##TITLE=<SNM>
##JCAMP-DX=4.24
##DATA TYPE=INFRARED SPECTRUM
##DATE=3/5/2025
##SAMPLING PROCEDURE=Instrument type and / or accessory
##ORIGIN=Admin
##XUNITS=1/CM
##YUNITS=ABSORBANCE
##RESOLUTION=4
##FIRSTX=4497.3318
##LASTX=599.83466
##DELTAX=-1.4281778
##MAXY=1.9152598
##MINY=0.39510143
##XFACTOR=1
##YFACTOR=1.7837247e-09
##NPOINTS=2730
##FIRSTY=0.41508973
##XYDATA=(X++(Y..Y))
4497+232709521+232869065+233152815+233405874+233453307+233172113+232503395
4487+231553550+230915659+231565563+233745596+236156464+237000415+235798130
4477+233712297+232189270+231636104+231439569+231094968+230900187+231316532
4467+232129071+232698611+232734366+232567771+232913842+234128508+235446645
4457+235677315+234836238+233935013+233293864+232601922+232178911+232498149
4447+232925254+232448894+231213778+230185189+229861991+230071575+230443911
4437+230620948+230427454+230037240+229726139+229542636+229511509+229842476
4427+230433251+230693110+230446334+230243332+230168498+229397544+227679469
4417+226062327+225363485+225149557+224947959+225288099+226650479+228180673
4407+228349758+226730627+224460222+222929626+222617155+223189417+224093065
4397+224848046+225181569+225138847+224964483+224828882+224762167+224790353
4387+224966689+225233882+225373693+225272594+225151378+225182822+224981091
4377+224097142+222940369+222418865+222732406+223226893+223338469+223127348
4367+222981972+223167079+223607099+223995909+224062089+223624642+222680277
4357+221731084+221503589+222007917+222578275+223051895+223888326+224942612
4347+225333394+224784739+223992266+223486919+223132661+222851116+222985464
4337+223670605+224421526+224708351+224580853+224321880+223853992+223075987
4327+222483993+222714111+223568470+224182586+224153147+223901810+223910431
4317+224192210+224675319+225490549+226410319+226585552+225571214+224158443
4307+223411850+223393972+223600783+224017211+224876549+225906024+226598417
4297+226854299+226842704+226642493+226425206+226634740+227540359+228731383
4287+229440133+229414921+229065090+228683264+228111853+227323090+226688957
4277+226450001+226455364+226586805+226956301+227630749+228488817+229296812
4267+229718921+229463591+228632990+227773735+227480511+228016435+229148763
4257+230216850+230684154+230724654+230857599+231064460+230878935+230277634
4247+229819352+229885816+230297917+230673194+230823247+230809129+230756232
4237+230591408+230039763+229076368+228225367+228009985+228295139+228680875
4227+229275075+230389209+231692978+232458585+232549843+232462127+232438719
4217+232215167+231712092+231346590+231430914+231802682+232306560+233058533
4207+233947344+234504386+234555545+234392025+234165649+233777006+233312159
4197+232968226+232659932+232206262+231806224+231966453+232927392+234288603
4187+235321503+235663765+235498540+235041395+234337440+233703325+233747450
4177+234629712+235778966+236631771+237247842+237921422+238532931+238610189
4167+237901706+236695094+235580960+234990202+235013676+235558254+236456572
4157+237384630+237898799+237734126+237039628+236306769+236077169+236602382
4147+237600496+238372953+238451163+238127280+237974302+237991461+237824666
4137+237620128+237835526+238350080+238535204+238158708+237721278+237889159
4127+238824251+240101922+241151229+241609510+241371656+240685847+240147467
4117+240177675+240594571+240944502+241004567+240825074+240584129+240451852
4107+240435746+240462278+240605398+240950333+241281584+241234100+240754366
4097+240213781+240054622+240367945+240823904+241033505+240949013+240858256
4087+241012804+241368448+241723074+241965890+242067140+241990618+241863588
4077+242022079+242574743+243178417+243503520+243556885+243371393+242892093
4067+242343873+242167722+242490636+243115779+243933865+244854655+245523005
4057+245594749+245113628+244373568+243684299+243294971+243250361+243355387
4047+243412862+243369840+243277278+243337242+243870125+244977158+246198122
4037+246653513+245852552+244418980+243591654+243908386+244796027+245453534
4027+245647713+245608951+245569554+245550172+245531760+245740108+246476025
4017+247627618+248636743+249000842+248656809+247944417+247315314+247010929
4007+246976527+247072314+247267245+247614101+248116040+248607053+248812460
3997+248634688+248300797+248112599+248125664+248165880+248089809+247987039
3987+248155805+248774416+249520809+249723943+249086436+248154686+247883032
3977+248706966+250164047+251400650+251847687+251396155+250301169+249177194
3967+248783388+249445055+250762925+252055366+252970375+253497510+253562888
3957+252994551+251925612+250912444+250478523+250700905+251296225+251915638
3947+252417009+253054366+254190019+255594687+256360495+255945620+254890933
3937+254109504+254056640+254681633+255572265+256042326+255677392+254880190
3927+254389963+254389345+254390281+254029958+253801126+254646747+256737141
3917+258805247+259240154+257965825+256331373+255312558+254894860+255127300
3907+256692648+259895372+263598063+265954815+266266735+264999540+262645478
3897+260047765+258694758+259492895+261547902+262521906+261311952+259840152
3887+260128213+261711021+263142204+264503866+266151818+266592589+264777091
3878+262818371+263123625+265380246+267963591+270113198+271281031+270580669
3868+268660545+267179371+266258414+264950151+263398754+262629889+263095422
3858+265036498+269141282+275139106+279039803+276725021+271211543+266949454
3848+265392493+266248507+268488921+271048925+273588127+276339954+278873576
3838+279715671+278327628+276145340+274420198+273143913+272213717+272082426
3828+272853697+274166755+276434738+280321768+284148649+284561568+282065105
3818+280047457+278766177+276322077+273198164+271710191+273043282+276619060
3808+280305060+282147375+283094680+285066482+287235035+287326561+285998316
3798+285181432+284350681+282380584+280252196+279699849+281028145+283338649
3788+285681333+287487058+288632853+289781723+291917295+294904002+297284245
3778+298317764+299150152+301313860+305553694+311653454+318226715+323652544
3768+327998674+332337085+336761408+341236088+346889813+354602388+363279677
3758+370919605+377297585+384163603+393429545+405406247+417308432+426065117
3748+433416400+442721940+453359235+460829645+464608040+469284585+477718006
3738+489596800+503155607+516376681+527040676+533321181+535443888+535713253
3728+536355071+538042604+540534757+543901068+548113234+552278116+555844320
3718+559836810+565886078+574782576+585677139+595616545+601742402+604965826
3708+607830766+611822688+617937919+626066521+633776221+638398165+640582425
3698+642848018+646219609+649758278+652080946+653219624+654823383+657966142
3688+661515438+664010130+665970704+668627864+671273730+671920794+670921660
3678+670951334+672815937+674561714+675612976+677086280+678203973+677490745
3668+676389693+676865000+678453789+679742437+680322603+681329355+684581651
3658+690872315+698492194+704658284+708614919+711284242+713018056+712846299
3648+711170428+709570612+708338436+708356949+710972673+715282580+718590347
3638+720107693+721101346+722128348+723701766+727226133+732073300+734306748
3628+732838657+732213647+734576814+738540133+743102663+747618612+750253584
3618+750479008+751370809+755861429+763099900+769101918+770551497+767488869
3608+762417749+758630399+758118869+759496470+759361203+756419540+753521252
3598+753889828+756885290+759374369+759865582+759667693+759963757+760009002
3588+758562631+756545652+756808568+760619576+766160723+770542007+772798511
3578+774288523+776079879+776946084+774593609+769030341+763706731+762406989
3568+765575010+770310034+774432679+778082623+781256459+783129550+782677634
3558+779922165+777220628+777544227+780814367+783579795+783609267+782182545
3548+780798662+779404620+777946286+777256250+777845705+778807613+778468776
3538+775836478+772239063+770883717+773190278+776989859+779636192+781487897
3528+783839035+784931198+781616481+774191884+766997322+763902013+765377122
3518+769079930+772043046+773330357+773962117+774268072+773507461+772192281
3508+772192013+773935785+775250297+773682092+769728932+766608027+766672320
3498+769392168+772621808+774869557+776169901+777610324+779850321+781758097
3488+781293884+778197507+774169028+770582039+768167879+767512327+767839802
3478+766837728+763931219+761715749+762141133+764022578+765592654+766904760
3468+768730802+771195286+774348404+778333776+781941082+782500797+779003229
3458+774695060+774442837+779362115+785318420+787922249+786499002+782645221
3448+778431016+775508401+773744379+771548826+768618391+766894334+767771299
3438+770475977+773879179+777480002+779993474+779636927+776742715+773951491
3428+773329822+774964124+777860475+780592018+781892429+782432161+784154079
3418+786303720+785179544+779845575+774498775+772481729+772249021+770534321
3408+767169347+764899810+765263107+766735876+767516604+768350529+770662704
3398+773192550+773640790+773069914+774451325+777509876+778755284+776530524
3388+773197629+771821031+772727335+774301956+775512144+776221428+776280307
3378+775748260+775707760+777127599+779036378+779704494+779323888+779358573
3368+779995145+780262004+779581457+778239343+777259324+777751138+779297489
3358+780568560+781117315+781025956+780236808+779477667+780120320+781715258
3348+781701558+779034440+776403878+776863680+779690259+781462501+779899509
3338+775712839+771985771+771246546+773211397+775888874+777835346+778253979
3328+776003490+771205779+767065089+766732802+769391700+771502778+771347462
3318+770135336+769426586+770558915+774550369+779848783+782513763+781465107
3308+780057766+780215021+779586603+776044992+771903301+770889130+773532523
3298+777623222+781049748+782800070+782758500+781708374+780728154+780437570
3288+781046407+782371812+783847054+785223854+786817922+788243308+787879142
3278+784858485+780782890+778304838+778639531+780789506+782861287+784034183
3268+784791920+785368277+784940420+782761307+779686583+777927373+778733764
3258+781063984+783211619+785279792+788587090+792218455+792867925+788984338
3248+783059777+778902113+778176321+779741853+781343139+781884275+781345077
3238+779067053+774693456+770941994+771867345+777350014+782167842+782184617
3228+779372340+778073734+778798256+778445051+775351280+771616192+770153113
3218+771528509+773998206+775498911+775273087+773969602+772892476+772952290
3208+773777060+774041713+772931439+770808130+768829846+768579361+771058147
3198+775077404+777722200+777575037+776158539+775369993+775323478+775238602
3188+774711634+773522231+771644929+769863732+769300207+770078128+771051331
3178+771122439+770157056+768779321+767936841+767939047+767625606+765699451
3168+763246194+763193865+766570000+770560452+771132197+767387485+762239910
3158+758827418+757927931+758739668+760322175+761801160+762508373+762591645
3148+762547737+762242450+761244319+759449488+756901664+753827073+751037720
3138+749874916+751353366+754701031+757188706+756979991+755366140+754363464
3128+753978581+753158890+751418861+749080956+746892887+745301158+744116032
3118+743215809+742944339+743368453+743874569+743866148+743555515+743779067
3108+744774591+745326487+744173574+742309973+742066438+743688777+744402940
3098+741619134+736450106+732441275+731304536+731568788+731221999+730195732
3088+729428771+729022368+728470472+727634876+726816723+726482498+727085252
3078+728662546+730663420+732438803+733608891+733797557+732557295+729925130
3068+726614089+723562823+721472462+720779885+721366935+722098006+721929992
3058+721410910+721641747+722369744+722698756+722697954+722583605+721576318
3048+719369537+717471584+717280112+717942347+717678362+716371201+715370932
3038+715325486+715461288+714700877+712823910+710622341+709113082+708612312
3028+708626080+708490077+707783466+706356610+704495950+702840997+701729386
3018+700992033+700712609+701496277+703369836+705000195+704972660+703709408
3008+702851757+702827096+702371304+700749901+698888038+697646907+696767870
2998+695903470+695198797+694528074+693471933+692297567+691511293+690413182
2988+687789905+684220025+682116298+682943941+685445116+687140836+686948762
2978+685647215+684334374+683463825+682956038+682458476+681825781+681509600
2968+681838813+682237531+682119907+681977221+682496704+683185738+682909122
2958+681370590+679350002+677883582+677451248+677548154+677224755+676097973
2948+674294989+671787531+668691555+665848669+664161771+663497799+662986871
2938+662266225+661749616+661761178+661857884+661291218+660071540+659129414
2928+659285199+660251384+660713391+659384778+656205128+652525109+649969867
2918+649274417+650024268+650949887+650726268+649224761+647622539+646923613
2908+646995390+647207848+647197423+646687163+645382943+643557035+642044835
2898+641189056+640408796+639085529+637469406+636429505+636314421+636420349
2888+635965827+635270978+635176679+635519659+635176077+633635541+631566766
2878+629730099+628302708+627214689+626445189+626005637+625866026+625883268
2868+625791241+625286595+624122187+622287925+620279233+619020458+619182325
2858+620431475+621431745+620864812+618601357+615701732+613402656+612451507
2848+612972393+614219740+614778452+613832116+612032072+610590112+609894060
2838+609446288+608715016+607536640+606030188+604644968+604048829+604473812
2828+605279601+605492995+604650916+602939624+600771271+598538091+596679836
2818+595606921+595292010+595139768+594617411+593743988+592650890+591291266
2808+589998140+589479126+589676814+589504054+588314584+586824104+586069174
2798+586199830+586625681+586713899+586030010+584405533+582127643+579850554
2788+578091612+576826488+575642365+574292566+572976116+571952723+571131562
2778+570372354+569955926+570139914+570395478+569803149+568156484+566119989
2768+564439641+563378087+562675352+561838486+560641130+559294605+558077333
2758+557108174+556498368+556242236+555931302+555097009+553857883+552737316
2748+551868338+550889053+549589478+548163524+546859739+545802228+545044691
2738+544525810+544126290+543816292+543499810+542905443+541953226+540889165
2728+539846291+538800943+538007518+537716499+537453116+536369474+534349253
2718+532109724+530300758+529036302+528172336+527574093+527074459+526462381
2708+525597145+524467824+523187630+522006213+521248810+521051088+521139874
2698+521013429+520360183+519237444+517887845+516490095+515136319+513961485
2688+513130734+512709661+512622045+512622346+512297945+511400362+510185229
2678+509063460+508072580+507100346+506283663+505705503+505046309+503951105
2668+502491468+501058363+500010543+499460886+499212071+498901171+498299452
2658+497484039+496717880+496146937+495663110+495169524+494835934+494802251
2648+494770172+494268901+493212693+491893670+490642247+489740421+489362755
2638+489337326+489213921+488749976+488103212+487453943+486718260+485818572
2628+484975223+484447620+484118408+483578074+482595281+481377173+480394848
2618+479984502+480028410+480022997+479598649+478941360+478502576+478358487
2608+478159195+477722317+477294394+477078060+476874424+476378332+475530171
2598+474458158+473346380+472423435+471846711+471555926+471317371+470935795
2588+470465768+470141668+470022039+469891283+469631174+469361408+469067984
2578+468575401+468041684+467883293+468022837+467825082+467005191+466046926
2568+465510568+465430537+465545989+465661240+465644499+465460645+465287484
2558+465304894+465436786+465465356+465168223+464387161+463361228+462753361
2548+462875830+463268867+463454525+463574388+463902598+464276388+464336536
2538+463973841+463343150+462670089+462171758+461999400+462105094+462214631
2528+462089689+461792723+461536457+461348593+461055035+460525795+459869107
2518+459453481+459612072+460172188+460484125+460121831+459385613+458942051
2508+459107426+459614679+459936373+459692437+458853600+457750677+456872542
2498+456518902+456639300+456980241+457245730+457164630+456643911+455911202
2488+455383900+455337920+455672546+455989495+455943081+455506269+454901175
2478+454389245+454157907+454269382+454633280+455042959+455247831+455058263
2468+454488122+453807208+453377113+453334273+453413603+453184504+452523605
2458+451765333+451358496+451461984+451850611+452148379+452169331+452018759
2448+451868421+451758316+451602231+451242944+450600457+449890404+449501377
2438+449567975+449859194+450059321+449950319+449463617+448805225+448368748
2428+448314815+448369850+448209120+447908478+447796234+447943431+448052233
2418+447877034+447560887+447457732+447723622+448180951+448566737+448806428
2408+448940326+448890837+448546353+448036795+447636106+447401794+447190004
2398+447007387+447043242+447332790+447642388+447736988+447581437+447263419
2388+446841310+446264453+445423911+444280388+442858043+441073938+438695165
2378+435577234+431928560+428280152+425148320+422669601+420545290+418351607
2368+415969927+413778250+412300201+411614441+411408766+411731062+413204232
2358+416200262+420238633+424691927+429833989+436248458+443165769+448638079
2348+451324111+451433648+450253234+448815684+447111544+444798801+441798794
2338+438061969+433655156+429085975+425047939+421963524+419963152+419014878
2328+418829453+418872192+418771176+418626419+418796673+419516851+420732051
2318+422071758+423037676+423487086+423850617+424652463+425924804+427260301
2308+428290244+428915421+429217867+429409507+429776513+430398014+430973769
2298+431186628+431145226+431231205+431643990+432272977+432874228+433270573
2288+433456799+433496898+433322334+432822667+432195753+431959837+432417534
2278+433210759+433641489+433434611+432916699+432454659+432118996+431925820
2268+431934240+431983796+431762483+431280460+430922877+430918633+431064493
2258+431068603+430905300+430753592+430785103+431042840+431386521+431597643
2248+431614451+431567969+431590358+431733177+432025399+432445970+432859191
2238+433079768+433024833+432797772+432583610+432449446+432358822+432379005
2228+432654017+433135372+433555643+433733817+433793932+434015579+434472874
2218+434903605+435023501+434866246+434699434+434751696+435102195+435659671
2208+436238199+436790597+437437661+438139560+438562571+438442943+437932482
2198+437471812+437408388+437762429+438288929+438747595+439141033+439671810
2188+440419923+441140636+441539554+441678430+441892593+442367365+443006944
2178+443640408+444163432+444554030+444904495+445377797+446054902+446894642
2168+447867009+448996899+450240368+451458409+452597755+453798520+455253244
2158+457046137+459169313+461597741+464298476+467204550+470179996+473004235
2148+475449506+477433136+479103861+480780266+482760355+485082688+487408430
2138+489245232+490489671+491694746+493578363+496323273+499543055+502792043
2128+505830712+508512967+510725463+512424591+513593510+514196532+514188847
2118+513539310+512309607+510695856+508872421+506814207+504402018+501662989
2108+498760824+495776690+492688232+489580326+486647284+483913970+481171833
2098+478290754+475427518+472868667+470769886+469017159+467283712+465318895
2088+463210456+461273708+459740623+458644517+457859813+457124330+456174352
2078+455042056+454121283+453733860+453696434+453534535+453077941+452595650
2068+452368355+452382524+452446482+452379850+452054748+451450022+450769040
2058+450353147+450308470+450317960+450035429+449568309+449302954+449339645
2048+449398724+449258010+449047356+449076261+449478120+450063666+450540543
2038+450832731+451072523+451325147+451505726+451587561+451717682+452050905
2028+452556921+453019196+453179191+452939465+452481100+452087596+451802592
2018+451398829+450728841+449910688+449112417+448388162+447764356+447240730
2008+446685024+445944797+445084673+444324530+443747104+443240186+442711949
1998+442243927+442051585+442302972+442865795+443255491+443016033+442140672
1988+440986021+439947624+439309816+439139095+439224004+439281379+439216753
1978+439089405+438927305+438693027+438372970+438058661+437929007+438056990
1968+438234595+438143804+437732856+437242846+436858798+436565574+436349307
1958+436274222+436289593+436210966+435979394+435749459+435672770+435744748
1948+435915870+436252435+436818532+437326687+437186741+436233822+435076298
1938+434360330+434125016+434067073+434024167+433999840+433971737+433894847
1928+433890503+434282371+435184866+436141327+436631738+436811214+437029319
1918+436937192+436031489+434782572+434176543+434497034+435158701+435408017
1908+434976585+434190845+433569143+433348933+433405439+433522060+433633135
1898+433822636+434136344+434487811+434884524+435546224+436434952+436907251
1888+436403975+435273418+434304860+433853612+433781367+433838675+433862935
1878+433797106+433677912+433664813+434140621+435574327+437909158+440009443
1868+440316568+438653796+436462988+435030518+434534426+434513943+434573657
1858+434598184+434597081+434557884+434475314+434485673+434834567+435717948
1848+437301190+439571763+441648590+441854666+439864920+437529855+436461751
1838+436631537+437108481+437420986+438136252+439924634+442228255+443550319
1828+443528398+443235842+443065555+442359445+441068057+440086968+439974256
1818+440451368+441048275+441730960+442739183+443957390+444777381+444810296
1808+444454918+444478477+445378565+447162737+449285377+450846665+451348504
1798+451326984+451961150+454091643+457333881+459740690+459570971+457860281
1788+456991703+457875752+459775676+461730502+463472369+464952524+466017319
1778+467072825+469228480+473226718+478234047+481732517+482013611+480366244
1768+478736387+477907708+478406038+480539873+483322777+485141166+486041890
1758+487233431+488884808+490642715+493097075+496910322+501177056+503917789
1748+504475934+503995681+503779180+504512658+506233005+508262315+509859625
1738+511679184+515378484+520966179+525146533+525124746+523056205+521527865
1728+520984724+521527698+523240527+525647503+528660809+533352492+540513504
1718+548483748+553337966+553603822+551932997+550877993+551422504+553946201
1708+558382453+563629842+568208211+572474010+578271723+585559917+591211001
1698+593594954+594226847+593608387+592269949+592509474+595730827+601216370
1688+607936494+616258105+625967944+632963615+634073221+632995694+633920043
1678+637984812+644307087+650622011+655362848+659859283+665671566+671149556
1668+673671516+674753521+677823032+683484610+689380298+693508423+696889504
1658+701847611+709994391+721703900+733617847+738042437+736421435+737282026
1648+742336706+747587068+749088174+748491167+749185815+752124804+757197728
1638+764185580+771016845+772910721+768804183+764066286+762433321+763573335
1628+765458055+766743763+767428252+767326201+765967647+764290573+763569660
1618+762746294+758965225+752125807+745667796+741409750+738747912+736630284
1608+734360547+731653130+728654126+725890971+723957865+723017209+722668214
1598+722455756+722272236+722135232+721905732+721358781+720269960+718468980
1588+716133815+713951160+712624284+712260252+712604502+713831798+716525850
1578+720531940+723782498+723820125+722072811+722080296+724869515+728613291
1568+731208833+733056194+735763143+740336100+747801263+759447549+773732483
1558+782769862+783869710+784249381+787697761+793579549+800456126+807502255
1548+814562686+822116469+830813006+840694802+850808037+857998923+857466743
1538+851195126+846520384+845857882+847111511+847966755+849052369+852212170
1528+857330072+862757070+867783680+873025889+877798538+879977919+879973374
1518+880460443+881866582+882525341+882156765+882861170+887042427+895507191
1508+906056102+911971907+908469192+901454407+897363374+897468166+900490561
1498+903567357+903801669+901744657+900918818+903364055+908140113+912420280
1488+913905480+912904810+911291226+910684194+911688607+913742077+915927873
1478+918047373+920477639+923177906+924944801+924047252+920962837+918892058
1468+920144417+924053200+927413296+927552172+925843553+925341648+927022999
1458+929474919+930161347+928527513+926681355+926511670+928730347+932387977
1448+934841033+934060105+930897832+927623281+925675004+925820029+928562065
1438+932928311+935606791+934617949+932752878+932757155+933664997+933366927
1428+932216086+932119915+933577180+935748073+938122735+940572918+942035662
1418+941016346+938054768+935094192+932978368+931397866+929936926+928659572
1408+927877976+927282640+925890001+923786675+922948807+924766561+927905110
1398+929799921+929820104+929175112+928376607+927149444+925696457+923975074
1388+920890793+915993235+911363338+909858021+912186102+916691826+921124570
1378+924324537+926590264+928684701+930741379+932458618+933978838+935660456
1368+937361189+938898451+940840244+943699771+946486919+947444215+946499282
1358+945307607+945127429+945976057+947392889+949164796+951108328+952627679
1348+953153243+953028535+953271134+954294795+955574421+956661772+957717512
1338+958941868+960193692+961066446+960938464+959515417+957680019+957065502
1328+958310977+960175848+960915073+960564607+961106077+963954242+967924110
1318+970391669+970416797+969386721+968602451+968112575+967828474+968130754
1308+969073214+970047486+970533552+970498198+969959869+968685857+966395870
1298+963355163+960712639+959514481+959313385+958687373+957264326+956180584
1288+956167017+956180383+954613849+951279016+947451433+944335073+942290024
1278+941214034+940557680+939250854+936758567+933858942+931717322+930738304
1268+930447319+929845032+928051471+925153784+922212522+920171751+919007209
1258+917775435+915505297+912419879+909977182+909350903+910192380+911042546
1248+910822736+909897586+909478284+910048558+910967761+911739667+912864978
1238+914879686+917079650+917935296+916971650+915469475+914831433+915148081
1228+915919185+917216321+919212048+921347854+922818017+923455925+923789482
1218+924489143+925711494+926878442+927443370+927725800+928517221+930079411
1208+931922294+933515561+934984254+936959664+939831287+943305665+946575203
1198+948944386+950536048+952147093+954174765+956009762+956951487+957303556
1188+957986108+959430875+961105275+962113231+962435894+963527121+966873182
1178+971715403+975412397+976334340+975184501+973640423+973065002+974075163
1168+976065343+977624525+978198075+978622523+979629141+981078453+983215061
1158+987187602+993133080+998641947+1000668684+999025761+996486025+995430018
1148+995891891+996812230+997873116+999473600+1001653649+1003955399+1006176616
1138+1008499150+1010705664+1012100441+1012573475+1012724314+1012686955
1130+1012080725+1011212582+1011109260+1012311629+1014596470+1017409882
1121+1019583582+1019894483+1018993993+1019313849+1021856995+1024926038
1113+1027138367+1029212888+1031596440+1032867979+1032180883+1031612546
1104+1033888432+1038096755+1039565180+1035868721+1031099279+1030558076
1095+1034323706+1039167999+1043624468+1047670858+1050006424+1049486207
1087+1047233712+1045341240+1045363629+1048517348+1055196037+1063220581
1078+1067779102+1065556615+1059270830+1054686378+1053969943+1055171442
1070+1056500056+1057882736+1059053092+1059505743+1060066995+1061603188
1061+1062655319+1061750485+1061032045+1063706180+1069101166+1073021244
1053+1072568660+1068831433+1065115392+1064168789+1066534496+1070545532
1044+1073611702+1073741823+1070733529+1066518456+1064005385+1064542779
1035+1066252400+1066370491+1064772947+1063093601+1061688064+1060143250
1027+1059118855+1059188827+1059935337+1061389661+1064226799+1067570587
1018+1069059664+1068234092+1066568781+1064561826+1062104626+1060396275
1010+1060766990+1062681250+1064387529+1065001645+1065383454+1066886031
1001+1069198339+1069972718+1067605674+1063769403+1061472198+1061614483
993+1062476477+1061862562+1059045407+1055213212+1051556050+1047767029
984+1043397508+1039296851+1036659005+1035296441+1034018352+1032375697
975+1030973034+1030074750+1028886082+1026435231+1022711170+1018794100
967+1015602086+1012756527+1009703189+1007166125+1005846868+1004804294
958+1002733181+999694546+996499057+993696003+991427803+989247821+986398854
948+982808992+979155305+976139325+974512776+975045224+977649186+980973527
938+983176232+982984959+980632284+978068889+977473954+979250005+981474029
928+981612905+979094889+975823546+973920715+973893581+975296244+977559164
918+979640369+980349052+979309352+977278872+975456439+974337009+973006324
908+970181550+966100073+962752676+961856263+963159547+964824992+964959457
898+963147785+960523239+958367450+957308903+957252029+957274418+956481794
888+955172495+954339238+954413889+955192010+956247349+956941128+957046455
878+956853913+956240666+955126047+954605696+955956430+958626623+960648882
868+960866285+959669264+958027811+956765227+956201101+955964918+955919740
858+957192549+960631238+964371472+965440512+964111831+963431151+964074874
848+963290537+959821573+956388965+955591329+956817623+958436019+960086293
838+961534468+961710703+960714845+960191620+960641063+961211738+961447855
828+960770248+958428868+955885923+956171896+959763162+963755619+965567158
818+965676160+966019474+967104487+968044340+968694545+970049825+972377037
808+974449420+974914234+973646237+972182958+972523866+974409655+975072893
798+973802222+973889772+976961021+979638564+978259961+973606940+969066530
788+966980581+967848256+970926656+974593576+976968840+977284553+976740209
778+977281478+979543129+982653073+985464815+986584245+983994051+977577075
768+971283470+969715733+972741871+976001385+977237837+978309082+980776908
758+983184051+983030138+980115542+977203152+977255548+980764210+986075055
748+991207058+994901780+996972225+997852465+997544906+996200653+994906659
738+994132481+993049206+992058093+993302164+997288940+1001568305+1003813582
728+1004372829+1004717213+1005287688+1005554279+1004572790+1002349100
720+1000426085+999564024+998400351+995755555+993038580+993172912+997789042
710+1005986881+1013891329+1015295529+1007069353+994559869+985666647+983105791
700+984967855+987679817+988059220+985436011+981519007+977949127+975745219
690+976579612+981860249+989415970+993457214+990763096+984876429+981130849
680+979929015+977543659+972912492+968964211+966964608+963836418+956867613
670+948987559+948250272+958614927+971423750+977649988+975739137+968041801
660+958947482+953133996+952103385+953296931+954485332+957054007+962584661
650+968317348+969991280+968289011+967347353+968736850+970954191+972764794
640+973975182+973612220+970394609+964710710+958734155+955037696+955750121
630+962659847+975604472+990651086+1000679845+1002087186+997898645+991151053
620+983270197+977355261+977323649+983094630+990896625+997530470+1000100949
610+997297294+994057963+997080425+1005453764+1011718164+1009322382+1001080568
600+999190635
##END=
