##TITLE=<SNM>
##JCAMP-DX=4.24
##DATA TYPE=INFRARED SPECTRUM
##DATE=3/5/2025
##SAMPLING PROCEDURE=Instrument type and / or accessory
##ORIGIN=Admin
##XUNITS=1/CM
##YUNITS=ABSORBANCE
##RESOLUTION=4
##FIRSTX=4497.3318
##LASTX=599.83466
##DELTAX=-1.4281778
##MAXY=1.7599688
##MINY=0.19670704
##XFACTOR=1
##YFACTOR=1.6390986e-09
##NPOINTS=2730
##FIRSTY=0.21857771
##XYDATA=(X++(Y..Y))
4497+133352385+132862122+132850258+133466696+134149236+134155472+133362804
4487+132328058+131692665+131728338+132302458+133015125+133399986+133207437
4477+132587635+131956088+131604127+131442160+131190565+130854995+130890005
4467+131644073+132647191+132942005+132382950+131931560+132254948+132810339
4457+132827912+132434123+132162819+132022807+131689501+131103236+130439961
4447+129955707+130022953+130716084+131336695+131060654+130092018+129434234
4437+129522026+129843432+129907770+129790149+129604455+129160293+128420052
4427+127796659+127677503+127971617+128325832+128459289+128117447+127121720
4417+125785778+124939163+125202995+126345879+127419007+127499081+126474900
4407+125170213+124528720+124710405+125145040+125380962+125523546+125769832
4397+125898880+125523137+124751014+124185823+124166513+124381417+124393617
4387+124242787+124276806+124526792+124511683+123797752+122662277+121854899
4377+121685033+121752343+121635114+121397109+121273625+121248498+121146814
4367+121005621+121176105+121892255+122727542+122830035+121977456+121003130
4357+120821999+121500439+122543393+123524011+124151858+124189577+123591612
4347+122546584+121362200+120419537+120046858+120257698+120730688+121120723
4337+121282844+121209888+120934274+120592604+120443474+120611405+120893419
4327+121024521+121027566+121113613+121371536+121659287+121688133+121245652
4317+120504466+120009276+120110323+120514021+120700979+120727252+121164951
4307+122200178+123313834+123965782+124098321+123921381+123664286+123493383
4297+123337798+122983810+122466265+122079031+122065912+122510920+123251179
4287+123822707+123913490+123740687+123553139+123135713+122289234+121392864
4277+121034676+121342381+121908918+122245970+122260525+122296380+122665886
4267+123239033+123633113+123666322+123381699+122759115+121829144+121022430
4257+120935965+121710506+122916891+123988401+124609785+124869198+125094848
4247+125412353+125604748+125506473+125203422+124801424+124405708+124289733
4237+124685804+125459818+126203186+126534246+126294315+125658967+125029874
4227+124697968+124705704+124947282+125167940+125116475+124953836+125173513
4217+125912699+126758077+127341442+127673175+127839251+127805869+127514873
4207+126954417+126317588+126103984+126640002+127496218+127881424+127599674
4197+127126066+126823269+126679812+126753650+127223149+127937471+128419234
4187+128405643+128077928+127798196+127805250+128070119+128375151+128594964
4177+128835369+129223012+129674575+129966052+129998371+129965480+130182529
4167+130706184+131213220+131316449+130959306+130478307+130264012+130365714
4157+130530126+130598636+130619728+130598864+130455134+130245321+130181756
4147+130370260+130630255+130626119+130200529+129527563+128908525+128568919
4137+128693739+129366878+130300267+130872641+130743193+130351014+130471461
4127+131245121+131961261+131851540+130841122+129550763+128811305+129036281
4117+129873242+130663556+131194456+131671246+132161073+132477452+132445687
4107+132075035+131650946+131655491+132297930+133110454+133309721+132618118
4097+131515598+130702429+130553599+131018107+131675065+131939042+131612954
4087+131142737+131017017+131191401+131374705+131508380+131683056+131910641
4077+132203801+132603190+132983897+133050925+132587953+131635246+130541790
4067+129909497+130190247+131121864+131838758+131754957+131070727+130335932
4057+129892524+129777058+129855914+130033372+130358559+130801713+131138746
4047+131332340+131646746+132060526+132087326+131523171+130850150+130645537
4037+130992571+131555135+131951124+132065571+132133609+132393859+132685446
4027+132683564+132469279+132463497+132791048+133131572+133273938+133392250
4017+133592044+133548198+132949469+132093545+131633246+131796112+132201883
4007+132416578+132368977+132245975+132261448+132519452+132926641+133276975
3997+133457633+133456296+133232347+132822439+132538725+132751747+133431287
3987+134139854+134498033+134468914+134210210+133837503+133412968+133114445
3977+133219028+133759574+134379231+134755647+134980951+135274792+135548861
3967+135581998+135499742+135736400+136490495+137446285+138090060+138113952
3957+137514695+136642616+136226591+136962522+138831773+140853300+141739470
3947+141209534+140413338+140483985+141131723+141252916+140522713+139576932
3937+139080878+139461794+140882328+142773480+143861381+143412818+142233616
3927+141724725+142288617+143120495+143524093+143928555+145047702+146572793
3917+147206677+145968255+143309835+140684097+139243717+139302754+140929011
3907+144537111+150211730+156428558+160541613+161367155+159683525+156245901
3897+151860814+148485372+147989991+150050445+151897542+151482362+150631056
3887+151991725+154899931+156586943+156765055+157108316+156994587+154916132
3878+152503862+152418196+154738110+157975386+161251117+163490666+163160096
3868+161285190+160608887+161420465+161431738+159384084+156821129+156007151
3858+158437667+164833999+173798121+178949958+174864158+166389317+159527141
3848+156064934+155905567+158206536+161767471+165838816+170149584+173581463
3838+174128545+171675156+168548519+166253169+164503084+162988148+162221880
3828+162477666+163565485+166194150+171393897+177267274+179220181+177043397
3818+174809903+173038290+169356133+164451228+161522522+162347064+166429863
3808+171175984+173946306+175765247+179156744+183027722+184045249+182756608
3798+181936048+181444748+180085815+178673353+178765191+180719517+184115123
3788+188625166+193827986+198987150+204003312+209987164+217685755+226014412
3778+233653838+241257428+250369608+261676936+274606220+286859928+295412080
3768+299708720+301463842+302150654+303569570+307933648+315410835+323414468
3758+329983603+336865943+347445295+363504998+383352332+401112502+412458485
3748+420845870+431323620+443743986+452929240+457635905+463044837+473068943
3738+488073936+505502827+520829245+530447852+534767747+537319865+541286444
3728+547646048+555200619+561653242+565461346+566198087+563863536+559625061
3718+555639936+553427314+553395387+554727774+554785302+550865487+543995220
3708+537792346+535048443+536848766+541746525+545793943+546277406+544775488
3698+544344717+546477882+551195057+558109107+566796388+575503743+580451212
3688+580100697+577492614+575209410+573696256+573331522+575008352+579834074
3678+588076220+595777993+595988725+590312587+586522993+585586722+582693507
3668+576524488+570140629+565113667+561051523+557892557+556494242+557515751
3658+560219617+562861009+565168141+569131375+576343976+585429192+590815287
3648+588034765+580226008+572187902+566326489+563635714+563665569+564637332
3638+565057266+564837662+564844063+566667295+572339177+581848364+589815997
3628+589584684+583630942+579098861+579308028+584312554+592477680+600710045
3618+606468692+610054829+612455308+613093210+611802787+610832515+612433707
3608+615654710+617824348+618789529+620750073+623957694+625286517+623129097
3598+621170808+623498995+628945710+633206658+635205166+637580772+641423531
3588+644056523+643099415+640244965+638278675+638021507+639069162+640481260
3578+641018069+640604316+640651881+642327474+645648551+649802225+652919226
3568+652588238+648829553+644747590+642194454+640252165+637951615+635787140
3558+634711339+634819559+634990253+633724485+630890689+628179878+627385973
3548+628134568+628034930+626038894+624218862+624577632+626272935+627289316
3538+626830545+625010149+622085006+619059643+617529434+618174682+619929840
3528+620917422+620267155+618518615+616216538+613712712+612417852+613749222
3518+616475015+617363613+615060954+611317324+608250469+606378182+605311072
3508+605157578+605930465+606242470+604594914+601733190+599854793+599674463
3498+599823047+598947977+597444823+596650154+596884159+597408204+597961596
3488+598725064+598949723+597512206+594842159+592605501+591718176+591769486
3478+591899306+591700757+591564355+592056618+592929579+593180493+592096765
3468+589865852+587253333+585122932+583936874+583444175+582996167+582120806
3458+581063260+580849292+582267063+584720234+586543284+586415900+584383573
3448+581712726+579644143+578177390+576645836+574995661+573697529+572883223
3438+572360632+572174847+572249903+571842914+570382815+568432526+566906899
3428+566023938+565814262+566696714+568503146+569947571+569989536+568772096
3418+566814861+564553112+562778026+562227580+562574786+562709479+561989903
3408+560478640+558200890+555270111+552637337+551387896+551477971+552237657
3398+553284657+553967906+553259384+551184038+549125456+548055874+547684376
3388+547496591+547432190+547564701+547875907+548452608+549438480+550534972
3378+551252840+551726739+552096818+551326077+548418207+544561557+542132823
3368+542026130+543367572+544953964+546003510+546357116+546485337+546998728
3358+547959290+548812287+549087819+548959162+548775705+548309515+547200477
3348+545815470+544840908+544472465+544440391+544168532+543091531+541505539
3338+540379628+540032386+540023440+540160824+540362792+539976021+538449158
3328+536291010+534588289+533929150+534111772+534635490+535190445+535568816
3318+535541142+535247792+535299284+535990641+536683490+536481050+535391394
3308+534317921+533881586+533753620+533426814+533064553+532991643+533016479
3298+532850877+532630982+532625600+532772221+532761675+532316431+531514162
3288+531088700+531994098+534381813+537158517+538707199+538215226+536260501
3278+534203301+533205719+533431723+533934350+533829985+533509215+533904350
3268+534936986+535591725+535226919+534121008+532992406+532374068+532153991
3258+531733802+530902696+530154392+529887951+529784022+529294086+528389052
3248+527397034+526448290+525666640+525513619+526037992+526205413+525134885
3238+523593949+523064630+523719333+524317089+523826935+522436292+521114450
3228+520617350+520818990+520869137+520046213+518400511+516541132+515023396
3218+514077852+513673482+513616390+513680027+513747083+513663372+513013943
3208+511552826+509774576+508433607+507558500+506522082+505058347+503662867
3198+502894381+502654450+502291389+501290498+499778180+498285899+497183080
3188+496639870+496956312+498199898+499439811+499263589+497367301+494927767
3178+493176718+492172664+491179082+489738402+488033063+486478962+485267159
3168+484255868+483262651+482389981+481850371+481628731+481595494+481646440
3158+481477637+480793625+479771934+478638132+477141379+475179453+473321529
3148+472019724+471121417+470484060+470063217+469370695+467883396+465914416
3138+464394425+464010273+464728940+465752195+466010490+465103529+463556447
3128+462033765+460753342+459719033+458980511+458484029+458027112+457509430
3118+456993530+456446429+455686961+454712762+453830892+453306083+453035751
3108+452682944+452084134+451436959+451003315+450707637+450232755+449419396
3098+448322903+447081354+445995117+445430343+445389469+445409070+445079319
3088+444470035+443865842+443304742+442646148+441971372+441556529+441426708
3078+441290960+440945972+440414436+439756715+439057721+438455237+437945374
3068+437340127+436549131+435689443+434867355+434087705+433322819+432482804
3058+431522387+430710045+430347166+430046870+428984160+427174092+425718320
3048+425364132+425589445+425558608+425217330+424914161+424654447+424266076
3038+423735667+422994672+421913707+420787833+420232259+420272733+420056911
3028+418809907+416726924+414713361+413531122+413256499+413289009+412882347
3018+411866365+410760928+410097207+409871639+409721018+409371812+408852530
3008+408413431+408220773+408031715+407387995+406255502+405117882+404318413
2998+403704875+403018972+402193939+401193340+400024410+398924536+398156922
2988+397705023+397407781+397188832+396962355+396524784+395743243+394796971
2978+394101286+393889828+393886264+393541786+392656970+391592733+390791628
2968+390281400+389759137+389010541+388093798+387180400+386384495+385791248
2958+385493861+385437023+385280621+384655810+383636192+382685775+382033363
2948+381424116+380597010+379634666+378738468+378029765+377602884+377434772
2938+377273715+376882690+376286134+375598849+374813199+373939510+373200770
2928+372859273+372880182+372911528+372594396+371847328+370843674+369766891
2918+368732909+367954168+367694236+367902821+368122862+367890421+367089789
2908+365963732+364955642+364397341+364172246+363835004+363112482+362101264
2898+361074882+360300795+359880243+359612965+359173866+358463199+357683658
2888+357130630+356934154+356890335+356597784+355889226+355003647+354243633
2878+353682096+353295217+353104777+353034157+352871136+352569676+352377855
2868+352433601+352424619+351896355+350773717+349427293+348347347+347794610
2858+347632171+347500096+347218745+346893576+346605716+346236764+345680900
2848+345044707+344515643+344118254+343721447+343282348+342953106+342835540
2838+342730338+342283239+341372350+340296186+339575809+339556573+340074655
2828+340444952+339985126+338763759+337637048+337270569+337354606+337109220
2818+336283715+335271769+334526374+334221060+334200659+334020329+333320789
2808+332274516+331395482+330932820+330697615+330386628+329819418+328947403
2798+327919275+327120497+326835365+326811183+326463358+325587670+324531724
2788+323636545+322926641+322367395+321992334+321733202+321405451+320855586
2778+320023208+318978753+317930189+317046900+316310815+315633821+315012501
2768+314476309+313981137+313440727+312846280+312297980+311873390+311508584
2758+311068613+310504530+309915610+309459202+309139451+308707625+307928375
2748+306916466+306001723+305327238+304801629+304325838+303846321+303290002
2738+302615899+301871504+301147218+300517716+299978997+299410587+298709139
2728+297975871+297410261+297015509+296598992+296069474+295520500+295010218
2718+294506519+294077365+293852343+293716086+293318316+292517920+291600812
2708+290924291+290502029+290066403+289455665+288814272+288378137+288138515
2698+287837691+287318718+286737762+286315246+286005277+285615070+285153007
2688+284772800+284430540+283944131+283365357+282914822+282582180+282167499
2678+281657909+281217246+280881004+280528761+280073135+279512816+278898478
2668+278324177+277872296+277540490+277253049+276940134+276613837+276335178
2658+276059446+275613383+274930116+274203031+273708186+273563910+273690367
2648+273868079+273822042+273400235+272710604+271995573+271369126+270755733
2638+270073394+269385418+268861991+268649387+268750989+268971702+269035957
2628+268825390+268428710+267927665+267294945+266580750+266017286+265793427
2618+265828864+265885647+265821064+265633642+265352183+265038686+264852029
2608+264906429+265064614+265060105+264809846+264450912+264161289+264077469
2598+264214508+264351711+264208072+263805119+263433531+263264691+263240309
2588+263286946+263380821+263426549+263279801+262917194+262488096+262166326
2578+261975268+261777992+261443113+260990215+260550625+260235583+260090162
2568+260124108+260312075+260587189+260906249+261318293+261884758+262504041
2558+262917994+262976541+262811392+262635371+262465259+262185454+261774774
2548+261316638+260888904+260539479+260254238+259940960+259580753+259307548
2538+259171928+258979579+258564335+258060708+257713847+257562717+257485425
2528+257446479+257512116+257661792+257773521+257808922+257837759+257853577
2518+257738175+257458679+257159274+256993998+256940706+256832559+256575100
2508+256276404+256097273+256033127+255960143+255846123+255772758+255759994
2498+255695266+255476298+255147565+254833451+254578155+254325769+254044600
2488+253808996+253738104+253843233+253932471+253738704+253190422+252476263
2478+251823106+251325643+250985801+250771015+250613848+250447718+250247097
2468+250018311+249791579+249590285+249367826+249034602+248569758+248052985
2458+247614632+247382664+247368264+247396682+247299790+247126914+246995766
2448+246863436+246644796+246415501+246287499+246212825+246079550+245875783
2438+245633924+245357992+245123860+245078296+245196916+245234535+245066423
2428+244869383+244816618+244832946+244793109+244725944+244694434+244653015
2418+244523104+244317809+244152043+244158734+244376465+244682561+244872747
2408+244877238+244872347+245058204+245356919+245529304+245566541+245693288
2398+245974312+246211152+246278390+246302099+246426283+246604668+246703325
2388+246658996+246449684+246023876+245334518+244339955+242919312+240937749
2378+238524307+236166356+234311559+232910716+231599547+230293142+229205578
2368+228327544+227458601+226711752+226390037+226539203+227176869+228665259
2358+231382071+235252121+239973896+245604723+252305769+259304130+264915484
2348+267819008+268069886+267150215+266692788+266797227+266299545+264408257
2338+261374967+257937178+254587901+251469264+248663232+246258353+244264663
2328+242671562+241442431+240451341+239664763+239273374+239414013+239903131
2318+240381685+240597143+240537761+240410776+240487196+240939259+241777910
2308+242816092+243704653+244177843+244279645+244253663+244271445+244364083
2298+244534159+244784181+245038877+245165606+245132697+245081787+245195534
2288+245520540+245921583+246186570+246188879+245954657+245585287+245174443
2278+244809764+244574887+244500213+244522249+244517795+244406247+244204771
2268+243958021+243685089+243438103+243295555+243240445+243173626+243081097
2258+243053478+243101970+243077860+242854693+242519214+242263228+242139498
2248+242076261+242061206+242127425+242223209+242246391+242151953+241989095
2238+241912767+242080624+242442922+242778909+243018732+243341901+243886220
2228+244542104+245113987+245561304+245994057+246507448+247116641+247809781
2218+248576031+249408718+250344044+251461154+252785778+254217349+255612428
2208+256954997+258390277+260058343+261954632+263958067+265905629+267658151
2198+269202033+270673805+272220305+273857661+275486181+277018244+278460325
2188+279843695+281133518+282273792+283236700+283989350+284549942+285059205
2178+285635288+286221262+286667198+286858837+286756872+286385702+285750999
2168+284830601+283728000+282668527+281748201+280822985+279674710+278257248
2158+276789440+275506999+274364652+273175213+271895717+270640768+269660859
2148+269218233+269269234+269793425+271582784+275750386+282306429+290143859
2138+298351969+306700026+315138794+323615381+332152514+340792195+349605442
2128+358625057+367715763+376766215+385848849+394931628+403644256+411413885
2118+417711560+422310842+425435879+427676282+429840866+432806155+437385437
2108+444296977+453983731+466273658+480263798+494295719+506107747+513891522
2098+517352310+517248418+514581389+510423897+505419844+499440029+492043279
2088+482683950+470777266+456265263+439604894+421360352+402498999+384269075
2078+367397831+352197161+339036418+327994222+318759658+311128759+304898176
2068+299637828+295151421+291506938+288496975+285812346+283428740+281350140
2058+279556617+278209720+277357214+276863442+276872024+277706475+279470379
2048+282285211+286487449+292397117+300388477+310984902+324513688+341058272
2038+360651129+382803049+406059462+428561571+448711274+465292659+477704734
2028+486105174+491101081+493440068+493754910+492480887+490047099+486670820
2018+482047247+475872883+468372750+459909327+450602871+440446509+429386567
2008+417452646+404958315+392359837+379987618+368035078+356637821+345923013
1998+336108366+327502504+320248485+314040702+308272308+302624990+297321296
1988+292646304+288606487+285162171+282338175+280032407+278051426+276292577
1978+274718367+273308051+272071920+270985119+270049775+269452692+269326217
1968+269340163+268936901+268025085+267052849+266379674+265967448+265694516
1958+265594605+265666025+265743481+265686625+265515458+265352910+265355328
1948+265652861+266313164+267282017+268143505+268149196+267032849+265502567
1938+264393784+263855411+263621188+263542533+263652480+263982377+264429421
1928+264877138+265489476+266495221+267616932+268400691+269069412+270008702
1918+270626549+270018629+268605059+267753062+268139578+269275289+270202414
1908+270389200+270064576+269761788+269713442+269831244+270057266+270477892
1898+271138304+271835480+272229196+272394053+272939445+274049919+274861879
1888+274553655+273528183+272650131+272172722+271965864+271966828+272085593
1878+272185250+272254960+272443654+273181449+275163866+278509107+281710128
1868+282414849+280220956+277192375+275218667+274609656+274750677+275010318
1858+275090392+275038173+275071174+275331542+275887006+276840059+278334177
1848+280641363+283890112+286978603+287548995+285016677+281882604+280390213
1838+280549834+281169591+281678491+282863439+285626361+289159151+291217369
1828+291049057+290134641+289343281+288170461+286641306+285679671+285674634
1818+286113279+286523231+287164479+288603305+290720051+292438791+292841325
1808+292318007+292063839+292941618+295101656+297957943+300290821+301125836
1798+300924214+301364022+303789792+307744663+310501766+309592732+306435694
1788+304311893+304472277+306022596+307883320+309788663+311474002+312436019
1778+313074539+314890899+319069300+324948168+329520031+330096841+327667489
1768+324698200+322562817+322265757+324360376+327561269+329552686+330078041
1758+330601541+331538539+332811908+335521483+340668774+346887248+350957684
1748+351554568+350461312+349846246+350690516+352910119+355471546+357083902
1738+358297524+361489035+367200809+371286627+369605070+364789712+360608401
1728+357921335+356802115+357225105+358615966+360960516+365631981+373560340
1718+382338750+386382640+383738012+378508464+374533194+373180151+374759125
1708+378954436+384208602+388524169+392308927+397989501+405563999+410863548
1698+411593742+409667090+405808621+401014936+398325943+399189959+402607656
1688+407868076+415963456+426199274+432165926+429476751+423747304+420796524
1678+422090765+426540989+431450895+434924411+438238361+442706549+446044608
1668+445531690+443606565+444364324+448131518+451766710+453009241+453639616
1658+456868110+464664430+477490185+491656182+497462212+495171371+495064969
1648+499690433+503948400+502775470+498974566+497692543+500590813+507503408
1638+517791700+528778550+534586980+533225756+530758439+532219811+537899293
1628+545586957+553486806+561618005+569954553+577288065+583767235+591910398
1618+603157470+614270104+619779001+620227373+619987660+620738437+621699399
1608+622133225+622411266+623368883+625543758+629104258+634058818+640327948
1598+647694770+655698184+663486177+670113786+675394825+680032798+684643353
1588+689258126+693779151+698129047+702001115+705254846+708671416+713685686
1578+720862832+728256563+732773080+735630367+741276285+751523594+763799376
1568+773930247+781888933+790712872+801829942+815736516+834791400+859850608
1558+879973656+885378989+884833233+885427135+886395370+885406916+882345044
1548+879298735+878504176+880351481+883742378+887532409+888822468+882511447
1538+871026225+862396472+858449783+855783918+851366603+846429424+843534173
1528+842829433+843375479+845464171+849510279+853326056+853556606+850577062
1518+847148201+843841815+840565757+838830817+840343135+845632901+854316110
1508+863957081+867204266+859260852+848154619+841461991+840077748+842112693
1498+844217603+843025000+839063912+836590341+838094804+841946654+844108292
1488+842417935+838822162+836097968+835156424+835228571+835314318+835773235
1478+837945856+842212550+847207620+850275602+848754629+843346242+838414228
1468+836897983+838244843+839909018+840175277+840380153+843091474+849078999
1458+855350456+855417148+847924724+839362026+834178807+832659362+832776091
1448+831704509+828484524+824798059+822159830+820553838+820106485+821692622
1438+824844241+826320268+823815423+820089539+818439982+818493147+817952919
1428+816118850+814343255+813646588+814177143+816218925+819694623+822528346
1418+821630148+817120613+812032232+808277838+805930815+804292604+802864142
1408+801859688+801611174+801677866+801357206+800912035+801224622+802526100
1398+804136601+805083163+804591373+802626320+800411808+799464882+799931145
1388+800227804+798715050+796328608+796086785+799664158+805938306+812667371
1378+818781661+824478780+829608762+833283955+835270390+836403210+837356609
1368+838326008+839644940+841488537+843239404+843985163+843436935+842026437
1358+840563284+839762470+839516211+839088567+838454665+838479538+839505956
1348+840913108+842224695+843655993+845520899+847829522+850368622+852748664
1338+854529932+855611260+856414111+857580895+859575767+862507674+866191521
1328+870317703+874566578+878629632+882250424+885523282+889105891+893631135
1318+898854282+903835098+908046300+911864986+915870439+919984476+923476319
1308+925770542+927042274+927990799+929254022+930888815+932252621+932718083
1298+932568408+932619245+933034671+933197801+932591027+931255076+929542682
1288+927860324+926478264+925225223+923676977+921766544+919904256+918635143
1278+918194189+918051714+917200353+915433122+913797238+913170755+913206246
1268+913381740+914157827+916150226+918908529+921406101+923245770+924962091
1258+927317697+930128801+931958506+931629119+929696575+927590065+925964218
1248+924568048+922945692+920873873+918549541+916155971+913203410+909128574
1238+904643476+901325963+899648042+898424166+896461440+894069252+892426532
1228+891859758+891454296+890362568+888909960+888038745+888036199+888357078
1218+888669156+889444443+891189564+893654990+896138089+898011504+898758062
1208+898405547+898288527+900162233+904115248+908309505+911156246+912873222
1198+914542706+916627034+918800382+920642233+922200879+923794216+925243696
1188+925931127+926122912+927201040+929667484+932228693+933765447+934950268
1178+937170453+940784336+944723024+947489400+948832333+950010390+951933770
1168+954223192+956543597+959241245+962187843+964467883+965536848+965744779
1158+965878017+966687850+968575302+971468808+974755630+977146217+977489787
1148+976440096+976258711+978435622+982364492+986334599+988924899+989505855
1138+988447800+987254979+987765897+990495109+994244266+997660836+1000897839
1128+1004784526+1008803070+1011830979+1014049345+1016229020+1017675591
1120+1016886123+1014437934+1012950417+1013783813+1015885741+1018246147
1111+1021341475+1025355728+1028772297+1029583657+1027387182+1023937593
1103+1021823229+1022670298+1026434874+1031756569+1036717529+1039984424
1094+1041348448+1040819639+1038605417+1036638255+1037797840+1042359375
1085+1047014076+1048641087+1047772780+1047085277+1047958238+1049549466
1077+1050455155+1049777179+1046615305+1041458850+1037804967+1039003825
1068+1043801146+1047407174+1047556340+1047282081+1049984529+1055112983
1060+1060161436+1063679608+1064871775+1062830066+1058040744+1053058910
1051+1050516465+1051556775+1055691830+1060914323+1064918757+1066729262
1043+1066781118+1065765172+1064699335+1065329528+1068507039+1072466746
1034+1073741823+1070401109+1063919176+1057372442+1052755778+1050452101
1025+1050141622+1051289934+1053584738+1056748649+1059359240+1059735974
1017+1058643519+1058706502+1060088272+1059785575+1056407697+1052454391
1008+1051120112+1053272951+1057491789+1061362476+1062735882+1061150399
1000+1057884669+1054345697+1051577502+1050490938+1050880544+1051224478
991+1050412973+1048841454+1047366518+1046337700+1045843437+1045103278
983+1042112243+1036152647+1029617694+1025183797+1023024923+1021693626
974+1020097089+1018076326+1015942542+1013902579+1011946472+1010309061
965+1009440536+1009055438+1007514975+1003226171+997091153+991898625+989001846
955+987268579+985319017+983247417+981455312+979148726+975286039+970578028
945+966977019+965013493+963277317+960812037+958565815+957758237+958190754
935+958992804+959804237+960287518+959524887+957182227+954637091+953657801
925+954469233+955997406+957199027+957401576+956508106+955295575+954365959
915+953373432+952113119+951295359+951763440+953635546+956254356+958388212
905+958932294+957791474+955583507+952809204+949961808+947617039+945780133
895+944376909+944351599+946787933+950853969+953728784+953386741+950746185
885+948126284+946524074+945261506+943739297+942561313+942497530+942866191
875+942047558+940022795+938586988+938148798+936706809+933229874+929752067
865+928508045+929327769+930796813+932187529+933913886+936450513+939009104
855+939902502+938462331+935988178+934642845+935584243+937713518+938427857
845+936570734+934031343+933224056+934065889+934806120+934875940+935022270
835+935323875+935000888+933964069+933126600+932977070+933251257+934077453
825+935865557+938175489+939982358+940949793+941617223+942687279+944378072
815+946027556+946458400+945631404+945851044+949330015+954435705+956881858
805+954894913+950525381+946015119+942186833+939664970+938950121+940163525
795+943186342+946688877+948355743+947783587+946854771+946570620+946146976
785+945430673+945884063+948684112+953080990+956754146+957986677+957048697
776+954587490+950767058+946975791+945454600+946384871+947919153+948923026
766+950027045+952325777+955870713+959055424+959761982+957945949+956110571
756+956708109+959725763+962331700+961371537+957311756+953888496+953128118
746+953926314+955667727+959245972+963723070+965430373+962034604+955903077
736+952212539+953942751+958642107+961045277+959031714+954648000+950442543
726+947828315+947744896+950195994+953271176+954711565+954841312+955765620
716+957964786+960051296+961361937+962555268+963636087+963193970+960158570
706+955155209+949466163+943937701+939047941+935478060+933888504+934109454
696+934836739+934174037+931141910+926880671+923085040+919635015+916032187
686+914162190+915871966+918682780+918014695+913481306+908461362+904809370
676+902216306+900864063+900637878+898697698+892311912+884959781+884220132
666+889054108+893301093+895645644+897435057+898527804+897460367+893832375
656+888939415+884755923+882772251+882708905+882067948+878574504+874286428
646+874465340+880609377+887134074+887577500+882642504+877040950+871871403
636+865848387+860278979+857935229+858944701+860627058+861478855+862278069
626+862836479+861305834+857114923+851964141+848285821+847791049+850382149
616+854915902+860590403+865501981+866215230+861888681+855959485+852946195
606+854392257+857114487+855032923+845528827+834565796
##END=
