##TITLE=<SNM>
##JCAMP-DX=4.24
##DATA TYPE=INFRARED SPECTRUM
##DATE=3/5/2025
##SAMPLING PROCEDURE=Instrument type and / or accessory
##ORIGIN=Admin
##XUNITS=1/CM
##YUNITS=ABSORBANCE
##RESOLUTION=4
##FIRSTX=4497.3318
##LASTX=599.83466
##DELTAX=-1.4281778
##MAXY=1.7326124
##MINY=0.18269671
##XFACTOR=1
##YFACTOR=1.613621e-09
##NPOINTS=2730
##FIRSTY=0.20741074
##XYDATA=(X++(Y..Y))
4497+128537454+128013547+127544272+127290385+127223693+127167509+126936025
4487+126457543+125891739+125752361+126480842+127648836+128182439+127646647
4477+126649087+125930598+125794877+126287857+127160740+127773060+127673040
4467+127101260+126576670+126354984+126480953+126954254+127574192+127899565
4457+127627670+126858399+125850617+124752963+123826252+123587362+124249215
4447+125172861+125377731+124674783+123916585+123931739+124589751+125193482
4437+125372772+125196493+124834523+124469710+124163167+123761499+123324129
4427+123290090+123763844+124222998+124296460+124121621+123750325+123001186
4417+122036520+121400781+121380077+121723679+121955745+121735656+121068862
4407+120308142+119824433+119654175+119561302+119389834+119184327+119044201
4397+119073715+119344372+119730804+119960432+119880432+119491849+118831029
4387+118052949+117435948+117083887+116845856+116613135+116414701+116199073
4377+115916716+115781142+115964514+116094676+115628531+114711701+114103749
4367+114291406+115151481+116236187+116919511+116666289+115633703+114601264
4357+114082962+114041785+114433323+115261843+116128114+116439404+116156021
4347+115802899+115644655+115347651+114646384+113884132+113509835+113438137
4337+113384586+113379793+113483987+113499123+113362266+113371731+113680998
4327+113992121+114007682+113784398+113482048+113221576+113284252+113917173
4317+114824954+115332110+115121801+114487392+113913212+113694804+113841496
4307+114110389+114243238+114253147+114362309+114732756+115359250+116105564
4297+116769643+117155132+117123569+116702295+116202804+116032601+116285879
4287+116682597+116936577+117017749+117056350+117086612+116945082+116554005
4277+116246410+116455130+117086639+117614619+117749296+117615533+117444878
4267+117429169+117617122+117770444+117619088+117271304+117081191+117206578
4257+117536670+117958765+118469319+118991730+119328193+119523514+119953570
4247+120661181+121077515+120922595+120719987+120868120+120987191+120669844
4237+120099856+119625779+119377691+119354817+119414786+119334325+119179885
4227+119357615+120076040+120941175+121307863+121052480+120760232+120951084
4217+121401613+121614923+121596038+121674440+121866668+121840127+121368220
4207+120644531+120183410+120326833+120852938+121276742+121446345+121572601
4197+121801757+122028033+122092140+122041848+122167199+122649365+123181658
4187+123248553+122829283+122475284+122559660+122802595+122809789+122777099
4177+123206434+124066139+124752400+124892877+124740903+124727439+125009556
4167+125483421+125903448+125980723+125615070+125055526+124714409+124808251
4157+125180350+125473171+125495214+125346324+125191737+125123779+125272447
4147+125743449+126307195+126478303+126109592+125579129+125226560+124988363
4137+124739980+124605450+124756860+125161604+125627934+126007827+126278235
4127+126356803+125980954+125073709+124104832+123685877+123940308+124587045
4117+125349953+126017237+126459464+126761057+127017050+127101103+126936469
4107+126745386+126762858+126957394+127167380+127256041+127099173+126678241
4097+126205309+125990918+126155673+126511215+126710239+126537266+126093293
4087+125674300+125472173+125455246+125531219+125684689+125904778+126127997
4077+126344826+126627100+126932147+127030144+126748313+126169082+125515668
4067+124979941+124720273+124850878+125298406+125791423+126108715+126238258
4057+126257494+126198928+126049521+125767053+125359816+125015171+124998733
4047+125390364+126028660+126631902+126934566+126891117+126678518+126390315
4037+125994409+125682205+125834022+126498785+127279645+127779459+127892676
4027+127746473+127586825+127667683+128114389+128813006+129408574+129551996
4017+129243865+128759141+128256916+127726434+127224154+126908672+126886463
4007+127111705+127399326+127608887+127839475+128280612+128863187+129256646
3997+129259426+129018024+128768227+128544002+128343971+128383670+128850554
3987+129553400+130118604+130378513+130370571+130146151+129752979+129344569
3977+129192604+129469892+130016562+130491082+130713627+130640665+130220887
3967+129694893+129769398+130946423+132737577+133970878+133984951+133234417
3957+132583701+132356067+132372856+132676767+133610081+134985641+135841800
3947+135709708+135498448+136130262+137040231+137024163+135976912+134753797
3937+134073853+134454549+136253008+138925643+140791847+140535309+138868176
3927+137733178+138083262+139060616+139511302+139771496+140904879+142671737
3917+143315610+141587289+138407563+135882728+135212729+136110232+138042593
3907+141348851+146420065+152122760+156121281+157099393+155251751+151097663
3897+145994312+142593492+142935302+146232482+148743234+147820743+146063369
3887+147239193+150760018+153166714+153801030+154347895+153920341+151041729
3878+148046326+148014965+150787712+154569876+158470880+161331227+161381759
3868+159740381+159372585+160331857+159835977+156745135+153325217+152354807
3858+155480104+163479788+174564959+180407457+174097097+162656708+154180711
3848+150628027+151274838+154695171+159379123+164410360+169388498+172969828
3838+172881194+169265087+165220716+162643576+160975547+159451633+158432963
3828+158281996+158922009+161313847+166893048+173837974+176835842+174937963
3818+172311179+169697137+164950012+159241361+155992754+156853549+161334958
3808+166984545+171013531+174196609+178914442+183323193+183153553+179645158
3798+176906524+175081322+172762991+170925636+171373552+174111891+177911711
3788+181983786+186163371+190289266+194688135+200542398+208162854+215568383
3778+220887242+225401876+231855299+241601895+253828537+265515195+273407259
3768+277751404+281163334+284827868+289281333+296069233+305896945+316880000
3758+326861247+336867686+349997491+368234591+390256477+410401816+424100437
3748+434415422+446088524+458865641+468412308+474384958+481653705+493612857
3738+510148757+527804223+541335772+547917611+549413987+549676952+551220166
3728+554439167+558165332+560980521+562475383+562021631+558039519+550964183
3718+544281317+541419585+543809170+550560556+557209660+557661418+551664831
3708+544662411+540781658+540656658+542791442+545536781+548577258+552193272
3698+555820184+559094149+563462821+571111701+582312914+593397919+597975404
3688+594559115+589109476+586153847+585736664+586736625+589130753+594056716
3678+601420616+606306094+603035453+596037687+592373837+590550556+585028444
3668+576503679+570583666+569377257+570597666+571300531+571204084+572096813
3658+574620188+577511545+580663834+586181625+594705835+603118306+606447383
3648+603041437+596039128+588912114+583284654+579573670+577532415+577114050
3638+578873206+583075545+589139988+596396692+604722100+612969973+616754612
3628+612852915+605672600+600729941+600136044+605014948+615002733+625250860
3618+629916333+630045100+630164190+631147343+632114539+634459465+638822117
3608+641837254+640789163+638061702+637682788+641109050+646935572+652789354
3598+656930744+658670028+658661458+658516068+659737253+663006084+667051508
3588+667998314+663775142+658632942+657413382+659799384+662443216+663452448
3578+663263988+662675854+661868084+661149336+661767021+664861354+669480580
3568+672144358+669929530+664069394+657899123+653519701+651349198+650675589
3558+650518157+650387912+650165321+649657344+648640281+647422346+646884523
3548+647089457+646492975+644045730+641331862+640653968+642021503+643414304
3538+643328681+642103433+641013379+640956125+642079866+644104979+646578746
3528+648757893+649621440+648524072+645795208+642641330+640317459+639257104
3518+638969354+638682194+637933304+636877382+636381446+636971649+637594874
3508+636879377+635231553+633732591+631987767+629402814+627386197+627666117
3498+629313202+629398973+626724999+623471166+622655565+624907332+627788900
3488+628261269+626121499+623928094+623433267+623961856+624416125+624793045
3478+625117734+624787209+623521107+621743481+620183792+619802514+621144930
3468+623274949+624329689+623568092+621955434+620447607+618983330+617322873
3458+615733043+614537493+613609082+612731425+612027083+611581716+611242215
3448+611092318+611252631+611141853+609864595+607259586+604272152+602479382
3438+602747260+604018902+604347101+603406980+602595812+602655098+602763660
3428+601843856+599637006+596699329+593982137+592277022+591942101+592896553
3418+594387130+595215031+594842396+593960602+593782780+595131144+597747900
3408+599876256+599472371+596474004+592836454+590314815+589281720+589270787
3398+589752759+590529538+591614014+592552028+592424295+591106997+589471843
3388+587990500+586375625+584580343+583030406+581904670+581113043+580850410
3378+581398429+582552977+583780183+584907396+586397789+588587241+590551553
3368+590519047+587917436+584361668+582112265+581959635+582907032+583570890
3358+583565275+583253108+582783436+582212479+581846529+581774980+581775238
3348+581979729+582864036+584197144+584707744+583428196+581108167+579642228
3338+579904158+580644959+580030746+577922448+575852787+575136846+575800815
3328+576913955+577401801+576876942+575941883+575463197+575605817+575838012
3318+575638175+574686899+572785345+570599513+569923835+571758641+574634040
3308+576193544+575861874+574801224+574317108+575139875+576893454+577927509
3298+577169679+575739977+575252944+575749987+576269120+576158083+575555876
3288+575474279+576826558+578808638+579511983+578592511+577698823+577971133
3278+578755705+578905675+578072455+576557462+574743193+573059354+572150743
3268+572484001+573787448+575254643+576091446+575705107+574002245+571771015
3258+570146648+569610708+569852728+570282138+570387966+570031363+569613700
3248+569591943+569865435+569992577+569647942+568549208+566718649+564962559
3238+564161660+564106917+563880558+563230959+562796526+563163879+564246544
3228+565413023+566107318+566223490+565644997+563908890+560985065+557975025
3218+556266326+556181331+556861368+557176453+556632239+555708187+555246862
3208+555397497+555525526+555089874+553977214+552247387+550398434+549563145
3198+550459049+552203763+552867879+551391634+548659815+546486911+545795682
3188+546082361+546288663+545696096+544255608+542590866+541468824+540828016
3178+539821074+538167857+536590364+535598161+534826332+533803839+532427845
3168+530579926+528317298+526397755+525549390+525432517+525342720+525414454
3158+525891809+525900822+524459780+522214551+520684117+520191248+519655234
3148+518305799+516740569+515947612+515971326+516107998+515932910+515347288
3138+514002101+511713026+509212884+507597271+507223639+507675839+508381696
3128+508833637+508692533+508088885+507476002+507031632+506437699+505346722
3118+503926181+502703186+501898741+501228419+500440448+499608927+498657208
3108+497194445+495231832+493558853+493000455+493580462+494615514+495392514
3098+495515113+494764155+493091730+490882183+488820390+487297049+486265026
3088+485737951+485901810+486652030+487532753+488151657+488311268+487904908
3078+487025182+486005718+485104641+484254171+483205932+481877884+480544369
3068+479571928+478927537+478236012+477349379+476442651+475572049+474626351
3058+473743891+473309532+473370481+473392053+472844440+471839715+470952195
3048+470532685+470387628+470069477+469361219+468433436+467567562+466831490
3038+466076505+465159361+464095792+463105620+462479144+462247430+462069645
3028+461589297+460774214+459808791+458804952+457755383+456733407+455936017
3018+455420208+455031653+454746710+454717011+454763628+454306773+453103208
3008+451665010+450703945+450402010+450350001+450098007+449610863+449082939
2998+448508768+447687995+446508145+445044828+443582103+442562565+442171535
2988+441951234+441238654+440067780+439262411+439446290+440180848+440345483
2978+439321734+437501223+435681229+434427427+434029046+434466952+435133764
2968+435034363+433712151+431744699+429995295+428708840+427656981+426720887
2958+425913338+425204674+424663674+424415226+424346299+424253362+424181517
2948+424177195+423926050+423119980+421975220+420993471+420389010+419960856
2938+419312808+418134103+416548963+415204072+414674633+414814777+415036851
2928+415062228+414953149+414603674+413782016+412607262+411445105+410378508
2918+409236260+408113701+407456271+407489183+407781698+407651010+406978398
2908+406252964+405748052+405140969+404125162+402929834+401984949+401464597
2898+401333096+401468475+401604557+401459352+401007927+400401435+399674708
2888+398802702+397918987+397169395+396472367+395718268+395060025+394697105
2878+394494904+394102322+393367210+392422473+391454242+390616885+390087890
2868+389904638+389790203+389444754+388953436+388606732+388423591+388157671
2858+387657599+386919310+385932758+384765503+383702452+383073317+382921019
2848+382922940+382698244+382196213+381683175+381339906+381071585+380777519
2838+380540337+380353835+379901376+378906365+377590950+376513382+375972271
2828+375748498+375410474+374739339+373853666+373022034+372420381+372047672
2818+371774660+371384812+370692548+369778876+368994119+368611658+368552483
2808+368487176+368131939+367461100+366675862+365923389+365120939+364187209
2798+363314944+362770841+362505032+362209081+361695969+361006107+360226300
2788+359436667+358749870+358187187+357616673+356936710+356138729+355160229
2778+353985292+352870896+352106455+351586398+350950836+350070149+349117174
2768+348259796+347530521+346956497+346607688+346423993+346116886+345405821
2758+344306164+343107068+342171307+341742304+341713529+341618892+341081327
2748+340181655+339234553+338416182+337733005+337112292+336429596+335608787
2738+334732976+333967464+333373678+332850261+332258802+331577362+330867442
2728+330137280+329386654+328758959+328441399+328355776+328095064+327318138
2718+326173711+325137588+324405985+323735220+322970225+322330340+321976359
2708+321712065+321323583+320834223+320256062+319448662+318397652+317379112
2698+316692943+316379594+316268890+316168344+315921743+315398325+314556424
2688+313501831+312447202+311638509+311260333+311277214+311374990+311184683
2678+310606079+309849986+309171704+308620804+308064530+307422614+306798206
2668+306352562+306136749+306054321+305910298+305549798+305021781+304498419
2658+304015670+303483960+302928941+302474820+302123979+301799253+301526777
2648+301322803+300970890+300173629+298946516+297702263+296918891+296784804
2638+297094755+297384389+297260682+296738262+296171017+295785416+295466453
2628+295069254+294667234+294349268+294032687+293643984+293282301+293071364
2618+292991466+292919658+292718916+292314348+291804727+291411886+291190367
2608+290917373+290411464+289827357+289490533+289527767+289740330+289789919
2598+289486008+288916898+288320010+287872519+287612528+287467987+287312144
2588+287052633+286704045+286355586+286084569+285902056+285755300+285590942
2578+285411606+285242077+285074986+284891697+284701705+284543848+284472945
2568+284502902+284552547+284556352+284631171+284977690+285602522+286257496
2558+286648582+286656450+286407799+286149193+285986424+285779384+285334811
2548+284621382+283750687+282860508+282096381+281615886+281486343+281577839
2538+281646618+281569787+281451657+281470330+281640819+281740793+281495559
2528+280904174+280342082+280212151+280521270+280913852+281051688+280828524
2518+280321304+279726780+279297241+279174698+279297112+279526020+279780378
2508+279980621+279995840+279746856+279286935+278745381+278260693+277922743
2498+277694242+277466295+277234451+277083133+276978172+276776895+276479115
2488+276256967+276195447+276157474+275931355+275421531+274701601+273934057
2478+273253429+272735183+272424660+272281228+272130482+271825943+271421504
2468+271062979+270811115+270677822+270677287+270742945+270750923+270671487
2458+270552416+270366579+270035777+269608288+269264687+269092978+268954422
2448+268670089+268279520+267993395+267941256+268070319+268211812+268168151
2438+267840710+267329888+266855783+266590399+266567479+266666289+266693974
2428+266572170+266391079+266229621+266052742+265865685+265826309+266057193
2418+266421997+266662854+266746353+266871667+267104785+267239094+267101978
2408+266786487+266486621+266276145+266137515+266081332+266148652+266332218
2398+266551983+266725723+266859976+267037170+267292340+267542414+267652232
2388+267507802+267018793+266146842+264928095+263354573+261264966+258519350
2378+255292574+252038445+249078641+246310493+243430828+240371217+237344887
2368+234630226+232593846+231640465+231754088+232487445+233723941+235930366
2358+239498934+244378225+250438512+257753006+266106007+274315557+280670520
2348+284078331+284686375+283699528+282287500+280484923+277751478+274117955
2338+270128991+266172071+262293516+258552096+255274732+252844238+251380479
2328+250707830+250430625+250080504+249545765+249303116+249862734+251067093
2318+252246815+252962737+253346066+253767182+254406310+255245219+256311872
2308+257684467+259248053+260648777+261586847+262068247+262307775+262489198
2298+262705528+262998838+263330877+263623504+263898843+264243146+264635192
2288+264981453+265259655+265461690+265506995+265362141+265135283+264952586
2278+264813180+264616723+264310263+263984115+263789025+263763260+263794861
2268+263746878+263578753+263365969+263223239+263199192+263242391+263245605
2258+263115840+262860448+262606016+262448492+262310914+262059271+261730649
2248+261518880+261524015+261631875+261685676+261678602+261704127+261804470
2238+261956232+262146594+262391071+262699174+263053359+263434157+263860796
2228+264367074+264925122+265456574+265948187+266509578+267277990+268265262
2218+269346155+270434306+271591070+272893187+274296700+275723059+277193431
2208+278801989+280586023+282458396+284315920+286185060+288143573+290158399
2198+292152945+294133308+296108055+298012767+299815788+301568591+303300191
2188+304964619+306518157+307968804+309298865+310410342+311241568+311873807
2178+312445835+313039177+313627939+314052436+314155457+313971319+313586531
2168+312916985+311873289+310595995+309343911+308264182+307286329+306205714
2158+304922121+303496334+301991628+300516529+299285075+298380600+297713621
2148+297234493+296950233+297207343+299164342+304009853+311463753+320014559
2138+328617743+337181995+345718247+354054551+362117511+369955663+377708894
2128+385582249+393714838+402175145+410869567+419277089+426639696+432483210
2118+436713880+439496822+441264770+442558317+443885072+445977339+449976997
2108+457015838+467535943+481061766+496426828+511792739+524718571+533206877
2098+536728329+535809190+531390244+524678308+516597396+507489521+497412604
2088+485950384+472304585+456390249+439010786+420988632+403120399+386314148
2078+371119778+357816288+346719389+337705930+330141639+323689269+318422475
2068+314266568+310985031+308285034+305754270+303269126+301144445+299503510
2058+298141239+296993913+296101757+295492568+295425968+296162816+297609067
2048+299730811+302914277+307705562+314695645+324482780+337365394+353420318
2038+372783338+395161643+419266746+443244153+465333378+484041996+498307992
2028+507603033+511975473+512267324+509755399+505424589+499927484+493670851
2018+486618157+478628816+469949095+460912068+451512675+441526146+430724275
2008+419033221+406735269+394449396+382794505+372045123+362098451+352770238
1998+344098238+336368352+329879856+324571174+319866990+315169122+310467745
1988+306153002+302497537+299611943+297497642+295917102+294509193+293089132
1978+291685379+290402451+289316442+288406538+287665627+287246892+287231452
1968+287296224+286937164+286057789+285073398+284387322+283994851+283697939
1958+283497179+283517310+283693876+283816383+283801256+283742229+283762600
1948+283961310+284510788+285546394+286650503+286783389+285441637+283506340
1938+282205460+281857334+281996573+282131823+282116051+282055176+282042063
1928+282147042+282691829+283970600+285543421+286643891+287363378+288208437
1918+288671959+287807581+286075611+284996603+285307994+286431716+287313215
1908+287421242+287036251+286712356+286643355+286653643+286642635+286847606
1898+287589515+288715897+289568510+289929140+290489497+291607475+292316047
1888+291617135+290038903+288751284+288167269+288092192+288292047+288545500
1878+288680436+288706866+288831164+289615274+291926402+295928590+299831173
1868+300722368+297964914+294042254+291356497+290356186+290319284+290535448
1858+290665268+290656440+290638728+290774384+291235025+292240453+294003229
1848+296790641+300647309+304232093+304853305+301945936+298420956+296732278
1838+296769456+297211314+297563522+298836938+302089811+306354280+308921317
1828+308796133+307629598+306352248+304381084+301993180+300567910+300629043
1818+301384804+302005111+302659697+304082492+306275361+308071271+308410514
1808+307688441+307235871+308122172+310672125+314186485+316968726+317669854
1798+316994989+317248608+320163531+325092006+328504416+327188890+322871599
1788+319728618+319499526+321209554+323440119+325722139+327743226+328896518
1778+329575151+331601889+336526522+343585495+349035134+349507688+346182083
1768+342094179+339045465+338373740+340686714+344285331+346378115+346819825
1758+347414460+348480097+349775307+352705707+358607473+365780585+370201784
1748+370358440+368601389+367499553+368011372+369912519+372071793+373203771
1738+374155897+377770840+384667949+389830281+388013464+382129244+376721308
1728+373023364+371347024+371736724+373466699+376471198+382315118+392022762
1718+402702256+407635200+404352186+397803148+392817825+391200660+393252775
1708+398434832+404809373+409900709+414039218+420112710+428438857+434518333
1698+435546293+433272843+428388066+422358494+419020588+420085598+424318780
1688+430819613+440737289+453285979+460713228+457531019+450508024+446700077
1678+447946232+453172615+459332876+463912097+467997267+473027433+476447675
1668+475348423+472866197+473780719+478256882+482348775+483258163+483219821
1658+486326048+495181670+510369168+527007461+532849941+528891802+528055479
1648+533036664+537399316+535121581+529652808+526940307+528880055+535502379
1638+546244890+557777146+562801365+559127948+554392809+554587216+559895011
1628+567569600+575501355+583817158+592293570+599182515+604945947+613054784
1618+624993842+636255930+640297955+638221202+635161444+633121555+631670170
1608+630147124+628746788+628543700+630519611+634700378+640431229+647084803
1598+654144552+660964718+666826331+671325064+674718007+677572832+680085015
1588+682246062+684399130+686890480+689506608+692001578+695073379+700283989
1578+708519267+717569259+722740197+724255116+727450661+734908384+744346156
1568+752435158+759921398+769623575+782599680+799384433+822180992+850482413
1558+871265162+875687654+874564134+875454203+878228723+880748146+881571283
1548+881581330+883543278+888937251+896584321+904045073+906396057+897136625
1538+881425228+870612386+866491090+864059359+859040976+853287371+851071212
1528+853338863+857928686+862623857+867036080+870803653+872448596+871817318
1518+870064072+867150146+862983564+859139011+857911916+861287646+870163510
1508+881498292+885154459+875182410+861969973+854246884+852649370+855168719
1498+858428906+858619213+855605479+853611690+855776874+860868986+863999814
1488+861495831+855447752+850242978+847878992+847717497+848400784+849764699
1478+852756639+857741038+863650967+867955847+867356853+861681410+855520816
1468+852920498+854300149+857100526+858342839+858675507+861680966+869066364
1458+877020393+877024604+867804030+857521033+850944956+848368278+848494238
1448+848897015+847425018+844176356+840674001+838125618+837524556+839757263
1438+844192979+847361410+845985601+841975933+839052330+837758154+836326347
1428+834122969+832525381+832541117+833932071+836559133+840235172+842530823
1418+839872732+833095784+826496806+822279618+820102023+818911275+818163937
1408+818245571+819522828+820870638+820601061+819265663+819197991+821358004
1398+824380455+826271112+825682387+822293433+817764411+814850115+814599303
1388+815254739+814232135+811759993+810855962+813451183+818707597+824719697
1378+830645288+836739614+842710713+847072847+849002881+849749998+850803334
1368+852339235+854445317+857995101+862868463+866642316+866958731+864450315
1358+861495757+859613152+858867513+858478404+857775096+856974344+856897438
1348+857883621+859408144+860971527+862946477+866090677+870302177+874193125
1338+876306594+876832376+877347667+878929150+881333547+883817509+885964002
1328+887800729+889876448+893080858+897816144+903518627+909103645+913593069
1318+916752267+919556116+923207333+927382633+930558009+932237821+933410321
1308+934676719+935663566+936581634+938717932+942605408+946675654+948633170
1298+948035654+946521030+945535956+944926619+943752863+941886364+940162077
1288+938915922+937345595+934832673+932032887+929945200+928609875+927343478
1278+925755938+924047609+922618904+921806553+921753879+922161015+922455857
1268+922552341+922959254+923916108+925056324+926074273+927080624+928242042
1258+929545748+930768336+931437292+931140676+929752086+927055875+922941893
1248+918303386+914666870+912451745+910415625+907242834+903086373+899192249
1238+896495743+894801967+893089944+890528337+887292604+884443320+882929361
1228+882814409+883522962+884465853+885235354+885738530+886392931+887628079
1218+889215471+890732976+892306111+894094522+895638992+896596511+897627536
1208+899862164+903619690+907842715+910945100+912327189+912722209+913188520
1198+914533818+917309298+921287938+925301225+928343845+930292126+931345536
1188+931922810+933059923+935504214+938546759+940973172+942768011+944633476
1178+946455501+947642481+948545700+950394690+954009043+959118664+964403816
1168+967984037+968696654+967017506+964755987+964269360+966906026+971182685
1158+973957205+974486459+975014088+976991993+979557073+981617573+983115279
1148+984363059+985738056+987433530+989037841+990214847+991266928+992289088
1138+992926941+993563760+995365765+998605192+1001887394+1003391158+1002682975
1128+1000946055+999473615+998928847+1000107553+1003817871+1009191159+1013677037
1118+1015940550+1017238346+1018963001+1020748753+1022006064+1023249117
1110+1024618868+1025155805+1024805259+1025265291+1027326308+1029317955
1101+1029396264+1028246297+1028204778+1030154093+1032786622+1035038833
1093+1037284542+1039662048+1041244934+1041745228+1042008452+1041916623
1084+1040338317+1037731571+1036172400+1036689538+1038405476+1040252472
1075+1042518645+1046248467+1051324326+1056004649+1058646560+1059092037
1067+1058536261+1058630972+1059797562+1060469767+1059603635+1058958098
1058+1060428396+1062749165+1063688140+1063745173+1064724485+1066595417
1050+1068576425+1070854788+1073088160+1073447424+1070945657+1067080049
1041+1063991700+1062826661+1064268295+1068330415+1072691589+1073741823
1033+1070607005+1065871423+1062637463+1062511207+1065103990+1067698029
1024+1067579457+1065642183+1065236895+1068054337+1072049008+1073177625
1015+1069431550+1063318386+1059428251+1059593735+1062048812+1064594905
1007+1066320225+1066052569+1062311961+1056419689+1052488183+1052624781
998+1054650264+1055282059+1053459959+1050127078+1047190693+1046555721
990+1047997650+1049098638+1048561183+1047149544+1045108030+1042094149
981+1039186059+1037918110+1038024862+1037799168+1035836851+1031911698
973+1027118566+1023144507+1020489076+1017772254+1013642462+1008456453
964+1003410071+998953448+994933068+991441647+988290724+984768348+980763187
954+977009502+973842770+970868265+967880314+965356089+964109860+964336957
944+964961512+964665709+963668593+963229617+963506433+963337403+961942312
934+959645480+957171047+955139064+954002320+954002025+954948461+956032457
924+956406422+955978527+955390541+955153322+954928884+954137146+953090901
914+952910198+954108260+955814151+956638395+955925188+954141504+952544508
904+952172464+952519611+951937831+949753956+946934150+944723088+943934453
894+945071713+947521471+949150678+948279521+945637684+943296969+942325710
884+942167835+941717481+940527472+939122556+938321435+938559318+939713497
874+940966597+941088715+939545427+937406174+936622119+938007384+940106079
864+940461648+938319366+935546471+934264486+934606462+935740768+937811758
854+941035967+943854222+944187629+942167613+939713940+938050159+936942227
844+935590280+933732942+932490628+933697038+937538044+941647446+943526652
834+942991266+941292689+939228717+937099364+935188760+933611562+932353660
824+931653825+932111566+934324400+938190673+942591740+946175582+948353768
814+948921290+947560995+945084568+943833094+945013942+946983943+947744874
804+947629036+948030113+949185991+950286018+950513928+949824361+949239404
794+949594161+949886787+948356501+945310705+943240305+943844692+946160806
784+947989038+948484751+948711553+949896760+952001217+953608409+952908351
774+949780626+946539352+945692796+947561734+950437465+952275079+952158649
764+950884199+949915821+949527154+948731722+947207051+945973011+945543713
754+944942872+943720062+943689181+946646399+951163453+953918101+954105896
744+953755054+954048863+954611805+955311566+956017164+955809570+954415144
734+953058839+952738730+953347032+954686642+956578333+958570202+960384249
724+961862008+962351294+960710267+957195870+954592153+955384113+958545822
714+961161877+962232722+962218612+960550989+956222394+949669367+943012248
704+938833771+938263442+939760187+940568031+939604676+937733818+935211514
694+931052541+925298418+920199140+918011646+918262458+918822223+919149793
684+920069708+920718273+918478474+912579405+906062282+902650352+902658035
674+903523577+902940245+899942173+894460582+888500491+886072675+886907040
664+887748203+888371428+889368840+889166195+886617221+883835535+883284340
654+884426920+884524880+881654542+877036793+874169706+874682854+876160835
644+875378922+872940394+872112825+873875528+875896356+875966761+874107058
634+871417201+869431759+869259257+869252313+866040737+859286838+853101053
624+850917105+852026440+854616637+858313215+862123563+862832042+857329175
614+847390222+839298118+837226980+840221579+843945048+844365629+840517013
604+834311133+828312700+824113094+822798751
##END=
